Potential applied (V);Time (s);WE(1).Current (A);WE(1).Potential (V);Scan;Index;Q+;Q-;Current range
0,050048828125;8,78523397781942;6,1309814453125E-09;0,050079345703125;1;1;4,16227761656046E-07;-7,27910932153463E-07;100 nA
0,10009765625;9,28572197655581;8,819580078125E-09;0,100128173828125;1;2;4,16227761656046E-07;-7,27910932153463E-07;100 nA
0,150146484375;9,78620997529219;1,25152587890625E-08;0,150054931640625;1;3;4,16227761656046E-07;-7,27910932153463E-07;100 nA
0,2001953125;10,2866979740286;1,38946533203125E-08;0,2000732421875;1;4;4,16227761656046E-07;-7,27910932153463E-07;100 nA
0,250244140625;10,787185972765;1,48406982421875E-08;0,25006103515625;1;5;4,16227761656046E-07;-7,27910932153463E-07;100 nA
0,30029296875;11,2876739715014;1,4532470703125E-08;0,29998779296875;1;6;4,16227761656046E-07;-7,27910932153463E-07;100 nA
0,350341796875;11,7881619702378;1,17889404296875E-08;0,35009765625;1;7;4,16227761656046E-07;-7,27910932153463E-07;100 nA
0,400390625;12,2886499689741;9,4268798828125E-09;0,400146484375;1;8;4,16227761656046E-07;-7,27910932153463E-07;100 nA
0,450439453125;12,7891379677105;8,428955078125E-09;0,4500732421875;1;9;4,16227761656046E-07;-7,27910932153463E-07;100 nA
0,50048828125;13,2896259664469;7,8033447265625E-09;0,500030517578125;1;10;4,16227761656046E-07;-7,27910932153463E-07;100 nA
0,550537109375;13,7901139651833;7,2357177734375E-09;0,550079345703125;1;11;4,16227761656046E-07;-7,27910932153463E-07;100 nA
0,6005859375;14,2906019639197;6,9427490234375E-09;0,600067138671875;1;12;4,16227761656046E-07;-7,27910932153463E-07;100 nA
0,650634765625;14,7910899626561;6,8328857421875E-09;0,6500244140625;1;13;4,16227761656046E-07;-7,27910932153463E-07;100 nA
0,70068359375;15,2915779613925;6,8359375E-09;0,699951171875;1;14;4,16227761656046E-07;-7,27910932153463E-07;100 nA
0,750732421875;15,7920659601289;6,9244384765625E-09;0,749847412109375;1;15;4,16227761656046E-07;-7,27910932153463E-07;100 nA
0,80078125;16,2925539588653;6,8634033203125E-09;0,80047607421875;1;16;4,16227761656046E-07;-7,27910932153463E-07;100 nA
0,850830078125;16,7930419576016;6,9091796875E-09;0,849609375;1;17;4,16227761656046E-07;-7,27910932153463E-07;100 nA
0,90087890625;17,293529956338;7,0953369140625E-09;0,89996337890625;1;18;4,16227761656046E-07;-7,27910932153463E-07;100 nA
0,950927734375;17,7940179550744;7,5042724609375E-09;0,95001220703125;1;19;4,16227761656046E-07;-7,27910932153463E-07;100 nA
1,0009765625;18,2945059538108;8,2305908203125E-09;0,999755859375;1;20;4,16227761656046E-07;-7,27910932153463E-07;100 nA
0,950927734375;18,7949939525472;5,3436279296875E-09;0,95001220703125;1;21;4,16227761656046E-07;-7,27910932153463E-07;100 nA
0,90087890625;19,2954819512836;4,1107177734375E-09;0,89935302734375;1;22;4,16227761656046E-07;-7,27910932153463E-07;100 nA
0,850830078125;19,79596995002;3,3721923828125E-09;0,84991455078125;1;23;4,16227761656046E-07;-7,27910932153463E-07;100 nA
0,80078125;20,2964579487564;2,8717041015625E-09;0,8001708984375;1;24;4,16227761656046E-07;-7,27910932153463E-07;100 nA
0,750732421875;20,7969459474928;2,4627685546875E-09;0,749847412109375;1;25;4,16227761656046E-07;-7,27910932153463E-07;100 nA
0,70068359375;21,2974339462291;2,178955078125E-09;0,69989013671875;1;26;4,16227761656046E-07;-7,27910932153463E-07;100 nA
0,650634765625;21,7979219449655;1,9378662109375E-09;0,650115966796875;1;27;4,16227761656046E-07;-7,27910932153463E-07;100 nA
0,6005859375;22,2984099437019;1,751708984375E-09;0,60003662109375;1;28;4,16227761656046E-07;-7,27910932153463E-07;100 nA
0,550537109375;22,7988979424383;1,568603515625E-09;0,55010986328125;1;29;4,16227761656046E-07;-7,27910932153463E-07;100 nA
0,50048828125;23,2993859411747;1,37451171875E-09;0,50006103515625;1;30;4,16227761656046E-07;-7,27910932153463E-07;100 nA
0,450439453125;23,7998739399111;1,1480712890625E-09;0,450103759765625;1;31;4,16227761656046E-07;-7,27910932153463E-07;100 nA
0,400390625;24,3003619386475;8,404541015625E-10;0,400146484375;1;32;4,16227761656046E-07;-7,27910932153463E-07;100 nA
0,350341796875;24,8008499373839;4,69360351562501E-10;0,350189208984375;1;33;4,16227761656046E-07;-7,27910932153463E-07;100 nA
0,30029296875;25,3013379361203;4,91333007812497E-11;0,300079345703125;1;34;4,16227761656046E-07;-7,27910932153463E-07;100 nA
0,250244140625;25,8018259348567;-5,86853027343751E-10;0,2501220703125;1;35;4,16227761656046E-07;-7,27910932153463E-07;100 nA
0,2001953125;26,302313933593;-1,611328125E-09;0,200164794921875;1;36;4,16227761656046E-07;-7,27910932153463E-07;100 nA
0,150146484375;26,8028019323294;-2,6123046875E-09;0,150115966796875;1;37;4,16227761656046E-07;-7,27910932153463E-07;100 nA
0,10009765625;27,3032899310658;-3,40576171875E-09;0,100128173828125;1;38;4,16227761656046E-07;-7,27910932153463E-07;100 nA
0,050048828125;27,8037779298022;-4,559326171875E-09;0,050140380859375;1;39;4,16227761656046E-07;-7,27910932153463E-07;100 nA
0;28,3042659285386;-9,6282958984375E-09;0,000186157226562497;1;40;4,16227761656046E-07;-7,27910932153463E-07;100 nA
-0,050048828125;28,804753927275;-1,02813720703125E-08;-0,049774169921875;1;41;4,16227761656046E-07;-7,27910932153463E-07;100 nA
-0,10009765625;29,3052419260114;-7,5225830078125E-09;-0,09967041015625;1;42;4,16227761656046E-07;-7,27910932153463E-07;100 nA
-0,150146484375;29,8057299247478;-6,671142578125E-09;-0,149566650390625;1;43;4,16227761656046E-07;-7,27910932153463E-07;100 nA
-0,2001953125;30,3062179234842;-6,1981201171875E-09;-0,199432373046875;1;44;4,16227761656046E-07;-7,27910932153463E-07;100 nA
-0,250244140625;30,8067059222205;-5,841064453125E-09;-0,249359130859375;1;45;4,16227761656046E-07;-7,27910932153463E-07;100 nA
-0,30029296875;31,3071939209569;-5,731201171875E-09;-0,299224853515625;1;46;4,16227761656046E-07;-7,27910932153463E-07;100 nA
-0,350341796875;31,8076819196933;-6,0546875E-09;-0,34918212890625;1;47;4,16227761656046E-07;-7,27910932153463E-07;100 nA
-0,400390625;32,3081699184297;-7,171630859375E-09;-0,399017333984375;1;48;4,16227761656046E-07;-7,27910932153463E-07;100 nA
-0,450439453125;32,8086579171661;-1,02203369140625E-08;-0,448944091796875;1;49;4,16227761656046E-07;-7,27910932153463E-07;100 nA
-0,50048828125;33,3091459159025;-1,8792724609375E-08;-0,49884033203125;1;50;4,16227761656046E-07;-7,27910932153463E-07;100 nA
-0,550537109375;33,8096339146389;-3,5400390625E-08;-0,548675537109375;1;51;4,16227761656046E-07;-7,27910932153463E-07;100 nA
-0,6005859375;34,3101219133753;-5,224609375E-08;-0,598541259765625;1;52;4,16227761656046E-07;-7,27910932153463E-07;100 nA
-0,650634765625;34,8106099121117;-8,11767578125E-08;-0,6484375;1;53;4,16227761656046E-07;-7,27910932153463E-07;100 nA
-0,70068359375;35,311097910848;-1,25732421875E-07;-0,6983642578125;1;54;4,16227761656046E-07;-7,27910932153463E-07;100 nA
-0,750732421875;35,8115859095844;-1,513671875E-07;-0,748291015625;1;55;4,16227761656046E-07;-7,27910932153463E-07;100 nA
-0,80078125;36,3120739083208;-1,585693359375E-07;-0,7989501953125;1;56;4,16227761656046E-07;-7,27910932153463E-07;100 nA
-0,850830078125;36,8125619070572;-1,62445068359375E-07;-0,8489990234375;1;57;4,16227761656046E-07;-7,27910932153463E-07;100 nA
-0,90087890625;37,3130499057936;-1,7138671875E-07;-0,8990478515625;1;58;4,16227761656046E-07;-7,27910932153463E-07;100 nA
-0,950927734375;37,81353790453;-1,8084716796875E-07;-0,94879150390625;1;59;4,16227761656046E-07;-7,27910932153463E-07;100 nA
-1,0009765625;38,3140259032664;-1,5936279296875E-07;-0,9991455078125;1;60;4,16227761656046E-07;-7,27910932153463E-07;100 nA
-0,950927734375;38,8145139020028;-3,57025146484375E-08;-0,94879150390625;1;61;4,16227761656046E-07;-7,27910932153463E-07;100 nA
-0,90087890625;39,3150019007392;-6,9580078125E-09;-0,89874267578125;1;62;4,16227761656046E-07;-7,27910932153463E-07;100 nA
-0,850830078125;39,8154898994756;-6,0577392578125E-09;-0,84869384765625;1;63;4,16227761656046E-07;-7,27910932153463E-07;100 nA
-0,80078125;40,3159778982119;-1,61224365234375E-08;-0,7989501953125;1;64;4,16227761656046E-07;-7,27910932153463E-07;100 nA
-0,750732421875;40,8164658969483;-4,13818359375E-09;-0,74853515625;1;65;4,16227761656046E-07;-7,27910932153463E-07;100 nA
-0,70068359375;41,3169538956847;1,36810302734375E-08;-0,698577880859375;1;66;4,16227761656046E-07;-7,27910932153463E-07;100 nA
-0,650634765625;41,8174418944211;4,08477783203125E-08;-0,648651123046875;1;67;4,16227761656046E-07;-7,27910932153463E-07;100 nA
-0,6005859375;42,3179298931575;5,8837890625E-08;-0,598602294921875;1;68;4,16227761656046E-07;-7,27910932153463E-07;100 nA
-0,550537109375;42,8184178918939;7,6629638671875E-08;-0,548919677734375;1;69;4,16227761656046E-07;-7,27910932153463E-07;100 nA
-0,50048828125;43,3189058906303;7,7392578125E-08;-0,498992919921875;1;70;4,16227761656046E-07;-7,27910932153463E-07;100 nA
-0,450439453125;43,8193938893667;6,4697265625E-08;-0,4490966796875;1;71;4,16227761656046E-07;-7,27910932153463E-07;100 nA
-0,400390625;44,3198818881031;5,0048828125E-08;-0,399200439453125;1;72;4,16227761656046E-07;-7,27910932153463E-07;100 nA
-0,350341796875;44,8203698868394;4,02496337890625E-08;-0,349273681640625;1;73;4,16227761656046E-07;-7,27910932153463E-07;100 nA
-0,30029296875;45,3208578855758;3,60809326171875E-08;-0,29931640625;1;74;4,16227761656046E-07;-7,27910932153463E-07;100 nA
-0,250244140625;45,8213458843122;3,2818603515625E-08;-0,249359130859375;1;75;4,16227761656046E-07;-7,27910932153463E-07;100 nA
-0,2001953125;46,3218338830486;2,9608154296875E-08;-0,199493408203125;1;76;4,16227761656046E-07;-7,27910932153463E-07;100 nA
-0,150146484375;46,822321881785;2,6861572265625E-08;-0,14959716796875;1;77;4,16227761656046E-07;-7,27910932153463E-07;100 nA
-0,10009765625;47,3228098805214;2,55584716796875E-08;-0,099700927734375;1;78;4,16227761656046E-07;-7,27910932153463E-07;100 nA
-0,050048828125;47,8232978792578;2,476806640625E-08;-0,049835205078125;1;79;4,16227761656046E-07;-7,27910932153463E-07;100 nA
0;48,3237858779942;2,45269775390625E-08;0,000131225585937506;1;80;4,16227761656046E-07;-7,27910932153463E-07;100 nA
0,050048828125;48,8242738767306;2,5201416015625E-08;0,050079345703125;2;81;5,28750106692314E-07;-6,36255044490099E-07;100 nA
0,10009765625;49,3247618754669;2,7459716796875E-08;0,100067138671875;2;82;5,28750106692314E-07;-6,36255044490099E-07;100 nA
0,150146484375;49,8252498742033;2,36846923828125E-08;0,149993896484375;2;83;5,28750106692314E-07;-6,36255044490099E-07;100 nA
0,2001953125;50,3257378729397;2,2125244140625E-08;0,200042724609375;2;84;5,28750106692314E-07;-6,36255044490099E-07;100 nA
0,250244140625;50,8262258716761;2,00164794921875E-08;0,250030517578125;2;85;5,28750106692314E-07;-6,36255044490099E-07;100 nA
0,30029296875;51,3267138704125;1,815185546875E-08;0,300048828125;2;86;5,28750106692314E-07;-6,36255044490099E-07;100 nA
0,350341796875;51,8272018691489;1,69158935546875E-08;0,35009765625;2;87;5,28750106692314E-07;-6,36255044490099E-07;100 nA
0,400390625;52,3276898678853;1,61285400390625E-08;0,400054931640625;2;88;5,28750106692314E-07;-6,36255044490099E-07;100 nA
0,450439453125;52,8281778666217;1,53594970703125E-08;0,450042724609375;2;89;5,28750106692314E-07;-6,36255044490099E-07;100 nA
0,50048828125;53,3286658653581;1,4947509765625E-08;0,500030517578125;2;90;5,28750106692314E-07;-6,36255044490099E-07;100 nA
0,550537109375;53,8291538640945;1,45172119140625E-08;0,550048828125;2;91;5,28750106692314E-07;-6,36255044490099E-07;100 nA
0,6005859375;54,3296418628308;1,4208984375E-08;0,60009765625;2;92;5,28750106692314E-07;-6,36255044490099E-07;100 nA
0,650634765625;54,8301298615672;1,38519287109375E-08;0,649993896484375;2;93;5,28750106692314E-07;-6,36255044490099E-07;100 nA
0,70068359375;55,3306178603036;1,36871337890625E-08;0,69989013671875;2;94;5,28750106692314E-07;-6,36255044490099E-07;100 nA
0,750732421875;55,83110585904;1,3421630859375E-08;0,749847412109375;2;95;5,28750106692314E-07;-6,36255044490099E-07;100 nA
0,80078125;56,3315938577764;1,3134765625E-08;0,79986572265625;2;96;5,28750106692314E-07;-6,36255044490099E-07;100 nA
0,850830078125;56,8320818565128;1,33392333984375E-08;0,849609375;2;97;5,28750106692314E-07;-6,36255044490099E-07;100 nA
0,90087890625;57,3325698552492;1,44775390625E-08;0,899658203125;2;98;5,28750106692314E-07;-6,36255044490099E-07;100 nA
0,950927734375;57,8330578539856;1,51275634765625E-08;0,94970703125;2;99;5,28750106692314E-07;-6,36255044490099E-07;100 nA
1,0009765625;58,333545852722;1,8084716796875E-08;0,999755859375;2;100;5,28750106692314E-07;-6,36255044490099E-07;100 nA
0,950927734375;58,8340338514583;1,241455078125E-08;0,94970703125;2;101;5,28750106692314E-07;-6,36255044490099E-07;100 nA
0,90087890625;59,3345218501947;9,7930908203125E-09;0,89935302734375;2;102;5,28750106692314E-07;-6,36255044490099E-07;100 nA
0,850830078125;59,8350098489311;8,7249755859375E-09;0,8502197265625;2;103;5,28750106692314E-07;-6,36255044490099E-07;100 nA
0,80078125;60,3354978476675;7,8033447265625E-09;0,8001708984375;2;104;5,28750106692314E-07;-6,36255044490099E-07;100 nA
0,750732421875;60,8359858464039;7,1258544921875E-09;0,749847412109375;2;105;5,28750106692314E-07;-6,36255044490099E-07;100 nA
0,70068359375;61,3364738451403;6,707763671875E-09;0,69989013671875;2;106;5,28750106692314E-07;-6,36255044490099E-07;100 nA
0,650634765625;61,8369618438767;6,34765625E-09;0,649993896484375;2;107;5,28750106692314E-07;-6,36255044490099E-07;100 nA
0,6005859375;62,3374498426131;5,9661865234375E-09;0,60009765625;2;108;5,28750106692314E-07;-6,36255044490099E-07;100 nA
0,550537109375;62,8379378413495;5,5755615234375E-09;0,55010986328125;2;109;5,28750106692314E-07;-6,36255044490099E-07;100 nA
0,50048828125;63,3384258400858;5,340576171875E-09;0,500091552734375;2;110;5,28750106692314E-07;-6,36255044490099E-07;100 nA
0,450439453125;63,8389138388222;5,0048828125E-09;0,4500732421875;2;111;5,28750106692314E-07;-6,36255044490099E-07;100 nA
0,400390625;64,3394018375586;4,6234130859375E-09;0,400146484375;2;112;5,28750106692314E-07;-6,36255044490099E-07;100 nA
0,350341796875;64,839889836295;4,2266845703125E-09;0,350067138671875;2;113;5,28750106692314E-07;-6,36255044490099E-07;100 nA
0,30029296875;65,3403778350314;3,7200927734375E-09;0,300018310546875;2;114;5,28750106692314E-07;-6,36255044490099E-07;100 nA
0,250244140625;65,8408658337678;3,143310546875E-09;0,250091552734375;2;115;5,28750106692314E-07;-6,36255044490099E-07;100 nA
0,2001953125;66,3413538325042;2,3193359375E-09;0,2000732421875;2;116;5,28750106692314E-07;-6,36255044490099E-07;100 nA
0,150146484375;66,8418418312406;1,036376953125E-09;0,15008544921875;2;117;5,28750106692314E-07;-6,36255044490099E-07;100 nA
0,10009765625;67,342329829977;-1,18103027343749E-10;0,10009765625;2;118;5,28750106692314E-07;-6,36255044490099E-07;100 nA
0,050048828125;67,8428178287134;-1,170654296875E-09;0,050140380859375;2;119;5,28750106692314E-07;-6,36255044490099E-07;100 nA
0;68,3433058274497;-3,3416748046875E-09;0,000161743164062506;2;120;5,28750106692314E-07;-6,36255044490099E-07;100 nA
-0,050048828125;68,8437938261861;-1,0198974609375E-08;-0,0496978759765625;2;121;5,28750106692314E-07;-6,36255044490099E-07;100 nA
-0,10009765625;69,3442818249225;-5,9051513671875E-09;-0,099639892578125;2;122;5,28750106692314E-07;-6,36255044490099E-07;100 nA
-0,150146484375;69,8447698236589;-4,791259765625E-09;-0,1495361328125;2;123;5,28750106692314E-07;-6,36255044490099E-07;100 nA
-0,2001953125;70,3452578223953;-4,2816162109375E-09;-0,199371337890625;2;124;5,28750106692314E-07;-6,36255044490099E-07;100 nA
-0,250244140625;70,8457458211317;-4,0008544921875E-09;-0,249298095703125;2;125;5,28750106692314E-07;-6,36255044490099E-07;100 nA
-0,30029296875;71,3462338198681;-3,9459228515625E-09;-0,29925537109375;2;126;5,28750106692314E-07;-6,36255044490099E-07;100 nA
-0,350341796875;71,8467218186045;-4,364013671875E-09;-0,34912109375;2;127;5,28750106692314E-07;-6,36255044490099E-07;100 nA
-0,400390625;72,3472098173409;-5,60302734375E-09;-0,399017333984375;2;128;5,28750106692314E-07;-6,36255044490099E-07;100 nA
-0,450439453125;72,8476978160772;-8,5693359375E-09;-0,448944091796875;2;129;5,28750106692314E-07;-6,36255044490099E-07;100 nA
-0,50048828125;73,3481858148136;-1,6302490234375E-08;-0,498809814453125;2;130;5,28750106692314E-07;-6,36255044490099E-07;100 nA
-0,550537109375;73,84867381355;-3,20556640625E-08;-0,548736572265625;2;131;5,28750106692314E-07;-6,36255044490099E-07;100 nA
-0,6005859375;74,3491618122864;-4,46075439453125E-08;-0,598480224609375;2;132;5,28750106692314E-07;-6,36255044490099E-07;100 nA
-0,650634765625;74,8496498110228;-6,9427490234375E-08;-0,648406982421875;2;133;5,28750106692314E-07;-6,36255044490099E-07;100 nA
-0,70068359375;75,3501378097592;-1,0595703125E-07;-0,698394775390625;2;134;5,28750106692314E-07;-6,36255044490099E-07;100 nA
-0,750732421875;75,8506258084956;-1,2615966796875E-07;-0,74835205078125;2;135;5,28750106692314E-07;-6,36255044490099E-07;100 nA
-0,80078125;76,351113807232;-1,3983154296875E-07;-0,79833984375;2;136;5,28750106692314E-07;-6,36255044490099E-07;100 nA
-0,850830078125;76,8516018059684;-1,4703369140625E-07;-0,848388671875;2;137;5,28750106692314E-07;-6,36255044490099E-07;100 nA
-0,90087890625;77,3520898047047;-1,59393310546875E-07;-0,8990478515625;2;138;5,28750106692314E-07;-6,36255044490099E-07;100 nA
-0,950927734375;77,8525778034411;-1,71844482421875E-07;-0,94879150390625;2;139;5,28750106692314E-07;-6,36255044490099E-07;100 nA
-1,0009765625;78,3530658021775;-1,4886474609375E-07;-0,9991455078125;2;140;5,28750106692314E-07;-6,36255044490099E-07;100 nA
-0,950927734375;78,8535538009139;-2,1575927734375E-08;-0,948486328125;2;141;5,28750106692314E-07;-6,36255044490099E-07;100 nA
-0,90087890625;79,3540417996503;-6,4239501953125E-09;-0,8984375;2;142;5,28750106692314E-07;-6,36255044490099E-07;100 nA
-0,850830078125;79,8545297983867;-5,56640625E-09;-0,84869384765625;2;143;5,28750106692314E-07;-6,36255044490099E-07;100 nA
-0,80078125;80,3550177971231;-1,53839111328125E-08;-0,79833984375;2;144;5,28750106692314E-07;-6,36255044490099E-07;100 nA
-0,750732421875;80,8555057958595;-4,5501708984375E-09;-0,748565673828125;2;145;5,28750106692314E-07;-6,36255044490099E-07;100 nA
-0,70068359375;81,3559937945959;1,2725830078125E-08;-0,698577880859375;2;146;5,28750106692314E-07;-6,36255044490099E-07;100 nA
-0,650634765625;81,8564817933323;3,9239501953125E-08;-0,64862060546875;2;147;5,28750106692314E-07;-6,36255044490099E-07;100 nA
-0,6005859375;82,3569697920686;5,615234375E-08;-0,598663330078125;2;148;5,28750106692314E-07;-6,36255044490099E-07;100 nA
-0,550537109375;82,857457790805;7,3699951171875E-08;-0,54888916015625;2;149;5,28750106692314E-07;-6,36255044490099E-07;100 nA
-0,50048828125;83,3579457895414;7,598876953125E-08;-0,498992919921875;2;150;5,28750106692314E-07;-6,36255044490099E-07;100 nA
-0,450439453125;83,8584337882778;6,402587890625E-08;-0,449066162109375;2;151;5,28750106692314E-07;-6,36255044490099E-07;100 nA
-0,400390625;84,3589217870142;4,9713134765625E-08;-0,399169921875;2;152;5,28750106692314E-07;-6,36255044490099E-07;100 nA
-0,350341796875;84,8594097857506;4,0032958984375E-08;-0,349273681640625;2;153;5,28750106692314E-07;-6,36255044490099E-07;100 nA
-0,30029296875;85,359897784487;3,47198486328125E-08;-0,299285888671875;2;154;5,28750106692314E-07;-6,36255044490099E-07;100 nA
-0,250244140625;85,8603857832234;3,28704833984375E-08;-0,2493896484375;2;155;5,28750106692314E-07;-6,36255044490099E-07;100 nA
-0,2001953125;86,3608737819598;3,02337646484375E-08;-0,199493408203125;2;156;5,28750106692314E-07;-6,36255044490099E-07;100 nA
-0,150146484375;86,8613617806961;2,7703857421875E-08;-0,14959716796875;2;157;5,28750106692314E-07;-6,36255044490099E-07;100 nA
-0,10009765625;87,3618497794325;2,57598876953125E-08;-0,0997314453125;2;158;5,28750106692314E-07;-6,36255044490099E-07;100 nA
-0,050048828125;87,8623377781689;2,45635986328125E-08;-0,0498046875;2;159;5,28750106692314E-07;-6,36255044490099E-07;100 nA
0;88,3628257769053;2,5323486328125E-08;0,000143432617187494;2;160;5,28750106692314E-07;-6,36255044490099E-07;100 nA
0,050048828125;88,8633137756417;2,56927490234375E-08;0,050079345703125;3;161;5,39955802261829E-07;-6,17639318108558E-07;100 nA
0,10009765625;89,3638017743781;2,7459716796875E-08;0,10003662109375;3;162;5,39955802261829E-07;-6,17639318108558E-07;100 nA
0,150146484375;89,8642897731145;2,322998046875E-08;0,1500244140625;3;163;5,39955802261829E-07;-6,17639318108558E-07;100 nA
0,2001953125;90,3647777718509;2,1728515625E-08;0,200042724609375;3;164;5,39955802261829E-07;-6,17639318108558E-07;100 nA
0,250244140625;90,8652657705873;1,971435546875E-08;0,25;3;165;5,39955802261829E-07;-6,17639318108558E-07;100 nA
0,30029296875;91,3657537693236;1,82891845703125E-08;0,300018310546875;3;166;5,39955802261829E-07;-6,17639318108558E-07;100 nA
0,350341796875;91,86624176806;1,72760009765625E-08;0,350067138671875;3;167;5,39955802261829E-07;-6,17639318108558E-07;100 nA
0,400390625;92,3667297667964;1,67144775390625E-08;0,40008544921875;3;168;5,39955802261829E-07;-6,17639318108558E-07;100 nA
0,450439453125;92,8672177655328;1,59149169921875E-08;0,450042724609375;3;169;5,39955802261829E-07;-6,17639318108558E-07;100 nA
0,50048828125;93,3677057642692;1,52618408203125E-08;0,5001220703125;3;170;5,39955802261829E-07;-6,17639318108558E-07;100 nA
0,550537109375;93,8681937630056;1,5057373046875E-08;0,550048828125;3;171;5,39955802261829E-07;-6,17639318108558E-07;100 nA
0,6005859375;94,368681761742;1,48773193359375E-08;0,600067138671875;3;172;5,39955802261829E-07;-6,17639318108558E-07;100 nA
0,650634765625;94,8691697604784;1,4453125E-08;0,64996337890625;3;173;5,39955802261829E-07;-6,17639318108558E-07;100 nA
0,70068359375;95,3696577592148;1,4544677734375E-08;0,69989013671875;3;174;5,39955802261829E-07;-6,17639318108558E-07;100 nA
0,750732421875;95,8701457579512;1,4324951171875E-08;0,749786376953125;3;175;5,39955802261829E-07;-6,17639318108558E-07;100 nA
0,80078125;96,3706337566875;1,43310546875E-08;0,79986572265625;3;176;5,39955802261829E-07;-6,17639318108558E-07;100 nA
0,850830078125;96,8711217554239;1,4227294921875E-08;0,84991455078125;3;177;5,39955802261829E-07;-6,17639318108558E-07;100 nA
0,90087890625;97,3716097541603;1,4990234375E-08;0,899658203125;3;178;5,39955802261829E-07;-6,17639318108558E-07;100 nA
0,950927734375;97,8720977528967;1,63116455078125E-08;0,94970703125;3;179;5,39955802261829E-07;-6,17639318108558E-07;100 nA
1,0009765625;98,3725857516331;1,871337890625E-08;0,99945068359375;3;180;5,39955802261829E-07;-6,17639318108558E-07;100 nA
0,950927734375;98,8730737503695;1,358642578125E-08;0,95001220703125;3;181;5,39955802261829E-07;-6,17639318108558E-07;100 nA
0,90087890625;99,3735617491059;1,10565185546875E-08;0,89996337890625;3;182;5,39955802261829E-07;-6,17639318108558E-07;100 nA
0,850830078125;99,8740497478423;9,3841552734375E-09;0,84991455078125;3;183;5,39955802261829E-07;-6,17639318108558E-07;100 nA
0,80078125;100,374537746579;8,477783203125E-09;0,80047607421875;3;184;5,39955802261829E-07;-6,17639318108558E-07;100 nA
0,750732421875;100,875025745315;7,9498291015625E-09;0,749847412109375;3;185;5,39955802261829E-07;-6,17639318108558E-07;100 nA
0,70068359375;101,375513744051;7,4188232421875E-09;0,699859619140625;3;186;5,39955802261829E-07;-6,17639318108558E-07;100 nA
0,650634765625;101,876001742788;7,04345703125E-09;0,649993896484375;3;187;5,39955802261829E-07;-6,17639318108558E-07;100 nA
0,6005859375;102,376489741524;6,732177734375E-09;0,600128173828125;3;188;5,39955802261829E-07;-6,17639318108558E-07;100 nA
0,550537109375;102,876977740261;6,378173828125E-09;0,550048828125;3;189;5,39955802261829E-07;-6,17639318108558E-07;100 nA
0,50048828125;103,377465738997;5,99365234375E-09;0,500091552734375;3;190;5,39955802261829E-07;-6,17639318108558E-07;100 nA
0,450439453125;103,877953737733;5,7037353515625E-09;0,4500732421875;3;191;5,39955802261829E-07;-6,17639318108558E-07;100 nA
0,400390625;104,37844173647;5,322265625E-09;0,400054931640625;3;192;5,39955802261829E-07;-6,17639318108558E-07;100 nA
0,350341796875;104,878929735206;4,9652099609375E-09;0,35009765625;3;193;5,39955802261829E-07;-6,17639318108558E-07;100 nA
0,30029296875;105,379417733943;4,510498046875E-09;0,30010986328125;3;194;5,39955802261829E-07;-6,17639318108558E-07;100 nA
0,250244140625;105,879905732679;3,9825439453125E-09;0,250091552734375;3;195;5,39955802261829E-07;-6,17639318108558E-07;100 nA
0,2001953125;106,380393731415;3,23486328125E-09;0,200042724609375;3;196;5,39955802261829E-07;-6,17639318108558E-07;100 nA
0,150146484375;106,880881730152;2,001953125E-09;0,150054931640625;3;197;5,39955802261829E-07;-6,17639318108558E-07;100 nA
0,10009765625;107,381369728888;8,85620117187499E-10;0,100128173828125;3;198;5,39955802261829E-07;-6,17639318108558E-07;100 nA
0,050048828125;107,881857727624;-1,22680664062499E-10;0,0501708984375;3;199;5,39955802261829E-07;-6,17639318108558E-07;100 nA
0;108,382345726361;-2,008056640625E-09;0,0001373291015625;3;200;5,39955802261829E-07;-6,17639318108558E-07;100 nA
-0,050048828125;108,882833725097;-8,6761474609375E-09;-0,0498046875;3;201;5,39955802261829E-07;-6,17639318108558E-07;100 nA
-0,10009765625;109,383321723834;-4,8583984375E-09;-0,099639892578125;3;202;5,39955802261829E-07;-6,17639318108558E-07;100 nA
-0,150146484375;109,88380972257;-3,89404296875E-09;-0,1495361328125;3;203;5,39955802261829E-07;-6,17639318108558E-07;100 nA
-0,2001953125;110,384297721306;-3,5400390625E-09;-0,199462890625;3;204;5,39955802261829E-07;-6,17639318108558E-07;100 nA
-0,250244140625;110,884785720043;-3,363037109375E-09;-0,2493896484375;3;205;5,39955802261829E-07;-6,17639318108558E-07;100 nA
-0,30029296875;111,385273718779;-3,35693359375E-09;-0,299224853515625;3;206;5,39955802261829E-07;-6,17639318108558E-07;100 nA
-0,350341796875;111,885761717516;-3,7689208984375E-09;-0,34912109375;3;207;5,39955802261829E-07;-6,17639318108558E-07;100 nA
-0,400390625;112,386249716252;-4,96826171875E-09;-0,399017333984375;3;208;5,39955802261829E-07;-6,17639318108558E-07;100 nA
-0,450439453125;112,886737714988;-7,9193115234375E-09;-0,448944091796875;3;209;5,39955802261829E-07;-6,17639318108558E-07;100 nA
-0,50048828125;113,387225713725;-1,5289306640625E-08;-0,49884033203125;3;210;5,39955802261829E-07;-6,17639318108558E-07;100 nA
-0,550537109375;113,887713712461;-3,0584716796875E-08;-0,5487060546875;3;211;5,39955802261829E-07;-6,17639318108558E-07;100 nA
-0,6005859375;114,388201711198;-4,33990478515625E-08;-0,59857177734375;3;212;5,39955802261829E-07;-6,17639318108558E-07;100 nA
-0,650634765625;114,888689709934;-6,7352294921875E-08;-0,64849853515625;3;213;5,39955802261829E-07;-6,17639318108558E-07;100 nA
-0,70068359375;115,38917770867;-1,06353759765625E-07;-0,698455810546875;3;214;5,39955802261829E-07;-6,17639318108558E-07;100 nA
-0,750732421875;115,889665707407;-1,278076171875E-07;-0,74835205078125;3;215;5,39955802261829E-07;-6,17639318108558E-07;100 nA
-0,80078125;116,390153706143;-1,41021728515625E-07;-0,7989501953125;3;216;5,39955802261829E-07;-6,17639318108558E-07;100 nA
-0,850830078125;116,89064170488;-1,4532470703125E-07;-0,848388671875;3;217;5,39955802261829E-07;-6,17639318108558E-07;100 nA
-0,90087890625;117,391129703616;-1,53900146484375E-07;-0,89874267578125;3;218;5,39955802261829E-07;-6,17639318108558E-07;100 nA
-0,950927734375;117,891617702352;-1,66015625E-07;-0,948486328125;3;219;5,39955802261829E-07;-6,17639318108558E-07;100 nA
-1,0009765625;118,392105701089;-1,41632080078125E-07;-0,99884033203125;3;220;5,39955802261829E-07;-6,17639318108558E-07;100 nA
-0,950927734375;118,892593699825;-2,3370361328125E-08;-0,94879150390625;3;221;5,39955802261829E-07;-6,17639318108558E-07;100 nA
-0,90087890625;119,393081698561;-5,8807373046875E-09;-0,8978271484375;3;222;5,39955802261829E-07;-6,17639318108558E-07;100 nA
-0,850830078125;119,893569697298;-5,1513671875E-09;-0,8489990234375;3;223;5,39955802261829E-07;-6,17639318108558E-07;100 nA
-0,80078125;120,394057696034;-1,1175537109375E-08;-0,79833984375;3;224;5,39955802261829E-07;-6,17639318108558E-07;100 nA
-0,750732421875;120,894545694771;-3,338623046875E-09;-0,74859619140625;3;225;5,39955802261829E-07;-6,17639318108558E-07;100 nA
-0,70068359375;121,395033693507;1,1956787109375E-08;-0,69854736328125;3;226;5,39955802261829E-07;-6,17639318108558E-07;100 nA
-0,650634765625;121,895521692243;3,775634765625E-08;-0,648590087890625;3;227;5,39955802261829E-07;-6,17639318108558E-07;100 nA
-0,6005859375;122,39600969098;5,462646484375E-08;-0,598663330078125;3;228;5,39955802261829E-07;-6,17639318108558E-07;100 nA
-0,550537109375;122,896497689716;7,2265625E-08;-0,54888916015625;3;229;5,39955802261829E-07;-6,17639318108558E-07;100 nA
-0,50048828125;123,396985688453;7,550048828125E-08;-0,49896240234375;3;230;5,39955802261829E-07;-6,17639318108558E-07;100 nA
-0,450439453125;123,897473687189;6,3690185546875E-08;-0,449127197265625;3;231;5,39955802261829E-07;-6,17639318108558E-07;100 nA
-0,400390625;124,397961685925;4,876708984375E-08;-0,399200439453125;3;232;5,39955802261829E-07;-6,17639318108558E-07;100 nA
-0,350341796875;124,898449684662;3,92822265625E-08;-0,34930419921875;3;233;5,39955802261829E-07;-6,17639318108558E-07;100 nA
-0,30029296875;125,398937683398;3,58001708984375E-08;-0,299224853515625;3;234;5,39955802261829E-07;-6,17639318108558E-07;100 nA
-0,250244140625;125,899425682135;3,28582763671875E-08;-0,249420166015625;3;235;5,39955802261829E-07;-6,17639318108558E-07;100 nA
-0,2001953125;126,399913680871;3,096923828125E-08;-0,199462890625;3;236;5,39955802261829E-07;-6,17639318108558E-07;100 nA
-0,150146484375;126,900401679607;2,9071044921875E-08;-0,149627685546875;3;237;5,39955802261829E-07;-6,17639318108558E-07;100 nA
-0,10009765625;127,400889678344;2,674560546875E-08;-0,09967041015625;3;238;5,39955802261829E-07;-6,17639318108558E-07;100 nA
-0,050048828125;127,90137767708;2,6043701171875E-08;-0,049835205078125;3;239;5,39955802261829E-07;-6,17639318108558E-07;100 nA
0;128,401865675816;2,57843017578125E-08;0,000128173828124994;3;240;5,39955802261829E-07;-6,17639318108558E-07;100 nA
0,050048828125;128,902353674553;2,60498046875E-08;0,050018310546875;4;241;5,38557954132557E-07;-5,87570615112781E-07;100 nA
0,10009765625;129,402841673289;2,645263671875E-08;0,10003662109375;4;242;5,38557954132557E-07;-5,87570615112781E-07;100 nA
0,150146484375;129,903329672026;2,28424072265625E-08;0,1500244140625;4;243;5,38557954132557E-07;-5,87570615112781E-07;100 nA
0,2001953125;130,403817670762;2,09228515625E-08;0,200042724609375;4;244;5,38557954132557E-07;-5,87570615112781E-07;100 nA
0,250244140625;130,904305669498;1,9464111328125E-08;0,250030517578125;4;245;5,38557954132557E-07;-5,87570615112781E-07;100 nA
0,30029296875;131,404793668235;1,796875E-08;0,300079345703125;4;246;5,38557954132557E-07;-5,87570615112781E-07;100 nA
0,350341796875;131,905281666971;1,7169189453125E-08;0,350128173828125;4;247;5,38557954132557E-07;-5,87570615112781E-07;100 nA
0,400390625;132,405769665708;1,6717529296875E-08;0,400115966796875;4;248;5,38557954132557E-07;-5,87570615112781E-07;100 nA
0,450439453125;132,906257664444;1,6021728515625E-08;0,450042724609375;4;249;5,38557954132557E-07;-5,87570615112781E-07;100 nA
0,50048828125;133,40674566318;1,5985107421875E-08;0,500091552734375;4;250;5,38557954132557E-07;-5,87570615112781E-07;100 nA
0,550537109375;133,907233661917;1,5325927734375E-08;0,550048828125;4;251;5,38557954132557E-07;-5,87570615112781E-07;100 nA
0,6005859375;134,407721660653;1,505126953125E-08;0,600128173828125;4;252;5,38557954132557E-07;-5,87570615112781E-07;100 nA
0,650634765625;134,90820965939;1,51458740234375E-08;0,649993896484375;4;253;5,38557954132557E-07;-5,87570615112781E-07;100 nA
0,70068359375;135,408697658126;1,51702880859375E-08;0,69989013671875;4;254;5,38557954132557E-07;-5,87570615112781E-07;100 nA
0,750732421875;135,909185656862;1,5106201171875E-08;0,749786376953125;4;255;5,38557954132557E-07;-5,87570615112781E-07;100 nA
0,80078125;136,409673655599;1,47308349609375E-08;0,799560546875;4;256;5,38557954132557E-07;-5,87570615112781E-07;100 nA
0,850830078125;136,910161654335;1,5350341796875E-08;0,84991455078125;4;257;5,38557954132557E-07;-5,87570615112781E-07;100 nA
0,90087890625;137,410649653071;1,74285888671875E-08;0,899658203125;4;258;5,38557954132557E-07;-5,87570615112781E-07;100 nA
0,950927734375;137,911137651808;1,7950439453125E-08;0,94970703125;4;259;5,38557954132557E-07;-5,87570615112781E-07;100 nA
1,0009765625;138,411625650544;2,0184326171875E-08;1,00006103515625;4;260;5,38557954132557E-07;-5,87570615112781E-07;100 nA
0,950927734375;138,912113649281;1,53228759765625E-08;0,95001220703125;4;261;5,38557954132557E-07;-5,87570615112781E-07;100 nA
0,90087890625;139,412601648017;1,17095947265625E-08;0,89996337890625;4;262;5,38557954132557E-07;-5,87570615112781E-07;100 nA
0,850830078125;139,913089646753;1,01226806640625E-08;0,84991455078125;4;263;5,38557954132557E-07;-5,87570615112781E-07;100 nA
0,80078125;140,41357764549;9,2742919921875E-09;0,79986572265625;4;264;5,38557954132557E-07;-5,87570615112781E-07;100 nA
0,750732421875;140,914065644226;8,544921875E-09;0,749786376953125;4;265;5,38557954132557E-07;-5,87570615112781E-07;100 nA
0,70068359375;141,414553642963;8,1268310546875E-09;0,69989013671875;4;266;5,38557954132557E-07;-5,87570615112781E-07;100 nA
0,650634765625;141,915041641699;7,6904296875E-09;0,6500244140625;4;267;5,38557954132557E-07;-5,87570615112781E-07;100 nA
0,6005859375;142,415529640435;7,18994140625E-09;0,600067138671875;4;268;5,38557954132557E-07;-5,87570615112781E-07;100 nA
0,550537109375;142,916017639172;6,79931640625E-09;0,55010986328125;4;269;5,38557954132557E-07;-5,87570615112781E-07;100 nA
0,50048828125;143,416505637908;6,610107421875E-09;0,50006103515625;4;270;5,38557954132557E-07;-5,87570615112781E-07;100 nA
0,450439453125;143,916993636645;6,26220703125E-09;0,4500732421875;4;271;5,38557954132557E-07;-5,87570615112781E-07;100 nA
0,400390625;144,417481635381;5,8807373046875E-09;0,400054931640625;4;272;5,38557954132557E-07;-5,87570615112781E-07;100 nA
0,350341796875;144,917969634117;5,511474609375E-09;0,35009765625;4;273;5,38557954132557E-07;-5,87570615112781E-07;100 nA
0,30029296875;145,418457632854;5,029296875E-09;0,300048828125;4;274;5,38557954132557E-07;-5,87570615112781E-07;100 nA
0,250244140625;145,91894563159;4,5501708984375E-09;0,25006103515625;4;275;5,38557954132557E-07;-5,87570615112781E-07;100 nA
0,2001953125;146,419433630326;3,851318359375E-09;0,20001220703125;4;276;5,38557954132557E-07;-5,87570615112781E-07;100 nA
0,150146484375;146,919921629063;2,7313232421875E-09;0,150054931640625;4;277;5,38557954132557E-07;-5,87570615112781E-07;100 nA
0,10009765625;147,420409627799;1,5716552734375E-09;0,10009765625;4;278;5,38557954132557E-07;-5,87570615112781E-07;100 nA
0,050048828125;147,920897626536;6,561279296875E-10;0,050048828125;4;279;5,38557954132557E-07;-5,87570615112781E-07;100 nA
0;148,421385625272;-1,1065673828125E-09;0,00018310546875;4;280;5,38557954132557E-07;-5,87570615112781E-07;100 nA
-0,050048828125;148,921873624008;-7,2723388671875E-09;-0,04974365234375;4;281;5,38557954132557E-07;-5,87570615112781E-07;100 nA
-0,10009765625;149,422361622745;-4,0130615234375E-09;-0,099639892578125;4;282;5,38557954132557E-07;-5,87570615112781E-07;100 nA
-0,150146484375;149,922849621481;-3,21044921875E-09;-0,1495361328125;4;283;5,38557954132557E-07;-5,87570615112781E-07;100 nA
-0,2001953125;150,423337620218;-2,923583984375E-09;-0,199462890625;4;284;5,38557954132557E-07;-5,87570615112781E-07;100 nA
-0,250244140625;150,923825618954;-2,825927734375E-09;-0,249359130859375;4;285;5,38557954132557E-07;-5,87570615112781E-07;100 nA
-0,30029296875;151,42431361769;-2,886962890625E-09;-0,29925537109375;4;286;5,38557954132557E-07;-5,87570615112781E-07;100 nA
-0,350341796875;151,924801616427;-3,338623046875E-09;-0,349151611328125;4;287;5,38557954132557E-07;-5,87570615112781E-07;100 nA
-0,400390625;152,425289615163;-4,5623779296875E-09;-0,3990478515625;4;288;5,38557954132557E-07;-5,87570615112781E-07;100 nA
-0,450439453125;152,9257776139;-7,470703125E-09;-0,448944091796875;4;289;5,38557954132557E-07;-5,87570615112781E-07;100 nA
-0,50048828125;153,426265612636;-1,4630126953125E-08;-0,498779296875;4;290;5,38557954132557E-07;-5,87570615112781E-07;100 nA
-0,550537109375;153,926753611372;-2,982177734375E-08;-0,548675537109375;4;291;5,38557954132557E-07;-5,87570615112781E-07;100 nA
-0,6005859375;154,427241610109;-4,32281494140625E-08;-0,598602294921875;4;292;5,38557954132557E-07;-5,87570615112781E-07;100 nA
-0,650634765625;154,927729608845;-6,73828125E-08;-0,64849853515625;4;293;5,38557954132557E-07;-5,87570615112781E-07;100 nA
-0,70068359375;155,428217607581;-1,0247802734375E-07;-0,698394775390625;4;294;5,38557954132557E-07;-5,87570615112781E-07;100 nA
-0,750732421875;155,928705606318;-1,239013671875E-07;-0,7484130859375;4;295;5,38557954132557E-07;-5,87570615112781E-07;100 nA
-0,80078125;156,429193605054;-1,33697509765625E-07;-0,79833984375;4;296;5,38557954132557E-07;-5,87570615112781E-07;100 nA
-0,850830078125;156,929681603791;-1,37664794921875E-07;-0,84869384765625;4;297;5,38557954132557E-07;-5,87570615112781E-07;100 nA
-0,90087890625;157,430169602527;-1,4739990234375E-07;-0,8990478515625;4;298;5,38557954132557E-07;-5,87570615112781E-07;100 nA
-0,950927734375;157,930657601263;-1,59271240234375E-07;-0,9490966796875;4;299;5,38557954132557E-07;-5,87570615112781E-07;100 nA
-1,0009765625;158,4311456;-1,33087158203125E-07;-0,99853515625;4;300;5,38557954132557E-07;-5,87570615112781E-07;100 nA
-0,950927734375;158,931633598736;-1,6705322265625E-08;-0,9490966796875;4;301;5,38557954132557E-07;-5,87570615112781E-07;100 nA
-0,90087890625;159,432121597473;-5,462646484375E-09;-0,8984375;4;302;5,38557954132557E-07;-5,87570615112781E-07;100 nA
-0,850830078125;159,932609596209;-4,4097900390625E-09;-0,84869384765625;4;303;5,38557954132557E-07;-5,87570615112781E-07;100 nA
-0,80078125;160,433097594945;-1,1627197265625E-08;-0,79833984375;4;304;5,38557954132557E-07;-5,87570615112781E-07;100 nA
-0,750732421875;160,933585593682;-3,6163330078125E-09;-0,748565673828125;4;305;5,38557954132557E-07;-5,87570615112781E-07;100 nA
-0,70068359375;161,434073592418;1,11297607421875E-08;-0,6986083984375;4;306;5,38557954132557E-07;-5,87570615112781E-07;100 nA
-0,650634765625;161,934561591155;3,41094970703125E-08;-0,64862060546875;4;307;5,38557954132557E-07;-5,87570615112781E-07;100 nA
-0,6005859375;162,435049589891;5,0384521484375E-08;-0,598724365234375;4;308;5,38557954132557E-07;-5,87570615112781E-07;100 nA
-0,550537109375;162,935537588627;6,8817138671875E-08;-0,548858642578125;4;309;5,38557954132557E-07;-5,87570615112781E-07;100 nA
-0,50048828125;163,436025587364;7,330322265625E-08;-0,498992919921875;4;310;5,38557954132557E-07;-5,87570615112781E-07;100 nA
-0,450439453125;163,9365135861;6,256103515625E-08;-0,44903564453125;4;311;5,38557954132557E-07;-5,87570615112781E-07;100 nA
-0,400390625;164,437001584836;4,791259765625E-08;-0,399139404296875;4;312;5,38557954132557E-07;-5,87570615112781E-07;100 nA
-0,350341796875;164,937489583573;3,86566162109375E-08;-0,349334716796875;4;313;5,38557954132557E-07;-5,87570615112781E-07;100 nA
-0,30029296875;165,437977582309;3,37982177734375E-08;-0,29931640625;4;314;5,38557954132557E-07;-5,87570615112781E-07;100 nA
-0,250244140625;165,938465581046;3,15948486328125E-08;-0,2493896484375;4;315;5,38557954132557E-07;-5,87570615112781E-07;100 nA
-0,2001953125;166,438953579782;3,00628662109375E-08;-0,19952392578125;4;316;5,38557954132557E-07;-5,87570615112781E-07;100 nA
-0,150146484375;166,939441578518;2,71209716796875E-08;-0,14959716796875;4;317;5,38557954132557E-07;-5,87570615112781E-07;100 nA
-0,10009765625;167,439929577255;2,664794921875E-08;-0,0997314453125;4;318;5,38557954132557E-07;-5,87570615112781E-07;100 nA
-0,050048828125;167,940417575991;2,57904052734375E-08;-0,0498046875;4;319;5,38557954132557E-07;-5,87570615112781E-07;100 nA
0;168,440905574728;2,5701904296875E-08;0,000128173828124994;4;320;5,38557954132557E-07;-5,87570615112781E-07;100 nA
0,050048828125;168,941393573464;2,54425048828125E-08;0,050048828125;5;321;5,36492187529802E-07;-5,75026027858257E-07;100 nA
0,10009765625;169,4418815722;2,545166015625E-08;0,10003662109375;5;322;5,36492187529802E-07;-5,75026027858257E-07;100 nA
0,150146484375;169,942369570937;2,269287109375E-08;0,1500244140625;5;323;5,36492187529802E-07;-5,75026027858257E-07;100 nA
0,2001953125;170,442857569673;2,10174560546875E-08;0,2000732421875;5;324;5,36492187529802E-07;-5,75026027858257E-07;100 nA
0,250244140625;170,94334556841;1,9195556640625E-08;0,25006103515625;5;325;5,36492187529802E-07;-5,75026027858257E-07;100 nA
0,30029296875;171,443833567146;1,76727294921875E-08;0,300048828125;5;326;5,36492187529802E-07;-5,75026027858257E-07;100 nA
0,350341796875;171,944321565882;1,70440673828125E-08;0,35009765625;5;327;5,36492187529802E-07;-5,75026027858257E-07;100 nA
0,400390625;172,444809564619;1,654052734375E-08;0,4000244140625;5;328;5,36492187529802E-07;-5,75026027858257E-07;100 nA
0,450439453125;172,945297563355;1,585693359375E-08;0,45001220703125;5;329;5,36492187529802E-07;-5,75026027858257E-07;100 nA
0,50048828125;173,445785562091;1,58538818359375E-08;0,50006103515625;5;330;5,36492187529802E-07;-5,75026027858257E-07;100 nA
0,550537109375;173,946273560828;1,556396484375E-08;0,550048828125;5;331;5,36492187529802E-07;-5,75026027858257E-07;100 nA
0,6005859375;174,446761559564;1,56494140625E-08;0,600067138671875;5;332;5,36492187529802E-07;-5,75026027858257E-07;100 nA
0,650634765625;174,947249558301;1,55853271484375E-08;0,6500244140625;5;333;5,36492187529802E-07;-5,75026027858257E-07;100 nA
0,70068359375;175,447737557037;1,5679931640625E-08;0,699981689453125;5;334;5,36492187529802E-07;-5,75026027858257E-07;100 nA
0,750732421875;175,948225555773;1,53350830078125E-08;0,749786376953125;5;335;5,36492187529802E-07;-5,75026027858257E-07;100 nA
0,80078125;176,44871355451;1,539306640625E-08;0,79986572265625;5;336;5,36492187529802E-07;-5,75026027858257E-07;100 nA
0,850830078125;176,949201553246;1,57196044921875E-08;0,849609375;5;337;5,36492187529802E-07;-5,75026027858257E-07;100 nA
0,90087890625;177,449689551983;1,6412353515625E-08;0,8990478515625;5;338;5,36492187529802E-07;-5,75026027858257E-07;100 nA
0,950927734375;177,950177550719;1,89849853515625E-08;0,94970703125;5;339;5,36492187529802E-07;-5,75026027858257E-07;100 nA
1,0009765625;178,450665549455;2,0452880859375E-08;0,99945068359375;5;340;5,36492187529802E-07;-5,75026027858257E-07;100 nA
0,950927734375;178,951153548192;1,4910888671875E-08;0,94970703125;5;341;5,36492187529802E-07;-5,75026027858257E-07;100 nA
0,90087890625;179,451641546928;1,26373291015625E-08;0,899658203125;5;342;5,36492187529802E-07;-5,75026027858257E-07;100 nA
0,850830078125;179,952129545665;1,0650634765625E-08;0,8502197265625;5;343;5,36492187529802E-07;-5,75026027858257E-07;100 nA
0,80078125;180,452617544401;9,466552734375E-09;0,79986572265625;5;344;5,36492187529802E-07;-5,75026027858257E-07;100 nA
0,750732421875;180,953105543137;8,6212158203125E-09;0,749847412109375;5;345;5,36492187529802E-07;-5,75026027858257E-07;100 nA
0,70068359375;181,453593541874;8,203125E-09;0,6998291015625;5;346;5,36492187529802E-07;-5,75026027858257E-07;100 nA
0,650634765625;181,95408154061;7,8460693359375E-09;0,6500244140625;5;347;5,36492187529802E-07;-5,75026027858257E-07;100 nA
0,6005859375;182,454569539346;7,4127197265625E-09;0,600128173828125;5;348;5,36492187529802E-07;-5,75026027858257E-07;100 nA
0,550537109375;182,955057538083;6,927490234375E-09;0,550079345703125;5;349;5,36492187529802E-07;-5,75026027858257E-07;100 nA
0,50048828125;183,455545536819;6,6558837890625E-09;0,50006103515625;5;350;5,36492187529802E-07;-5,75026027858257E-07;100 nA
0,450439453125;183,956033535556;6,31103515625E-09;0,4500732421875;5;351;5,36492187529802E-07;-5,75026027858257E-07;100 nA
0,400390625;184,456521534292;6,0028076171875E-09;0,40008544921875;5;352;5,36492187529802E-07;-5,75026027858257E-07;100 nA
0,350341796875;184,957009533028;5,6121826171875E-09;0,35009765625;5;353;5,36492187529802E-07;-5,75026027858257E-07;100 nA
0,30029296875;185,457497531765;5,194091796875E-09;0,300079345703125;5;354;5,36492187529802E-07;-5,75026027858257E-07;100 nA
0,250244140625;185,957985530501;4,6844482421875E-09;0,250091552734375;5;355;5,36492187529802E-07;-5,75026027858257E-07;100 nA
0,2001953125;186,458473529238;4,052734375E-09;0,20001220703125;5;356;5,36492187529802E-07;-5,75026027858257E-07;100 nA
0,150146484375;186,958961527974;3,0609130859375E-09;0,150054931640625;5;357;5,36492187529802E-07;-5,75026027858257E-07;100 nA
0,10009765625;187,45944952671;1,9683837890625E-09;0,10009765625;5;358;5,36492187529802E-07;-5,75026027858257E-07;100 nA
0,050048828125;187,959937525447;1,13983154296875E-09;0,050079345703125;5;359;5,36492187529802E-07;-5,75026027858257E-07;100 nA
0;188,460425524183;-5,38330078125E-10;0,000143432617187494;5;360;5,36492187529802E-07;-5,75026027858257E-07;100 nA
-0,050048828125;188,96091352292;-6,4361572265625E-09;-0,049774169921875;5;361;5,36492187529802E-07;-5,75026027858257E-07;100 nA
-0,10009765625;189,461401521656;-3,2073974609375E-09;-0,09967041015625;5;362;5,36492187529802E-07;-5,75026027858257E-07;100 nA
-0,150146484375;189,961889520392;-2,703857421875E-09;-0,149566650390625;5;363;5,36492187529802E-07;-5,75026027858257E-07;100 nA
-0,2001953125;190,462377519129;-2,5390625E-09;-0,19940185546875;5;364;5,36492187529802E-07;-5,75026027858257E-07;100 nA
-0,250244140625;190,962865517865;-2,4810791015625E-09;-0,2493896484375;5;365;5,36492187529802E-07;-5,75026027858257E-07;100 nA
-0,30029296875;191,463353516602;-2,5390625E-09;-0,299224853515625;5;366;5,36492187529802E-07;-5,75026027858257E-07;100 nA
-0,350341796875;191,963841515338;-3,033447265625E-09;-0,349151611328125;5;367;5,36492187529802E-07;-5,75026027858257E-07;100 nA
-0,400390625;192,464329514074;-4,3182373046875E-09;-0,399017333984375;5;368;5,36492187529802E-07;-5,75026027858257E-07;100 nA
-0,450439453125;192,964817512811;-7,1533203125E-09;-0,448944091796875;5;369;5,36492187529802E-07;-5,75026027858257E-07;100 nA
-0,50048828125;193,465305511547;-1,407470703125E-08;-0,498809814453125;5;370;5,36492187529802E-07;-5,75026027858257E-07;100 nA
-0,550537109375;193,965793510283;-2,8997802734375E-08;-0,548736572265625;5;371;5,36492187529802E-07;-5,75026027858257E-07;100 nA
-0,6005859375;194,46628150902;-4,23583984375E-08;-0,598602294921875;5;372;5,36492187529802E-07;-5,75026027858257E-07;100 nA
-0,650634765625;194,966769507756;-6,7352294921875E-08;-0,6484375;5;373;5,36492187529802E-07;-5,75026027858257E-07;100 nA
-0,70068359375;195,467257506493;-1,0638427734375E-07;-0,698394775390625;5;374;5,36492187529802E-07;-5,75026027858257E-07;100 nA
-0,750732421875;195,967745505229;-1,25396728515625E-07;-0,748382568359375;5;375;5,36492187529802E-07;-5,75026027858257E-07;100 nA
-0,80078125;196,468233503965;-1,31683349609375E-07;-0,79864501953125;5;376;5,36492187529802E-07;-5,75026027858257E-07;100 nA
-0,850830078125;196,968721502702;-1,331787109375E-07;-0,84808349609375;5;377;5,36492187529802E-07;-5,75026027858257E-07;100 nA
-0,90087890625;197,469209501438;-1,4068603515625E-07;-0,89874267578125;5;378;5,36492187529802E-07;-5,75026027858257E-07;100 nA
-0,950927734375;197,969697500175;-1,52008056640625E-07;-0,94879150390625;5;379;5,36492187529802E-07;-5,75026027858257E-07;100 nA
-1,0009765625;198,470185498911;-1,27105712890625E-07;-0,99884033203125;5;380;5,36492187529802E-07;-5,75026027858257E-07;100 nA
-0,950927734375;198,970673497647;-1,9580078125E-08;-0,9490966796875;5;381;5,36492187529802E-07;-5,75026027858257E-07;100 nA
-0,90087890625;199,471161496384;-5,8685302734375E-09;-0,8984375;5;382;5,36492187529802E-07;-5,75026027858257E-07;100 nA
-0,850830078125;199,97164949512;-5,0140380859375E-09;-0,84869384765625;5;383;5,36492187529802E-07;-5,75026027858257E-07;100 nA
-0,80078125;200,472137493857;-1,10992431640625E-08;-0,79864501953125;5;384;5,36492187529802E-07;-5,75026027858257E-07;100 nA
-0,750732421875;200,972625492593;-3,192138671875E-09;-0,748565673828125;5;385;5,36492187529802E-07;-5,75026027858257E-07;100 nA
-0,70068359375;201,473113491329;1,00860595703125E-08;-0,69854736328125;5;386;5,36492187529802E-07;-5,75026027858257E-07;100 nA
-0,650634765625;201,973601490066;3,1689453125E-08;-0,6485595703125;5;387;5,36492187529802E-07;-5,75026027858257E-07;100 nA
-0,6005859375;202,474089488802;4,791259765625E-08;-0,5987548828125;5;388;5,36492187529802E-07;-5,75026027858257E-07;100 nA
-0,550537109375;202,974577487538;6,646728515625E-08;-0,548828125;5;389;5,36492187529802E-07;-5,75026027858257E-07;100 nA
-0,50048828125;203,475065486275;7,208251953125E-08;-0,4990234375;5;390;5,36492187529802E-07;-5,75026027858257E-07;100 nA
-0,450439453125;203,975553485011;6,182861328125E-08;-0,449127197265625;5;391;5,36492187529802E-07;-5,75026027858257E-07;100 nA
-0,400390625;204,476041483748;4,754638671875E-08;-0,399200439453125;5;392;5,36492187529802E-07;-5,75026027858257E-07;100 nA
-0,350341796875;204,976529482484;3,95477294921875E-08;-0,3492431640625;5;393;5,36492187529802E-07;-5,75026027858257E-07;100 nA
-0,30029296875;205,47701748122;3,4588623046875E-08;-0,299285888671875;5;394;5,36492187529802E-07;-5,75026027858257E-07;100 nA
-0,250244140625;205,977505479957;3,265380859375E-08;-0,249420166015625;5;395;5,36492187529802E-07;-5,75026027858257E-07;100 nA
-0,2001953125;206,477993478693;3,00201416015625E-08;-0,199462890625;5;396;5,36492187529802E-07;-5,75026027858257E-07;100 nA
-0,150146484375;206,97848147743;2,77069091796875E-08;-0,149627685546875;5;397;5,36492187529802E-07;-5,75026027858257E-07;100 nA
-0,10009765625;207,478969476166;2,61566162109375E-08;-0,0997314453125;5;398;5,36492187529802E-07;-5,75026027858257E-07;100 nA
-0,050048828125;207,979457474902;2,5604248046875E-08;-0,049835205078125;5;399;5,36492187529802E-07;-5,75026027858257E-07;100 nA
0;208,479945473639;2,51434326171875E-08;0,000146484375000006;5;400;5,36492187529802E-07;-5,75026027858257E-07;100 nA
0,050048828125;208,980433472375;2,4591064453125E-08;0,05010986328125;6;401;5,39504159241915E-07;-5,70883803069591E-07;100 nA
0,10009765625;209,480921471112;2,4237060546875E-08;0,100067138671875;6;402;5,39504159241915E-07;-5,70883803069591E-07;100 nA
0,150146484375;209,981409469848;2,1795654296875E-08;0,1500244140625;6;403;5,39504159241915E-07;-5,70883803069591E-07;100 nA
0,2001953125;210,481897468584;2,02789306640625E-08;0,2000732421875;6;404;5,39504159241915E-07;-5,70883803069591E-07;100 nA
0,250244140625;210,982385467321;1,956787109375E-08;0,250030517578125;6;405;5,39504159241915E-07;-5,70883803069591E-07;100 nA
0,30029296875;211,482873466057;1,8212890625E-08;0,29998779296875;6;406;5,39504159241915E-07;-5,70883803069591E-07;100 nA
0,350341796875;211,983361464793;1,75140380859375E-08;0,350067138671875;6;407;5,39504159241915E-07;-5,70883803069591E-07;100 nA
0,400390625;212,48384946353;1,705322265625E-08;0,400054931640625;6;408;5,39504159241915E-07;-5,70883803069591E-07;100 nA
0,450439453125;212,984337462266;1,6595458984375E-08;0,450042724609375;6;409;5,39504159241915E-07;-5,70883803069591E-07;100 nA
0,50048828125;213,484825461003;1,624755859375E-08;0,500030517578125;6;410;5,39504159241915E-07;-5,70883803069591E-07;100 nA
0,550537109375;213,985313459739;1,62139892578125E-08;0,550048828125;6;411;5,39504159241915E-07;-5,70883803069591E-07;100 nA
0,6005859375;214,485801458475;1,58935546875E-08;0,60003662109375;6;412;5,39504159241915E-07;-5,70883803069591E-07;100 nA
0,650634765625;214,986289457212;1,57867431640625E-08;0,649993896484375;6;413;5,39504159241915E-07;-5,70883803069591E-07;100 nA
0,70068359375;215,486777455948;1,585693359375E-08;0,699920654296875;6;414;5,39504159241915E-07;-5,70883803069591E-07;100 nA
0,750732421875;215,987265454685;1,563720703125E-08;0,74981689453125;6;415;5,39504159241915E-07;-5,70883803069591E-07;100 nA
0,80078125;216,487753453421;1,53411865234375E-08;0,799560546875;6;416;5,39504159241915E-07;-5,70883803069591E-07;100 nA
0,850830078125;216,988241452157;1,558837890625E-08;0,84991455078125;6;417;5,39504159241915E-07;-5,70883803069591E-07;100 nA
0,90087890625;217,488729450894;1,68792724609375E-08;0,89996337890625;6;418;5,39504159241915E-07;-5,70883803069591E-07;100 nA
0,950927734375;217,98921744963;1,944580078125E-08;0,94970703125;6;419;5,39504159241915E-07;-5,70883803069591E-07;100 nA
1,0009765625;218,489705448367;2,17437744140625E-08;1,00006103515625;6;420;5,39504159241915E-07;-5,70883803069591E-07;100 nA
0,950927734375;218,990193447103;1,5478515625E-08;0,94940185546875;6;421;5,39504159241915E-07;-5,70883803069591E-07;100 nA
0,90087890625;219,490681445839;1,22406005859375E-08;0,89996337890625;6;422;5,39504159241915E-07;-5,70883803069591E-07;100 nA
0,850830078125;219,991169444576;1,0552978515625E-08;0,84991455078125;6;423;5,39504159241915E-07;-5,70883803069591E-07;100 nA
0,80078125;220,491657443312;9,4635009765625E-09;0,79925537109375;6;424;5,39504159241915E-07;-5,70883803069591E-07;100 nA
0,750732421875;220,992145442048;8,8165283203125E-09;0,74981689453125;6;425;5,39504159241915E-07;-5,70883803069591E-07;100 nA
0,70068359375;221,492633440785;8,221435546875E-09;0,699920654296875;6;426;5,39504159241915E-07;-5,70883803069591E-07;100 nA
0,650634765625;221,993121439521;8,0535888671875E-09;0,650054931640625;6;427;5,39504159241915E-07;-5,70883803069591E-07;100 nA
0,6005859375;222,493609438258;7,5347900390625E-09;0,600128173828125;6;428;5,39504159241915E-07;-5,70883803069591E-07;100 nA
0,550537109375;222,994097436994;7,2723388671875E-09;0,550079345703125;6;429;5,39504159241915E-07;-5,70883803069591E-07;100 nA
0,50048828125;223,49458543573;6,92138671875E-09;0,5001220703125;6;430;5,39504159241915E-07;-5,70883803069591E-07;100 nA
0,450439453125;223,995073434467;6,5887451171875E-09;0,450042724609375;6;431;5,39504159241915E-07;-5,70883803069591E-07;100 nA
0,400390625;224,495561433203;6,2164306640625E-09;0,40008544921875;6;432;5,39504159241915E-07;-5,70883803069591E-07;100 nA
0,350341796875;224,99604943194;5,8563232421875E-09;0,350128173828125;6;433;5,39504159241915E-07;-5,70883803069591E-07;100 nA
0,30029296875;225,496537430676;5,4046630859375E-09;0,300018310546875;6;434;5,39504159241915E-07;-5,70883803069591E-07;100 nA
0,250244140625;225,997025429412;4,9346923828125E-09;0,250091552734375;6;435;5,39504159241915E-07;-5,70883803069591E-07;100 nA
0,2001953125;226,497513428149;4,3365478515625E-09;0,200042724609375;6;436;5,39504159241915E-07;-5,70883803069591E-07;100 nA
0,150146484375;226,998001426885;3,2745361328125E-09;0,150054931640625;6;437;5,39504159241915E-07;-5,70883803069591E-07;100 nA
0,10009765625;227,498489425622;2,2003173828125E-09;0,10003662109375;6;438;5,39504159241915E-07;-5,70883803069591E-07;100 nA
0,050048828125;227,998977424358;1,42974853515625E-09;0,05010986328125;6;439;5,39504159241915E-07;-5,70883803069591E-07;100 nA
0;228,499465423094;-1,141357421875E-10;0,000134277343750003;6;440;5,39504159241915E-07;-5,70883803069591E-07;100 nA
-0,050048828125;228,999953421831;-5,859375E-09;-0,0498046875;6;441;5,39504159241915E-07;-5,70883803069591E-07;100 nA
-0,10009765625;229,500441420567;-2,508544921875E-09;-0,09967041015625;6;442;5,39504159241915E-07;-5,70883803069591E-07;100 nA
-0,150146484375;230,000929419303;-2,203369140625E-09;-0,149505615234375;6;443;5,39504159241915E-07;-5,70883803069591E-07;100 nA
-0,2001953125;230,50141741804;-2,1484375E-09;-0,199432373046875;6;444;5,39504159241915E-07;-5,70883803069591E-07;100 nA
-0,250244140625;231,001905416776;-2,1514892578125E-09;-0,2493896484375;6;445;5,39504159241915E-07;-5,70883803069591E-07;100 nA
-0,30029296875;231,502393415513;-2,3101806640625E-09;-0,29925537109375;6;446;5,39504159241915E-07;-5,70883803069591E-07;100 nA
-0,350341796875;232,002881414249;-2,8106689453125E-09;-0,34918212890625;6;447;5,39504159241915E-07;-5,70883803069591E-07;100 nA
-0,400390625;232,503369412985;-4,1168212890625E-09;-0,3990478515625;6;448;5,39504159241915E-07;-5,70883803069591E-07;100 nA
-0,450439453125;233,003857411722;-6,94580078125E-09;-0,448974609375;6;449;5,39504159241915E-07;-5,70883803069591E-07;100 nA
-0,50048828125;233,504345410458;-1,3677978515625E-08;-0,498809814453125;6;450;5,39504159241915E-07;-5,70883803069591E-07;100 nA
-0,550537109375;234,004833409195;-2,81890869140625E-08;-0,548675537109375;6;451;5,39504159241915E-07;-5,70883803069591E-07;100 nA
-0,6005859375;234,505321407931;-4,1876220703125E-08;-0,598541259765625;6;452;5,39504159241915E-07;-5,70883803069591E-07;100 nA
-0,650634765625;235,005809406667;-6,8511962890625E-08;-0,6484375;6;453;5,39504159241915E-07;-5,70883803069591E-07;100 nA
-0,70068359375;235,506297405404;-1,0791015625E-07;-0,698394775390625;6;454;5,39504159241915E-07;-5,70883803069591E-07;100 nA
-0,750732421875;236,00678540414;-1,29486083984375E-07;-0,748321533203125;6;455;5,39504159241915E-07;-5,70883803069591E-07;100 nA
-0,80078125;236,507273402877;-1,37939453125E-07;-0,79833984375;6;456;5,39504159241915E-07;-5,70883803069591E-07;100 nA
-0,850830078125;237,007761401613;-1,35986328125E-07;-0,848388671875;6;457;5,39504159241915E-07;-5,70883803069591E-07;100 nA
-0,90087890625;237,508249400349;-1,36016845703125E-07;-0,8984375;6;458;5,39504159241915E-07;-5,70883803069591E-07;100 nA
-0,950927734375;238,008737399086;-1,4605712890625E-07;-0,948486328125;6;459;5,39504159241915E-07;-5,70883803069591E-07;100 nA
-1,0009765625;238,509225397822;-1,24237060546875E-07;-0,99853515625;6;460;5,39504159241915E-07;-5,70883803069591E-07;100 nA
-0,950927734375;239,009713396558;-2,0050048828125E-08;-0,9490966796875;6;461;5,39504159241915E-07;-5,70883803069591E-07;100 nA
-0,90087890625;239,510201395295;-4,7027587890625E-09;-0,8984375;6;462;5,39504159241915E-07;-5,70883803069591E-07;100 nA
-0,850830078125;240,010689394031;-3,5919189453125E-09;-0,84869384765625;6;463;5,39504159241915E-07;-5,70883803069591E-07;100 nA
-0,80078125;240,511177392768;-8,9111328125E-09;-0,7989501953125;6;464;5,39504159241915E-07;-5,70883803069591E-07;100 nA
-0,750732421875;241,011665391504;-2,3406982421875E-09;-0,748565673828125;6;465;5,39504159241915E-07;-5,70883803069591E-07;100 nA
-0,70068359375;241,51215339024;9,405517578125E-09;-0,6986083984375;6;466;5,39504159241915E-07;-5,70883803069591E-07;100 nA
-0,650634765625;242,012641388977;2,998046875E-08;-0,64862060546875;6;467;5,39504159241915E-07;-5,70883803069591E-07;100 nA
-0,6005859375;242,513129387713;4,57305908203125E-08;-0,598724365234375;6;468;5,39504159241915E-07;-5,70883803069591E-07;100 nA
-0,550537109375;243,01361738645;6,451416015625E-08;-0,548858642578125;6;469;5,39504159241915E-07;-5,70883803069591E-07;100 nA
-0,50048828125;243,514105385186;7,1197509765625E-08;-0,498992919921875;6;470;5,39504159241915E-07;-5,70883803069591E-07;100 nA
-0,450439453125;244,014593383922;6,201171875E-08;-0,449127197265625;6;471;5,39504159241915E-07;-5,70883803069591E-07;100 nA
-0,400390625;244,515081382659;4,8828125E-08;-0,39923095703125;6;472;5,39504159241915E-07;-5,70883803069591E-07;100 nA
-0,350341796875;245,015569381395;3,91998291015625E-08;-0,349334716796875;6;473;5,39504159241915E-07;-5,70883803069591E-07;100 nA
-0,30029296875;245,516057380132;3,5247802734375E-08;-0,299285888671875;6;474;5,39504159241915E-07;-5,70883803069591E-07;100 nA
-0,250244140625;246,016545378868;3,37554931640625E-08;-0,249359130859375;6;475;5,39504159241915E-07;-5,70883803069591E-07;100 nA
-0,2001953125;246,517033377604;3,18511962890625E-08;-0,199493408203125;6;476;5,39504159241915E-07;-5,70883803069591E-07;100 nA
-0,150146484375;247,017521376341;2,88177490234375E-08;-0,149627685546875;6;477;5,39504159241915E-07;-5,70883803069591E-07;100 nA
-0,10009765625;247,518009375077;2,67547607421875E-08;-0,099700927734375;6;478;5,39504159241915E-07;-5,70883803069591E-07;100 nA
-0,050048828125;248,018497373813;2,5701904296875E-08;-0,049835205078125;6;479;5,39504159241915E-07;-5,70883803069591E-07;100 nA
0;248,51898537255;2,56805419921875E-08;0,000128173828124994;6;480;5,39504159241915E-07;-5,70883803069591E-07;100 nA
0,050048828125;249,019473371286;2,45758056640625E-08;0,04998779296875;7;481;5,31847305595875E-07;-5,46879060566425E-07;100 nA
0,10009765625;249,519961370023;2,37640380859375E-08;0,100006103515625;7;482;5,31847305595875E-07;-5,46879060566425E-07;100 nA
0,150146484375;250,020449368759;2,14874267578125E-08;0,1500244140625;7;483;5,31847305595875E-07;-5,46879060566425E-07;100 nA
0,2001953125;250,520937367495;2,005615234375E-08;0,2000732421875;7;484;5,31847305595875E-07;-5,46879060566425E-07;100 nA
0,250244140625;251,021425366232;1,91925048828125E-08;0,25;7;485;5,31847305595875E-07;-5,46879060566425E-07;100 nA
0,30029296875;251,521913364968;1,7938232421875E-08;0,300018310546875;7;486;5,31847305595875E-07;-5,46879060566425E-07;100 nA
0,350341796875;252,022401363705;1,7303466796875E-08;0,350128173828125;7;487;5,31847305595875E-07;-5,46879060566425E-07;100 nA
0,400390625;252,522889362441;1,68548583984375E-08;0,4000244140625;7;488;5,31847305595875E-07;-5,46879060566425E-07;100 nA
0,450439453125;253,023377361177;1,62933349609375E-08;0,450103759765625;7;489;5,31847305595875E-07;-5,46879060566425E-07;100 nA
0,50048828125;253,523865359914;1,6339111328125E-08;0,50006103515625;7;490;5,31847305595875E-07;-5,46879060566425E-07;100 nA
0,550537109375;254,02435335865;1,6180419921875E-08;0,550048828125;7;491;5,31847305595875E-07;-5,46879060566425E-07;100 nA
0,6005859375;254,524841357387;1,58477783203125E-08;0,60003662109375;7;492;5,31847305595875E-07;-5,46879060566425E-07;100 nA
0,650634765625;255,025329356123;1,57989501953125E-08;0,6500244140625;7;493;5,31847305595875E-07;-5,46879060566425E-07;100 nA
0,70068359375;255,525817354859;1,56463623046875E-08;0,69989013671875;7;494;5,31847305595875E-07;-5,46879060566425E-07;100 nA
0,750732421875;256,026305353596;1,57318115234375E-08;0,74981689453125;7;495;5,31847305595875E-07;-5,46879060566425E-07;100 nA
0,80078125;256,526793352332;1,56280517578125E-08;0,799560546875;7;496;5,31847305595875E-07;-5,46879060566425E-07;100 nA
0,850830078125;257,027281351069;1,644287109375E-08;0,84930419921875;7;497;5,31847305595875E-07;-5,46879060566425E-07;100 nA
0,90087890625;257,527769349805;1,73553466796875E-08;0,899658203125;7;498;5,31847305595875E-07;-5,46879060566425E-07;100 nA
0,950927734375;258,028257348541;1,9525146484375E-08;0,95001220703125;7;499;5,31847305595875E-07;-5,46879060566425E-07;100 nA
1,0009765625;258,528745347278;2,24517822265625E-08;0,999755859375;7;500;5,31847305595875E-07;-5,46879060566425E-07;100 nA
0,950927734375;259,029233346014;1,51031494140625E-08;0,95001220703125;7;501;5,31847305595875E-07;-5,46879060566425E-07;100 nA
0,90087890625;259,52972134475;1,2298583984375E-08;0,899658203125;7;502;5,31847305595875E-07;-5,46879060566425E-07;100 nA
0,850830078125;260,030209343487;1,06170654296875E-08;0,85052490234375;7;503;5,31847305595875E-07;-5,46879060566425E-07;100 nA
0,80078125;260,530697342223;9,9029541015625E-09;0,8001708984375;7;504;5,31847305595875E-07;-5,46879060566425E-07;100 nA
0,750732421875;261,03118534096;9,4696044921875E-09;0,749847412109375;7;505;5,31847305595875E-07;-5,46879060566425E-07;100 nA
0,70068359375;261,531673339696;8,3740234375E-09;0,699920654296875;7;506;5,31847305595875E-07;-5,46879060566425E-07;100 nA
0,650634765625;262,032161338432;7,904052734375E-09;0,649993896484375;7;507;5,31847305595875E-07;-5,46879060566425E-07;100 nA
0,6005859375;262,532649337169;7,6690673828125E-09;0,60003662109375;7;508;5,31847305595875E-07;-5,46879060566425E-07;100 nA
0,550537109375;263,033137335905;7,244873046875E-09;0,550079345703125;7;509;5,31847305595875E-07;-5,46879060566425E-07;100 nA
0,50048828125;263,533625334642;6,8695068359375E-09;0,500091552734375;7;510;5,31847305595875E-07;-5,46879060566425E-07;100 nA
0,450439453125;264,034113333378;6,512451171875E-09;0,4500732421875;7;511;5,31847305595875E-07;-5,46879060566425E-07;100 nA
0,400390625;264,534601332114;6,2347412109375E-09;0,40008544921875;7;512;5,31847305595875E-07;-5,46879060566425E-07;100 nA
0,350341796875;265,035089330851;5,8929443359375E-09;0,35009765625;7;513;5,31847305595875E-07;-5,46879060566425E-07;100 nA
0,30029296875;265,535577329587;5,5023193359375E-09;0,300048828125;7;514;5,31847305595875E-07;-5,46879060566425E-07;100 nA
0,250244140625;266,036065328324;5,0018310546875E-09;0,25006103515625;7;515;5,31847305595875E-07;-5,46879060566425E-07;100 nA
0,2001953125;266,53655332706;4,45556640625E-09;0,20001220703125;7;516;5,31847305595875E-07;-5,46879060566425E-07;100 nA
0,150146484375;267,037041325796;3,4393310546875E-09;0,15008544921875;7;517;5,31847305595875E-07;-5,46879060566425E-07;100 nA
0,10009765625;267,537529324533;2,40478515625E-09;0,100067138671875;7;518;5,31847305595875E-07;-5,46879060566425E-07;100 nA
0,050048828125;268,038017323269;1,6632080078125E-09;0,05010986328125;7;519;5,31847305595875E-07;-5,46879060566425E-07;100 nA
0;268,538505322005;1,59912109375E-10;0,000128173828124994;7;520;5,31847305595875E-07;-5,46879060566425E-07;100 nA
-0,050048828125;269,038993320742;-5,4534912109375E-09;-0,04970703125;7;521;5,31847305595875E-07;-5,46879060566425E-07;100 nA
-0,10009765625;269,539481319478;-2,3162841796875E-09;-0,0997314453125;7;522;5,31847305595875E-07;-5,46879060566425E-07;100 nA
-0,150146484375;270,039969318215;-1,922607421875E-09;-0,1495361328125;7;523;5,31847305595875E-07;-5,46879060566425E-07;100 nA
-0,2001953125;270,540457316951;-1,9134521484375E-09;-0,199432373046875;7;524;5,31847305595875E-07;-5,46879060566425E-07;100 nA
-0,250244140625;271,040945315687;-1,9989013671875E-09;-0,249267578125;7;525;5,31847305595875E-07;-5,46879060566425E-07;100 nA
-0,30029296875;271,541433314424;-2,166748046875E-09;-0,299224853515625;7;526;5,31847305595875E-07;-5,46879060566425E-07;100 nA
-0,350341796875;272,04192131316;-2,7099609375E-09;-0,34918212890625;7;527;5,31847305595875E-07;-5,46879060566425E-07;100 nA
-0,400390625;272,542409311897;-3,9825439453125E-09;-0,399017333984375;7;528;5,31847305595875E-07;-5,46879060566425E-07;100 nA
-0,450439453125;273,042897310633;-6,6864013671875E-09;-0,448974609375;7;529;5,31847305595875E-07;-5,46879060566425E-07;100 nA
-0,50048828125;273,543385309369;-1,2994384765625E-08;-0,498809814453125;7;530;5,31847305595875E-07;-5,46879060566425E-07;100 nA
-0,550537109375;274,043873308106;-2,65472412109375E-08;-0,54876708984375;7;531;5,31847305595875E-07;-5,46879060566425E-07;100 nA
-0,6005859375;274,544361306842;-4,14276123046875E-08;-0,598602294921875;7;532;5,31847305595875E-07;-5,46879060566425E-07;100 nA
-0,650634765625;275,044849305579;-6,787109375E-08;-0,648529052734375;7;533;5,31847305595875E-07;-5,46879060566425E-07;100 nA
-0,70068359375;275,545337304315;-1,0418701171875E-07;-0,69842529296875;7;534;5,31847305595875E-07;-5,46879060566425E-07;100 nA
-0,750732421875;276,045825303051;-1,23016357421875E-07;-0,74835205078125;7;535;5,31847305595875E-07;-5,46879060566425E-07;100 nA
-0,80078125;276,546313301788;-1,3275146484375E-07;-0,79864501953125;7;536;5,31847305595875E-07;-5,46879060566425E-07;100 nA
-0,850830078125;277,046801300524;-1,275634765625E-07;-0,8489990234375;7;537;5,31847305595875E-07;-5,46879060566425E-07;100 nA
-0,90087890625;277,54728929926;-1,30706787109375E-07;-0,89874267578125;7;538;5,31847305595875E-07;-5,46879060566425E-07;100 nA
-0,950927734375;278,047777297997;-1,38458251953125E-07;-0,94940185546875;7;539;5,31847305595875E-07;-5,46879060566425E-07;100 nA
-1,0009765625;278,548265296733;-1,17523193359375E-07;-0,99853515625;7;540;5,31847305595875E-07;-5,46879060566425E-07;100 nA
-0,950927734375;279,04875329547;-1,986083984375E-08;-0,948486328125;7;541;5,31847305595875E-07;-5,46879060566425E-07;100 nA
-0,90087890625;279,549241294206;-4,9896240234375E-09;-0,89874267578125;7;542;5,31847305595875E-07;-5,46879060566425E-07;100 nA
-0,850830078125;280,049729292942;-4,28466796875E-09;-0,84869384765625;7;543;5,31847305595875E-07;-5,46879060566425E-07;100 nA
-0,80078125;280,550217291679;-8,819580078125E-09;-0,79833984375;7;544;5,31847305595875E-07;-5,46879060566425E-07;100 nA
-0,750732421875;281,050705290415;-2,5390625E-09;-0,74859619140625;7;545;5,31847305595875E-07;-5,46879060566425E-07;100 nA
-0,70068359375;281,551193289152;8,599853515625E-09;-0,6986083984375;7;546;5,31847305595875E-07;-5,46879060566425E-07;100 nA
-0,650634765625;282,051681287888;2,6544189453125E-08;-0,648651123046875;7;547;5,31847305595875E-07;-5,46879060566425E-07;100 nA
-0,6005859375;282,552169286624;4,2156982421875E-08;-0,598663330078125;7;548;5,31847305595875E-07;-5,46879060566425E-07;100 nA
-0,550537109375;283,052657285361;6,1187744140625E-08;-0,548797607421875;7;549;5,31847305595875E-07;-5,46879060566425E-07;100 nA
-0,50048828125;283,553145284097;6,890869140625E-08;-0,498992919921875;7;550;5,31847305595875E-07;-5,46879060566425E-07;100 nA
-0,450439453125;284,053633282834;6,0211181640625E-08;-0,449066162109375;7;551;5,31847305595875E-07;-5,46879060566425E-07;100 nA
-0,400390625;284,55412128157;4,656982421875E-08;-0,399169921875;7;552;5,31847305595875E-07;-5,46879060566425E-07;100 nA
-0,350341796875;285,054609280306;3,88336181640625E-08;-0,3492431640625;7;553;5,31847305595875E-07;-5,46879060566425E-07;100 nA
-0,30029296875;285,555097279043;3,76953125E-08;-0,299285888671875;7;554;5,31847305595875E-07;-5,46879060566425E-07;100 nA
-0,250244140625;286,055585277779;3,3221435546875E-08;-0,249481201171875;7;555;5,31847305595875E-07;-5,46879060566425E-07;100 nA
-0,2001953125;286,556073276515;3,14666748046875E-08;-0,199493408203125;7;556;5,31847305595875E-07;-5,46879060566425E-07;100 nA
-0,150146484375;287,056561275252;2,823486328125E-08;-0,149566650390625;7;557;5,31847305595875E-07;-5,46879060566425E-07;100 nA
-0,10009765625;287,557049273988;2,68402099609375E-08;-0,099700927734375;7;558;5,31847305595875E-07;-5,46879060566425E-07;100 nA
-0,050048828125;288,057537272725;2,58331298828125E-08;-0,049835205078125;7;559;5,31847305595875E-07;-5,46879060566425E-07;100 nA
0;288,558025271461;2,52197265625E-08;0,000131225585937506;7;560;5,31847305595875E-07;-5,46879060566425E-07;100 nA
0,050048828125;289,058513270197;2,470703125E-08;0,050079345703125;8;561;5,16264017671347E-07;-5,26140443980694E-07;100 nA
0,10009765625;289,559001268934;2,3590087890625E-08;0,100067138671875;8;562;5,16264017671347E-07;-5,26140443980694E-07;100 nA
0,150146484375;290,05948926767;2,119140625E-08;0,150054931640625;8;563;5,16264017671347E-07;-5,26140443980694E-07;100 nA
0,2001953125;290,559977266407;1,98394775390625E-08;0,20001220703125;8;564;5,16264017671347E-07;-5,26140443980694E-07;100 nA
0,250244140625;291,060465265143;1,87347412109375E-08;0,250091552734375;8;565;5,16264017671347E-07;-5,26140443980694E-07;100 nA
0,30029296875;291,560953263879;1,7962646484375E-08;0,300048828125;8;566;5,16264017671347E-07;-5,26140443980694E-07;100 nA
0,350341796875;292,061441262616;1,71417236328125E-08;0,35009765625;8;567;5,16264017671347E-07;-5,26140443980694E-07;100 nA
0,400390625;292,561929261352;1,634521484375E-08;0,40008544921875;8;568;5,16264017671347E-07;-5,26140443980694E-07;100 nA
0,450439453125;293,062417260089;1,5936279296875E-08;0,45001220703125;8;569;5,16264017671347E-07;-5,26140443980694E-07;100 nA
0,50048828125;293,562905258825;1,580810546875E-08;0,500091552734375;8;570;5,16264017671347E-07;-5,26140443980694E-07;100 nA
0,550537109375;294,063393257561;1,57012939453125E-08;0,550079345703125;8;571;5,16264017671347E-07;-5,26140443980694E-07;100 nA
0,6005859375;294,563881256298;1,57562255859375E-08;0,600067138671875;8;572;5,16264017671347E-07;-5,26140443980694E-07;100 nA
0,650634765625;295,064369255034;1,57379150390625E-08;0,649993896484375;8;573;5,16264017671347E-07;-5,26140443980694E-07;100 nA
0,70068359375;295,56485725377;1,59271240234375E-08;0,69989013671875;8;574;5,16264017671347E-07;-5,26140443980694E-07;100 nA
0,750732421875;296,065345252507;1,55181884765625E-08;0,749908447265625;8;575;5,16264017671347E-07;-5,26140443980694E-07;100 nA
0,80078125;296,565833251243;1,5521240234375E-08;0,8001708984375;8;576;5,16264017671347E-07;-5,26140443980694E-07;100 nA
0,850830078125;297,06632124998;1,7340087890625E-08;0,8502197265625;8;577;5,16264017671347E-07;-5,26140443980694E-07;100 nA
0,90087890625;297,566809248716;1,73248291015625E-08;0,899658203125;8;578;5,16264017671347E-07;-5,26140443980694E-07;100 nA
0,950927734375;298,067297247452;1,92474365234375E-08;0,95001220703125;8;579;5,16264017671347E-07;-5,26140443980694E-07;100 nA
1,0009765625;298,567785246189;2,2515869140625E-08;1,00006103515625;8;580;5,16264017671347E-07;-5,26140443980694E-07;100 nA
0,950927734375;299,068273244925;1,55609130859375E-08;0,94970703125;8;581;5,16264017671347E-07;-5,26140443980694E-07;100 nA
0,90087890625;299,568761243662;1,2353515625E-08;0,89996337890625;8;582;5,16264017671347E-07;-5,26140443980694E-07;100 nA
0,850830078125;300,069249242398;1,0552978515625E-08;0,8502197265625;8;583;5,16264017671347E-07;-5,26140443980694E-07;100 nA
0,80078125;300,569737241134;9,686279296875E-09;0,79986572265625;8;584;5,16264017671347E-07;-5,26140443980694E-07;100 nA
0,750732421875;301,070225239871;8,9141845703125E-09;0,749786376953125;8;585;5,16264017671347E-07;-5,26140443980694E-07;100 nA
0,70068359375;301,570713238607;8,2611083984375E-09;0,69989013671875;8;586;5,16264017671347E-07;-5,26140443980694E-07;100 nA
0,650634765625;302,071201237344;7,8155517578125E-09;0,649993896484375;8;587;5,16264017671347E-07;-5,26140443980694E-07;100 nA
0,6005859375;302,57168923608;7,3699951171875E-09;0,600189208984375;8;588;5,16264017671347E-07;-5,26140443980694E-07;100 nA
0,550537109375;303,072177234816;7,2418212890625E-09;0,550140380859375;8;589;5,16264017671347E-07;-5,26140443980694E-07;100 nA
0,50048828125;303,572665233553;6,79931640625E-09;0,50006103515625;8;590;5,16264017671347E-07;-5,26140443980694E-07;100 nA
0,450439453125;304,073153232289;6,53076171875E-09;0,450103759765625;8;591;5,16264017671347E-07;-5,26140443980694E-07;100 nA
0,400390625;304,573641231025;6,18896484375E-09;0,40008544921875;8;592;5,16264017671347E-07;-5,26140443980694E-07;100 nA
0,350341796875;305,074129229762;5,8624267578125E-09;0,350128173828125;8;593;5,16264017671347E-07;-5,26140443980694E-07;100 nA
0,30029296875;305,574617228498;5,4840087890625E-09;0,300048828125;8;594;5,16264017671347E-07;-5,26140443980694E-07;100 nA
0,250244140625;306,075105227235;5,0994873046875E-09;0,250091552734375;8;595;5,16264017671347E-07;-5,26140443980694E-07;100 nA
0,2001953125;306,575593225971;4,571533203125E-09;0,20001220703125;8;596;5,16264017671347E-07;-5,26140443980694E-07;100 nA
0,150146484375;307,076081224707;3,564453125E-09;0,150054931640625;8;597;5,16264017671347E-07;-5,26140443980694E-07;100 nA
0,10009765625;307,576569223444;2,5299072265625E-09;0,10009765625;8;598;5,16264017671347E-07;-5,26140443980694E-07;100 nA
0,050048828125;308,07705722218;1,788330078125E-09;0,050140380859375;8;599;5,16264017671347E-07;-5,26140443980694E-07;100 nA
0;308,577545220917;3,50036621093749E-10;0,000146484375000006;8;600;5,16264017671347E-07;-5,26140443980694E-07;100 nA
-0,050048828125;309,078033219653;-5,16357421875E-09;-0,049774169921875;8;601;5,16264017671347E-07;-5,26140443980694E-07;100 nA
-0,10009765625;309,578521218389;-2,1820068359375E-09;-0,099609375;8;602;5,16264017671347E-07;-5,26140443980694E-07;100 nA
-0,150146484375;310,079009217126;-1,849365234375E-09;-0,149505615234375;8;603;5,16264017671347E-07;-5,26140443980694E-07;100 nA
-0,2001953125;310,579497215862;-1,84326171875E-09;-0,199432373046875;8;604;5,16264017671347E-07;-5,26140443980694E-07;100 nA
-0,250244140625;311,079985214599;-1,9195556640625E-09;-0,249359130859375;8;605;5,16264017671347E-07;-5,26140443980694E-07;100 nA
-0,30029296875;311,580473213335;-2,1026611328125E-09;-0,29925537109375;8;606;5,16264017671347E-07;-5,26140443980694E-07;100 nA
-0,350341796875;312,080961212071;-2,6702880859375E-09;-0,349151611328125;8;607;5,16264017671347E-07;-5,26140443980694E-07;100 nA
-0,400390625;312,581449210808;-3,924560546875E-09;-0,399078369140625;8;608;5,16264017671347E-07;-5,26140443980694E-07;100 nA
-0,450439453125;313,081937209544;-6,5093994140625E-09;-0,448974609375;8;609;5,16264017671347E-07;-5,26140443980694E-07;100 nA
-0,50048828125;313,58242520828;-1,24420166015625E-08;-0,498809814453125;8;610;5,16264017671347E-07;-5,26140443980694E-07;100 nA
-0,550537109375;314,082913207017;-2,50579833984375E-08;-0,5487060546875;8;611;5,16264017671347E-07;-5,26140443980694E-07;100 nA
-0,6005859375;314,583401205753;-4,0771484375E-08;-0,598541259765625;8;612;5,16264017671347E-07;-5,26140443980694E-07;100 nA
-0,650634765625;315,08388920449;-6,82373046875E-08;-0,648468017578125;8;613;5,16264017671347E-07;-5,26140443980694E-07;100 nA
-0,70068359375;315,584377203226;-1,04156494140625E-07;-0,698455810546875;8;614;5,16264017671347E-07;-5,26140443980694E-07;100 nA
-0,750732421875;316,084865201962;-1,21490478515625E-07;-0,74835205078125;8;615;5,16264017671347E-07;-5,26140443980694E-07;100 nA
-0,80078125;316,585353200699;-1,26617431640625E-07;-0,79833984375;8;616;5,16264017671347E-07;-5,26140443980694E-07;100 nA
-0,850830078125;317,085841199435;-1,207275390625E-07;-0,84869384765625;8;617;5,16264017671347E-07;-5,26140443980694E-07;100 nA
-0,90087890625;317,586329198172;-1,22344970703125E-07;-0,8990478515625;8;618;5,16264017671347E-07;-5,26140443980694E-07;100 nA
-0,950927734375;318,086817196908;-1,31683349609375E-07;-0,94879150390625;8;619;5,16264017671347E-07;-5,26140443980694E-07;100 nA
-1,0009765625;318,587305195644;-1,0986328125E-07;-0,9991455078125;8;620;5,16264017671347E-07;-5,26140443980694E-07;100 nA
-0,950927734375;319,087793194381;-1,624755859375E-08;-0,94818115234375;8;621;5,16264017671347E-07;-5,26140443980694E-07;100 nA
-0,90087890625;319,588281193117;-4,91943359375E-09;-0,8984375;8;622;5,16264017671347E-07;-5,26140443980694E-07;100 nA
-0,850830078125;320,088769191854;-4,9591064453125E-09;-0,84869384765625;8;623;5,16264017671347E-07;-5,26140443980694E-07;100 nA
-0,80078125;320,58925719059;-1,05804443359375E-08;-0,7977294921875;8;624;5,16264017671347E-07;-5,26140443980694E-07;100 nA
-0,750732421875;321,089745189326;-2,99072265625E-09;-0,74853515625;8;625;5,16264017671347E-07;-5,26140443980694E-07;100 nA
-0,70068359375;321,590233188063;7,9071044921875E-09;-0,698516845703125;8;626;5,16264017671347E-07;-5,26140443980694E-07;100 nA
-0,650634765625;322,090721186799;2,374267578125E-08;-0,6485595703125;8;627;5,16264017671347E-07;-5,26140443980694E-07;100 nA
-0,6005859375;322,591209185535;3,82720947265625E-08;-0,598663330078125;8;628;5,16264017671347E-07;-5,26140443980694E-07;100 nA
-0,550537109375;323,091697184272;5,7586669921875E-08;-0,548797607421875;8;629;5,16264017671347E-07;-5,26140443980694E-07;100 nA
-0,50048828125;323,592185183008;6,6925048828125E-08;-0,498992919921875;8;630;5,16264017671347E-07;-5,26140443980694E-07;100 nA
-0,450439453125;324,092673181745;5,926513671875E-08;-0,4490966796875;8;631;5,16264017671347E-07;-5,26140443980694E-07;100 nA
-0,400390625;324,593161180481;4,512939453125E-08;-0,399200439453125;8;632;5,16264017671347E-07;-5,26140443980694E-07;100 nA
-0,350341796875;325,093649179217;3,56231689453125E-08;-0,3492431640625;8;633;5,16264017671347E-07;-5,26140443980694E-07;100 nA
-0,30029296875;325,594137177954;3,3935546875E-08;-0,299285888671875;8;634;5,16264017671347E-07;-5,26140443980694E-07;100 nA
-0,250244140625;326,09462517669;3,34320068359375E-08;-0,249420166015625;8;635;5,16264017671347E-07;-5,26140443980694E-07;100 nA
-0,2001953125;326,595113175427;2,9833984375E-08;-0,19952392578125;8;636;5,16264017671347E-07;-5,26140443980694E-07;100 nA
-0,150146484375;327,095601174163;2,7020263671875E-08;-0,149658203125;8;637;5,16264017671347E-07;-5,26140443980694E-07;100 nA
-0,10009765625;327,596089172899;2,56622314453125E-08;-0,0997314453125;8;638;5,16264017671347E-07;-5,26140443980694E-07;100 nA
-0,050048828125;328,096577171636;2,47772216796875E-08;-0,049835205078125;8;639;5,16264017671347E-07;-5,26140443980694E-07;100 nA
0;328,597065170372;2,403564453125E-08;0,000146484375000006;8;640;5,16264017671347E-07;-5,26140443980694E-07;100 nA
0,050048828125;329,097553169109;2,43072509765625E-08;0,050048828125;9;641;5,05418322980404E-07;-5,0536135211587E-07;100 nA
0,10009765625;329,598041167845;2,23907470703125E-08;0,100006103515625;9;642;5,05418322980404E-07;-5,0536135211587E-07;100 nA
0,150146484375;330,098529166581;2,07855224609375E-08;0,149993896484375;9;643;5,05418322980404E-07;-5,0536135211587E-07;100 nA
0,2001953125;330,599017165318;2,00164794921875E-08;0,20001220703125;9;644;5,05418322980404E-07;-5,0536135211587E-07;100 nA
0,250244140625;331,099505164054;1,9012451171875E-08;0,249969482421875;9;645;5,05418322980404E-07;-5,0536135211587E-07;100 nA
0,30029296875;331,599993162791;1,81671142578125E-08;0,300018310546875;9;646;5,05418322980404E-07;-5,0536135211587E-07;100 nA
0,350341796875;332,100481161527;1,744384765625E-08;0,35003662109375;9;647;5,05418322980404E-07;-5,0536135211587E-07;100 nA
0,400390625;332,600969160263;1,68487548828125E-08;0,40008544921875;9;648;5,05418322980404E-07;-5,0536135211587E-07;100 nA
0,450439453125;333,101457159;1,63543701171875E-08;0,450042724609375;9;649;5,05418322980404E-07;-5,0536135211587E-07;100 nA
0,50048828125;333,601945157736;1,59881591796875E-08;0,50006103515625;9;650;5,05418322980404E-07;-5,0536135211587E-07;100 nA
0,550537109375;334,102433156472;1,6009521484375E-08;0,550079345703125;9;651;5,05418322980404E-07;-5,0536135211587E-07;100 nA
0,6005859375;334,602921155209;1,588134765625E-08;0,60003662109375;9;652;5,05418322980404E-07;-5,0536135211587E-07;100 nA
0,650634765625;335,103409153945;1,53839111328125E-08;0,649993896484375;9;653;5,05418322980404E-07;-5,0536135211587E-07;100 nA
0,70068359375;335,603897152682;1,51336669921875E-08;0,699920654296875;9;654;5,05418322980404E-07;-5,0536135211587E-07;100 nA
0,750732421875;336,104385151418;1,52679443359375E-08;0,74981689453125;9;655;5,05418322980404E-07;-5,0536135211587E-07;100 nA
0,80078125;336,604873150154;1,57623291015625E-08;0,8001708984375;9;656;5,05418322980404E-07;-5,0536135211587E-07;100 nA
0,850830078125;337,105361148891;1,571044921875E-08;0,85052490234375;9;657;5,05418322980404E-07;-5,0536135211587E-07;100 nA
0,90087890625;337,605849147627;1,75506591796875E-08;0,9002685546875;9;658;5,05418322980404E-07;-5,0536135211587E-07;100 nA
0,950927734375;338,106337146364;2,01446533203125E-08;0,9490966796875;9;659;5,05418322980404E-07;-5,0536135211587E-07;100 nA
1,0009765625;338,6068251451;2,467041015625E-08;0,9991455078125;9;660;5,05418322980404E-07;-5,0536135211587E-07;100 nA
0,950927734375;339,107313143836;1,6351318359375E-08;0,94970703125;9;661;5,05418322980404E-07;-5,0536135211587E-07;100 nA
0,90087890625;339,607801142573;1,2335205078125E-08;0,89996337890625;9;662;5,05418322980404E-07;-5,0536135211587E-07;100 nA
0,850830078125;340,108289141309;1,06292724609375E-08;0,84991455078125;9;663;5,05418322980404E-07;-5,0536135211587E-07;100 nA
0,80078125;340,608777140046;9,6527099609375E-09;0,79986572265625;9;664;5,05418322980404E-07;-5,0536135211587E-07;100 nA
0,750732421875;341,109265138782;9,0179443359375E-09;0,749847412109375;9;665;5,05418322980404E-07;-5,0536135211587E-07;100 nA
0,70068359375;341,609753137518;9,3353271484375E-09;0,699920654296875;9;666;5,05418322980404E-07;-5,0536135211587E-07;100 nA
0,650634765625;342,110241136255;8,0169677734375E-09;0,64996337890625;9;667;5,05418322980404E-07;-5,0536135211587E-07;100 nA
0,6005859375;342,610729134991;7,7301025390625E-09;0,60003662109375;9;668;5,05418322980404E-07;-5,0536135211587E-07;100 nA
0,550537109375;343,111217133727;7,3638916015625E-09;0,550048828125;9;669;5,05418322980404E-07;-5,0536135211587E-07;100 nA
0,50048828125;343,611705132464;6,9976806640625E-09;0,50006103515625;9;670;5,05418322980404E-07;-5,0536135211587E-07;100 nA
0,450439453125;344,1121931312;6,7901611328125E-09;0,450103759765625;9;671;5,05418322980404E-07;-5,0536135211587E-07;100 nA
0,400390625;344,612681129937;6,4453125E-09;0,400115966796875;9;672;5,05418322980404E-07;-5,0536135211587E-07;100 nA
0,350341796875;345,113169128673;5,975341796875E-09;0,350067138671875;9;673;5,05418322980404E-07;-5,0536135211587E-07;100 nA
0,30029296875;345,613657127409;5,6549072265625E-09;0,300079345703125;9;674;5,05418322980404E-07;-5,0536135211587E-07;100 nA
0,250244140625;346,114145126146;5,169677734375E-09;0,25006103515625;9;675;5,05418322980404E-07;-5,0536135211587E-07;100 nA
0,2001953125;346,614633124882;4,6417236328125E-09;0,20001220703125;9;676;5,05418322980404E-07;-5,0536135211587E-07;100 nA
0,150146484375;347,115121123619;3,7445068359375E-09;0,15008544921875;9;677;5,05418322980404E-07;-5,0536135211587E-07;100 nA
0,10009765625;347,615609122355;2,6397705078125E-09;0,10009765625;9;678;5,05418322980404E-07;-5,0536135211587E-07;100 nA
0,050048828125;348,116097121091;1,9317626953125E-09;0,050048828125;9;679;5,05418322980404E-07;-5,0536135211587E-07;100 nA
0;348,616585119828;4,78515625E-10;0,000125122070312497;9;680;5,05418322980404E-07;-5,0536135211587E-07;100 nA
-0,050048828125;349,117073118564;-4,8858642578125E-09;-0,04974365234375;9;681;5,05418322980404E-07;-5,0536135211587E-07;100 nA
-0,10009765625;349,617561117301;-2,0751953125E-09;-0,0997314453125;9;682;5,05418322980404E-07;-5,0536135211587E-07;100 nA
-0,150146484375;350,118049116037;-1,8017578125E-09;-0,14959716796875;9;683;5,05418322980404E-07;-5,0536135211587E-07;100 nA
-0,2001953125;350,618537114773;-1,7913818359375E-09;-0,199462890625;9;684;5,05418322980404E-07;-5,0536135211587E-07;100 nA
-0,250244140625;351,11902511351;-1,88934326171875E-09;-0,24932861328125;9;685;5,05418322980404E-07;-5,0536135211587E-07;100 nA
-0,30029296875;351,619513112246;-2,11181640625E-09;-0,299224853515625;9;686;5,05418322980404E-07;-5,0536135211587E-07;100 nA
-0,350341796875;352,120001110982;-2,6458740234375E-09;-0,34918212890625;9;687;5,05418322980404E-07;-5,0536135211587E-07;100 nA
-0,400390625;352,620489109719;-3,8787841796875E-09;-0,399078369140625;9;688;5,05418322980404E-07;-5,0536135211587E-07;100 nA
-0,450439453125;353,120977108455;-6,3690185546875E-09;-0,448974609375;9;689;5,05418322980404E-07;-5,0536135211587E-07;100 nA
-0,50048828125;353,621465107192;-1,1956787109375E-08;-0,498809814453125;9;690;5,05418322980404E-07;-5,0536135211587E-07;100 nA
-0,550537109375;354,121953105928;-2,39532470703125E-08;-0,548797607421875;9;691;5,05418322980404E-07;-5,0536135211587E-07;100 nA
-0,6005859375;354,622441104664;-4,07684326171875E-08;-0,598541259765625;9;692;5,05418322980404E-07;-5,0536135211587E-07;100 nA
-0,650634765625;355,122929103401;-6,9122314453125E-08;-0,6484375;9;693;5,05418322980404E-07;-5,0536135211587E-07;100 nA
-0,70068359375;355,623417102137;-1,0455322265625E-07;-0,698394775390625;9;694;5,05418322980404E-07;-5,0536135211587E-07;100 nA
-0,750732421875;356,123905100874;-1,18072509765625E-07;-0,748443603515625;9;695;5,05418322980404E-07;-5,0536135211587E-07;100 nA
-0,80078125;356,62439309961;-1,25274658203125E-07;-0,79833984375;9;696;5,05418322980404E-07;-5,0536135211587E-07;100 nA
-0,850830078125;357,124881098346;-1,15631103515625E-07;-0,84869384765625;9;697;5,05418322980404E-07;-5,0536135211587E-07;100 nA
-0,90087890625;357,625369097083;-1,1639404296875E-07;-0,89874267578125;9;698;5,05418322980404E-07;-5,0536135211587E-07;100 nA
-0,950927734375;358,125857095819;-1,24359130859375E-07;-0,94879150390625;9;699;5,05418322980404E-07;-5,0536135211587E-07;100 nA
-1,0009765625;358,626345094556;-8,9569091796875E-08;-0,99884033203125;9;700;5,05418322980404E-07;-5,0536135211587E-07;100 nA
-0,950927734375;359,126833093292;-1,246337890625E-08;-0,948486328125;9;701;5,05418322980404E-07;-5,0536135211587E-07;100 nA
-0,90087890625;359,627321092028;-5,0384521484375E-09;-0,8984375;9;702;5,05418322980404E-07;-5,0536135211587E-07;100 nA
-0,850830078125;360,127809090765;-7,244873046875E-09;-0,84869384765625;9;703;5,05418322980404E-07;-5,0536135211587E-07;100 nA
-0,80078125;360,628297089501;-1,40167236328125E-08;-0,7989501953125;9;704;5,05418322980404E-07;-5,0536135211587E-07;100 nA
-0,750732421875;361,128785088237;-3,86962890625E-09;-0,74859619140625;9;705;5,05418322980404E-07;-5,0536135211587E-07;100 nA
-0,70068359375;361,629273086974;7,1380615234375E-09;-0,698577880859375;9;706;5,05418322980404E-07;-5,0536135211587E-07;100 nA
-0,650634765625;362,12976108571;1,983642578125E-08;-0,64862060546875;9;707;5,05418322980404E-07;-5,0536135211587E-07;100 nA
-0,6005859375;362,630249084447;3,40240478515625E-08;-0,59869384765625;9;708;5,05418322980404E-07;-5,0536135211587E-07;100 nA
-0,550537109375;363,130737083183;5,3619384765625E-08;-0,548828125;9;709;5,05418322980404E-07;-5,0536135211587E-07;100 nA
-0,50048828125;363,631225081919;6,33544921875E-08;-0,498992919921875;9;710;5,05418322980404E-07;-5,0536135211587E-07;100 nA
-0,450439453125;364,131713080656;5,77392578125E-08;-0,4490966796875;9;711;5,05418322980404E-07;-5,0536135211587E-07;100 nA
-0,400390625;364,632201079392;4,42352294921875E-08;-0,399169921875;9;712;5,05418322980404E-07;-5,0536135211587E-07;100 nA
-0,350341796875;365,132689078129;3,5601806640625E-08;-0,349273681640625;9;713;5,05418322980404E-07;-5,0536135211587E-07;100 nA
-0,30029296875;365,633177076865;3,24981689453125E-08;-0,299346923828125;9;714;5,05418322980404E-07;-5,0536135211587E-07;100 nA
-0,250244140625;366,133665075601;3,0267333984375E-08;-0,2493896484375;9;715;5,05418322980404E-07;-5,0536135211587E-07;100 nA
-0,2001953125;366,634153074338;2,79998779296875E-08;-0,199462890625;9;716;5,05418322980404E-07;-5,0536135211587E-07;100 nA
-0,150146484375;367,134641073074;2,65655517578125E-08;-0,149627685546875;9;717;5,05418322980404E-07;-5,0536135211587E-07;100 nA
-0,10009765625;367,635129071811;2,45361328125E-08;-0,0997314453125;9;718;5,05418322980404E-07;-5,0536135211587E-07;100 nA
-0,050048828125;368,135617070547;2,4102783203125E-08;-0,049835205078125;9;719;5,05418322980404E-07;-5,0536135211587E-07;100 nA
0;368,636105069283;2,46002197265625E-08;0,000131225585937506;9;720;5,05418322980404E-07;-5,0536135211587E-07;100 nA
0,050048828125;369,13659306802;2,39715576171875E-08;0,050018310546875;10;721;4,93967331945896E-07;-4,85581159591675E-07;100 nA
0,10009765625;369,637081066756;2,294921875E-08;0,100067138671875;10;722;4,93967331945896E-07;-4,85581159591675E-07;100 nA
0,150146484375;370,137569065492;2,13531494140625E-08;0,150054931640625;10;723;4,93967331945896E-07;-4,85581159591675E-07;100 nA
0,2001953125;370,638057064229;2,01934814453125E-08;0,199981689453125;10;724;4,93967331945896E-07;-4,85581159591675E-07;100 nA
0,250244140625;371,138545062965;1,8701171875E-08;0,250030517578125;10;725;4,93967331945896E-07;-4,85581159591675E-07;100 nA
0,30029296875;371,639033061702;1,76544189453125E-08;0,300048828125;10;726;4,93967331945896E-07;-4,85581159591675E-07;100 nA
0,350341796875;372,139521060438;1,70135498046875E-08;0,350067138671875;10;727;4,93967331945896E-07;-4,85581159591675E-07;100 nA
0,400390625;372,640009059174;1,6436767578125E-08;0,400115966796875;10;728;4,93967331945896E-07;-4,85581159591675E-07;100 nA
0,450439453125;373,140497057911;1,6082763671875E-08;0,4500732421875;10;729;4,93967331945896E-07;-4,85581159591675E-07;100 nA
0,50048828125;373,640985056647;1,595458984375E-08;0,50006103515625;10;730;4,93967331945896E-07;-4,85581159591675E-07;100 nA
0,550537109375;374,141473055384;1,583251953125E-08;0,550079345703125;10;731;4,93967331945896E-07;-4,85581159591675E-07;100 nA
0,6005859375;374,64196105412;1,53228759765625E-08;0,60003662109375;10;732;4,93967331945896E-07;-4,85581159591675E-07;100 nA
0,650634765625;375,142449052856;1,53350830078125E-08;0,649993896484375;10;733;4,93967331945896E-07;-4,85581159591675E-07;100 nA
0,70068359375;375,642937051593;1,53045654296875E-08;0,699951171875;10;734;4,93967331945896E-07;-4,85581159591675E-07;100 nA
0,750732421875;376,143425050329;1,5570068359375E-08;0,749786376953125;10;735;4,93967331945896E-07;-4,85581159591675E-07;100 nA
0,80078125;376,643913049066;1,53533935546875E-08;0,79986572265625;10;736;4,93967331945896E-07;-4,85581159591675E-07;100 nA
0,850830078125;377,144401047802;1,56707763671875E-08;0,84991455078125;10;737;4,93967331945896E-07;-4,85581159591675E-07;100 nA
0,90087890625;377,644889046538;1,700439453125E-08;0,89935302734375;10;738;4,93967331945896E-07;-4,85581159591675E-07;100 nA
0,950927734375;378,145377045275;2,03857421875E-08;0,94970703125;10;739;4,93967331945896E-07;-4,85581159591675E-07;100 nA
1,0009765625;378,645865044011;2,330322265625E-08;1,00006103515625;10;740;4,93967331945896E-07;-4,85581159591675E-07;100 nA
0,950927734375;379,146353042747;1,558837890625E-08;0,94940185546875;10;741;4,93967331945896E-07;-4,85581159591675E-07;100 nA
0,90087890625;379,646841041484;1,20758056640625E-08;0,9002685546875;10;742;4,93967331945896E-07;-4,85581159591675E-07;100 nA
0,850830078125;380,14732904022;1,0284423828125E-08;0,849609375;10;743;4,93967331945896E-07;-4,85581159591675E-07;100 nA
0,80078125;380,647817038957;9,9609375E-09;0,8001708984375;10;744;4,93967331945896E-07;-4,85581159591675E-07;100 nA
0,750732421875;381,148305037693;8,819580078125E-09;0,74981689453125;10;745;4,93967331945896E-07;-4,85581159591675E-07;100 nA
0,70068359375;381,648793036429;8,331298828125E-09;0,69989013671875;10;746;4,93967331945896E-07;-4,85581159591675E-07;100 nA
0,650634765625;382,149281035166;8,0474853515625E-09;0,64996337890625;10;747;4,93967331945896E-07;-4,85581159591675E-07;100 nA
0,6005859375;382,649769033902;7,464599609375E-09;0,600067138671875;10;748;4,93967331945896E-07;-4,85581159591675E-07;100 nA
0,550537109375;383,150257032639;7,275390625E-09;0,550079345703125;10;749;4,93967331945896E-07;-4,85581159591675E-07;100 nA
0,50048828125;383,650745031375;6,805419921875E-09;0,500030517578125;10;750;4,93967331945896E-07;-4,85581159591675E-07;100 nA
0,450439453125;384,151233030111;6,5216064453125E-09;0,450042724609375;10;751;4,93967331945896E-07;-4,85581159591675E-07;100 nA
0,400390625;384,651721028848;6,2774658203125E-09;0,400146484375;10;752;4,93967331945896E-07;-4,85581159591675E-07;100 nA
0,350341796875;385,152209027584;5,9356689453125E-09;0,350067138671875;10;753;4,93967331945896E-07;-4,85581159591675E-07;100 nA
0,30029296875;385,652697026321;5,474853515625E-09;0,300079345703125;10;754;4,93967331945896E-07;-4,85581159591675E-07;100 nA
0,250244140625;386,153185025057;5,145263671875E-09;0,25006103515625;10;755;4,93967331945896E-07;-4,85581159591675E-07;100 nA
0,2001953125;386,653673023793;4,608154296875E-09;0,2000732421875;10;756;4,93967331945896E-07;-4,85581159591675E-07;100 nA
0,150146484375;387,15416102253;3,7689208984375E-09;0,150054931640625;10;757;4,93967331945896E-07;-4,85581159591675E-07;100 nA
0,10009765625;387,654649021266;2,655029296875E-09;0,10009765625;10;758;4,93967331945896E-07;-4,85581159591675E-07;100 nA
0,050048828125;388,155137020002;1,995849609375E-09;0,05010986328125;10;759;4,93967331945896E-07;-4,85581159591675E-07;100 nA
0;388,655625018739;6,15234375E-10;0,000158691406249994;10;760;4,93967331945896E-07;-4,85581159591675E-07;100 nA
-0,050048828125;389,156113017475;-4,632568359375E-09;-0,04974365234375;10;761;4,93967331945896E-07;-4,85581159591675E-07;100 nA
-0,10009765625;389,656601016212;-2,0111083984375E-09;-0,099639892578125;10;762;4,93967331945896E-07;-4,85581159591675E-07;100 nA
-0,150146484375;390,157089014948;-1,708984375E-09;-0,149566650390625;10;763;4,93967331945896E-07;-4,85581159591675E-07;100 nA
-0,2001953125;390,657577013684;-1,7547607421875E-09;-0,199432373046875;10;764;4,93967331945896E-07;-4,85581159591675E-07;100 nA
-0,250244140625;391,158065012421;-1,8341064453125E-09;-0,249267578125;10;765;4,93967331945896E-07;-4,85581159591675E-07;100 nA
-0,30029296875;391,658553011157;-2,099609375E-09;-0,299224853515625;10;766;4,93967331945896E-07;-4,85581159591675E-07;100 nA
-0,350341796875;392,159041009894;-2,667236328125E-09;-0,349212646484375;10;767;4,93967331945896E-07;-4,85581159591675E-07;100 nA
-0,400390625;392,65952900863;-3,826904296875E-09;-0,399078369140625;10;768;4,93967331945896E-07;-4,85581159591675E-07;100 nA
-0,450439453125;393,160017007366;-6,2530517578125E-09;-0,448944091796875;10;769;4,93967331945896E-07;-4,85581159591675E-07;100 nA
-0,50048828125;393,660505006103;-1,1572265625E-08;-0,498779296875;10;770;4,93967331945896E-07;-4,85581159591675E-07;100 nA
-0,550537109375;394,160993004839;-2,30072021484375E-08;-0,5487060546875;10;771;4,93967331945896E-07;-4,85581159591675E-07;100 nA
-0,6005859375;394,661481003576;-3,98651123046875E-08;-0,598602294921875;10;772;4,93967331945896E-07;-4,85581159591675E-07;100 nA
-0,650634765625;395,161969002312;-6,7718505859375E-08;-0,648468017578125;10;773;4,93967331945896E-07;-4,85581159591675E-07;100 nA
-0,70068359375;395,662457001048;-1,00311279296875E-07;-0,69842529296875;10;774;4,93967331945896E-07;-4,85581159591675E-07;100 nA
-0,750732421875;396,162944999785;-1,13677978515625E-07;-0,74835205078125;10;775;4,93967331945896E-07;-4,85581159591675E-07;100 nA
-0,80078125;396,663432998521;-1,17706298828125E-07;-0,7989501953125;10;776;4,93967331945896E-07;-4,85581159591675E-07;100 nA
-0,850830078125;397,163920997257;-1,1041259765625E-07;-0,84869384765625;10;777;4,93967331945896E-07;-4,85581159591675E-07;100 nA
-0,90087890625;397,664408995994;-1,0919189453125E-07;-0,8990478515625;10;778;4,93967331945896E-07;-4,85581159591675E-07;100 nA
-0,950927734375;398,16489699473;-1,16302490234375E-07;-0,94879150390625;10;779;4,93967331945896E-07;-4,85581159591675E-07;100 nA
-1,0009765625;398,665384993467;-9,04541015625E-08;-0,99884033203125;10;780;4,93967331945896E-07;-4,85581159591675E-07;100 nA
-0,950927734375;399,165872992203;-1,26922607421875E-08;-0,9490966796875;10;781;4,93967331945896E-07;-4,85581159591675E-07;100 nA
-0,90087890625;399,666360990939;-5,7159423828125E-09;-0,8990478515625;10;782;4,93967331945896E-07;-4,85581159591675E-07;100 nA
-0,850830078125;400,166848989676;-7,6080322265625E-09;-0,84869384765625;10;783;4,93967331945896E-07;-4,85581159591675E-07;100 nA
-0,80078125;400,667336988412;-1,33636474609375E-08;-0,7989501953125;10;784;4,93967331945896E-07;-4,85581159591675E-07;100 nA
-0,750732421875;401,167824987149;-3,826904296875E-09;-0,74853515625;10;785;4,93967331945896E-07;-4,85581159591675E-07;100 nA
-0,70068359375;401,668312985885;6,4727783203125E-09;-0,69854736328125;10;786;4,93967331945896E-07;-4,85581159591675E-07;100 nA
-0,650634765625;402,168800984621;1,7840576171875E-08;-0,648590087890625;10;787;4,93967331945896E-07;-4,85581159591675E-07;100 nA
-0,6005859375;402,669288983358;3,0908203125E-08;-0,598663330078125;10;788;4,93967331945896E-07;-4,85581159591675E-07;100 nA
-0,550537109375;403,169776982094;5,047607421875E-08;-0,548736572265625;10;789;4,93967331945896E-07;-4,85581159591675E-07;100 nA
-0,50048828125;403,670264980831;6,146240234375E-08;-0,498992919921875;10;790;4,93967331945896E-07;-4,85581159591675E-07;100 nA
-0,450439453125;404,170752979567;5,6640625E-08;-0,449005126953125;10;791;4,93967331945896E-07;-4,85581159591675E-07;100 nA
-0,400390625;404,671240978303;4,36798095703125E-08;-0,399169921875;10;792;4,93967331945896E-07;-4,85581159591675E-07;100 nA
-0,350341796875;405,17172897704;3,551025390625E-08;-0,349212646484375;10;793;4,93967331945896E-07;-4,85581159591675E-07;100 nA
-0,30029296875;405,672216975776;3,1109619140625E-08;-0,299285888671875;10;794;4,93967331945896E-07;-4,85581159591675E-07;100 nA
-0,250244140625;406,172704974513;2,8814697265625E-08;-0,249359130859375;10;795;4,93967331945896E-07;-4,85581159591675E-07;100 nA
-0,2001953125;406,673192973249;2,70751953125E-08;-0,199493408203125;10;796;4,93967331945896E-07;-4,85581159591675E-07;100 nA
-0,150146484375;407,173680971985;2,56500244140625E-08;-0,149627685546875;10;797;4,93967331945896E-07;-4,85581159591675E-07;100 nA
-0,10009765625;407,674168970722;2,518310546875E-08;-0,099761962890625;10;798;4,93967331945896E-07;-4,85581159591675E-07;100 nA
-0,050048828125;408,174656969458;2,49420166015625E-08;-0,04986572265625;10;799;4,93967331945896E-07;-4,85581159591675E-07;100 nA
0;408,675144968194;2,41607666015625E-08;0,000149536132812503;10;800;4,93967331945896E-07;-4,85581159591675E-07;100 nA
