Potential applied (V);Time (s);WE(1).Current (A);WE(1).Potential (V);Scan;Index;Q+;Q-;Current range
0,050048828125;7,37548798137868;5,01708984375E-09;0,05010986328125;1;1;3,4494224190712E-07;-4,74897671490908E-07;100 nA
0,10009765625;7,87597598011507;7,5347900390625E-09;0,10003662109375;1;2;3,4494224190712E-07;-4,74897671490908E-07;100 nA
0,150146484375;8,37646397885146;9,8358154296875E-09;0,150115966796875;1;3;3,4494224190712E-07;-4,74897671490908E-07;100 nA
0,2001953125;8,87695197758785;1,21795654296875E-08;0,200042724609375;1;4;3,4494224190712E-07;-4,74897671490908E-07;100 nA
0,250244140625;9,37743997632424;1,49078369140625E-08;0,25006103515625;1;5;3,4494224190712E-07;-4,74897671490908E-07;100 nA
0,30029296875;9,87792797506063;1,65435791015625E-08;0,300079345703125;1;6;3,4494224190712E-07;-4,74897671490908E-07;100 nA
0,350341796875;10,378415973797;2,02972412109375E-08;0,350006103515625;1;7;3,4494224190712E-07;-4,74897671490908E-07;100 nA
0,400390625;10,8789039725334;1,86614990234375E-08;0,40008544921875;1;8;3,4494224190712E-07;-4,74897671490908E-07;100 nA
0,450439453125;11,3793919712698;1,56341552734375E-08;0,450103759765625;1;9;3,4494224190712E-07;-4,74897671490908E-07;100 nA
0,50048828125;11,8798799700062;1,40350341796875E-08;0,5001220703125;1;10;3,4494224190712E-07;-4,74897671490908E-07;100 nA
0,550537109375;12,3803679687426;1,26922607421875E-08;0,55010986328125;1;11;3,4494224190712E-07;-4,74897671490908E-07;100 nA
0,6005859375;12,880855967479;1,08306884765625E-08;0,60015869140625;1;12;3,4494224190712E-07;-4,74897671490908E-07;100 nA
0,650634765625;13,3813439662154;9,0545654296875E-09;0,650054931640625;1;13;3,4494224190712E-07;-4,74897671490908E-07;100 nA
0,70068359375;13,8818319649517;7,8948974609375E-09;0,699920654296875;1;14;3,4494224190712E-07;-4,74897671490908E-07;100 nA
0,750732421875;14,3823199636881;7,18994140625E-09;0,74981689453125;1;15;3,4494224190712E-07;-4,74897671490908E-07;100 nA
0,80078125;14,8828079624245;6,781005859375E-09;0,79986572265625;1;16;3,4494224190712E-07;-4,74897671490908E-07;100 nA
0,850830078125;15,3832959611609;7,06787109375E-09;0,849609375;1;17;3,4494224190712E-07;-4,74897671490908E-07;100 nA
0,90087890625;15,8837839598973;7,6141357421875E-09;0,89935302734375;1;18;3,4494224190712E-07;-4,74897671490908E-07;100 nA
0,950927734375;16,3842719586337;8,43505859375E-09;0,94970703125;1;19;3,4494224190712E-07;-4,74897671490908E-07;100 nA
1,0009765625;16,8847599573701;9,3963623046875E-09;0,9991455078125;1;20;3,4494224190712E-07;-4,74897671490908E-07;100 nA
0,950927734375;17,3852479561065;4,2022705078125E-09;0,95001220703125;1;21;3,4494224190712E-07;-4,74897671490908E-07;100 nA
0,90087890625;17,8857359548429;2,314453125E-09;0,89996337890625;1;22;3,4494224190712E-07;-4,74897671490908E-07;100 nA
0,850830078125;18,3862239535792;1,4013671875E-09;0,84991455078125;1;23;3,4494224190712E-07;-4,74897671490908E-07;100 nA
0,80078125;18,8867119523156;9,28955078125E-10;0,79986572265625;1;24;3,4494224190712E-07;-4,74897671490908E-07;100 nA
0,750732421875;19,387199951052;6,06689453125001E-10;0,75;1;25;3,4494224190712E-07;-4,74897671490908E-07;100 nA
0,70068359375;19,8876879497884;4,0740966796875E-10;0,700042724609375;1;26;3,4494224190712E-07;-4,74897671490908E-07;100 nA
0,650634765625;20,3881759485248;1,6021728515625E-10;0,650177001953125;1;27;3,4494224190712E-07;-4,74897671490908E-07;100 nA
0,6005859375;20,8886639472612;-1,59912109375E-10;0,600189208984375;1;28;3,4494224190712E-07;-4,74897671490908E-07;100 nA
0,550537109375;21,3891519459976;-5,9051513671875E-10;0,550201416015625;1;29;3,4494224190712E-07;-4,74897671490908E-07;100 nA
0,50048828125;21,889639944734;-1,18865966796875E-09;0,50018310546875;1;30;3,4494224190712E-07;-4,74897671490908E-07;100 nA
0,450439453125;22,3901279434704;-2,0654296875E-09;0,4501953125;1;31;3,4494224190712E-07;-4,74897671490908E-07;100 nA
0,400390625;22,8906159422068;-3,385009765625E-09;0,400299072265625;1;32;3,4494224190712E-07;-4,74897671490908E-07;100 nA
0,350341796875;23,3911039409431;-5,1727294921875E-09;0,350250244140625;1;33;3,4494224190712E-07;-4,74897671490908E-07;100 nA
0,30029296875;23,8915919396795;-6,9854736328125E-09;0,300140380859375;1;34;3,4494224190712E-07;-4,74897671490908E-07;100 nA
0,250244140625;24,3920799384159;-8,59375E-09;0,250152587890625;1;35;3,4494224190712E-07;-4,74897671490908E-07;100 nA
0,2001953125;24,8925679371523;-1,07208251953125E-08;0,20013427734375;1;36;3,4494224190712E-07;-4,74897671490908E-07;100 nA
0,150146484375;25,3930559358887;-1,60064697265625E-08;0,150115966796875;1;37;3,4494224190712E-07;-4,74897671490908E-07;100 nA
0,10009765625;25,8935439346251;-1,98883056640625E-08;0,1002197265625;1;38;3,4494224190712E-07;-4,74897671490908E-07;100 nA
0,050048828125;26,3940319333615;-1,98333740234375E-08;0,0501708984375;1;39;3,4494224190712E-07;-4,74897671490908E-07;100 nA
0;26,8945199320979;-1,86187744140625E-08;0,000173950195312494;1;40;3,4494224190712E-07;-4,74897671490908E-07;100 nA
-0,050048828125;27,3950079308343;-1,77093505859375E-08;-0,0496734619140625;1;41;3,4494224190712E-07;-4,74897671490908E-07;100 nA
-0,10009765625;27,8954959295706;-1,71722412109375E-08;-0,099609375;1;42;3,4494224190712E-07;-4,74897671490908E-07;100 nA
-0,150146484375;28,395983928307;-1,737060546875E-08;-0,149505615234375;1;43;3,4494224190712E-07;-4,74897671490908E-07;100 nA
-0,2001953125;28,8964719270434;-1,80419921875E-08;-0,19940185546875;1;44;3,4494224190712E-07;-4,74897671490908E-07;100 nA
-0,250244140625;29,3969599257798;-1,94610595703125E-08;-0,24932861328125;1;45;3,4494224190712E-07;-4,74897671490908E-07;100 nA
-0,30029296875;29,8974479245162;-2,237548828125E-08;-0,29925537109375;1;46;3,4494224190712E-07;-4,74897671490908E-07;100 nA
-0,350341796875;30,3979359232526;-2,78411865234375E-08;-0,34912109375;1;47;3,4494224190712E-07;-4,74897671490908E-07;100 nA
-0,400390625;30,898423921989;-3,5687255859375E-08;-0,399017333984375;1;48;3,4494224190712E-07;-4,74897671490908E-07;100 nA
-0,450439453125;31,3989119207254;-4,434814453125E-08;-0,448883056640625;1;49;3,4494224190712E-07;-4,74897671490908E-07;100 nA
-0,50048828125;31,8993999194618;-5,1055908203125E-08;-0,498687744140625;1;50;3,4494224190712E-07;-4,74897671490908E-07;100 nA
-0,550537109375;32,3998879181981;-5,1910400390625E-08;-0,548675537109375;1;51;3,4494224190712E-07;-4,74897671490908E-07;100 nA
-0,6005859375;32,9003759169345;-5,2032470703125E-08;-0,598541259765625;1;52;3,4494224190712E-07;-4,74897671490908E-07;100 nA
-0,650634765625;33,4008639156709;-5,3558349609375E-08;-0,648468017578125;1;53;3,4494224190712E-07;-4,74897671490908E-07;100 nA
-0,70068359375;33,9013519144073;-5,517578125E-08;-0,698455810546875;1;54;3,4494224190712E-07;-4,74897671490908E-07;100 nA
-0,750732421875;34,4018399131437;-5,6640625E-08;-0,748443603515625;1;55;3,4494224190712E-07;-4,74897671490908E-07;100 nA
-0,80078125;34,9023279118801;-5,670166015625E-08;-0,79864501953125;1;56;3,4494224190712E-07;-4,74897671490908E-07;100 nA
-0,850830078125;35,4028159106165;-5,4412841796875E-08;-0,848388671875;1;57;3,4494224190712E-07;-4,74897671490908E-07;100 nA
-0,90087890625;35,9033039093529;-5,145263671875E-08;-0,8990478515625;1;58;3,4494224190712E-07;-4,74897671490908E-07;100 nA
-0,950927734375;36,4037919080893;-4,9407958984375E-08;-0,948486328125;1;59;3,4494224190712E-07;-4,74897671490908E-07;100 nA
-1,0009765625;36,9042799068257;-5,023193359375E-08;-0,99884033203125;1;60;3,4494224190712E-07;-4,74897671490908E-07;100 nA
-0,950927734375;37,404767905562;-2,2991943359375E-08;-0,9490966796875;1;61;3,4494224190712E-07;-4,74897671490908E-07;100 nA
-0,90087890625;37,9052559042984;-9,0362548828125E-09;-0,89813232421875;1;62;3,4494224190712E-07;-4,74897671490908E-07;100 nA
-0,850830078125;38,4057439030348;-1,04339599609375E-09;-0,8489990234375;1;63;3,4494224190712E-07;-4,74897671490908E-07;100 nA
-0,80078125;38,9062319017712;4,2327880859375E-09;-0,7989501953125;1;64;3,4494224190712E-07;-4,74897671490908E-07;100 nA
-0,750732421875;39,4067199005076;8,19091796875E-09;-0,74871826171875;1;65;3,4494224190712E-07;-4,74897671490908E-07;100 nA
-0,70068359375;39,907207899244;1,1383056640625E-08;-0,698699951171875;1;66;3,4494224190712E-07;-4,74897671490908E-07;100 nA
-0,650634765625;40,4076958979804;1,40411376953125E-08;-0,648681640625;1;67;3,4494224190712E-07;-4,74897671490908E-07;100 nA
-0,6005859375;40,9081838967168;1,63177490234375E-08;-0,5987548828125;1;68;3,4494224190712E-07;-4,74897671490908E-07;100 nA
-0,550537109375;41,4086718954532;1,85638427734375E-08;-0,548858642578125;1;69;3,4494224190712E-07;-4,74897671490908E-07;100 nA
-0,50048828125;41,9091598941895;2,1124267578125E-08;-0,498931884765625;1;70;3,4494224190712E-07;-4,74897671490908E-07;100 nA
-0,450439453125;42,4096478929259;2,49053955078125E-08;-0,449066162109375;1;71;3,4494224190712E-07;-4,74897671490908E-07;100 nA
-0,400390625;42,9101358916623;3,18023681640625E-08;-0,399200439453125;1;72;3,4494224190712E-07;-4,74897671490908E-07;100 nA
-0,350341796875;43,4106238903987;3,89984130859375E-08;-0,34930419921875;1;73;3,4494224190712E-07;-4,74897671490908E-07;100 nA
-0,30029296875;43,9111118891351;4,29473876953125E-08;-0,2994384765625;1;74;3,4494224190712E-07;-4,74897671490908E-07;100 nA
-0,250244140625;44,4115998878715;4,46014404296875E-08;-0,249481201171875;1;75;3,4494224190712E-07;-4,74897671490908E-07;100 nA
-0,2001953125;44,9120878866079;4,39910888671875E-08;-0,199615478515625;1;76;3,4494224190712E-07;-4,74897671490908E-07;100 nA
-0,150146484375;45,4125758853443;3,93463134765625E-08;-0,14971923828125;1;77;3,4494224190712E-07;-4,74897671490908E-07;100 nA
-0,10009765625;45,9130638840807;3,548583984375E-08;-0,099822998046875;1;78;3,4494224190712E-07;-4,74897671490908E-07;100 nA
-0,050048828125;46,413551882817;3,21563720703125E-08;-0,0499267578125;1;79;3,4494224190712E-07;-4,74897671490908E-07;100 nA
0;46,9140398815534;2,9498291015625E-08;7,93457031249972E-05;1;80;3,4494224190712E-07;-4,74897671490908E-07;100 nA
0,050048828125;47,4145278802898;2,74200439453125E-08;0,0499267578125;2;81;4,15474005043507E-07;-4,29826997220516E-07;100 nA
0,10009765625;47,9150158790262;2,5836181640625E-08;0,100006103515625;2;82;4,15474005043507E-07;-4,29826997220516E-07;100 nA
0,150146484375;48,4155038777626;2,4920654296875E-08;0,149993896484375;2;83;4,15474005043507E-07;-4,29826997220516E-07;100 nA
0,2001953125;48,915991876499;2,45849609375E-08;0,199981689453125;2;84;4,15474005043507E-07;-4,29826997220516E-07;100 nA
0,250244140625;49,4164798752354;2,46337890625E-08;0,249969482421875;2;85;4,15474005043507E-07;-4,29826997220516E-07;100 nA
0,30029296875;49,9169678739718;2,457275390625E-08;0,29998779296875;2;86;4,15474005043507E-07;-4,29826997220516E-07;100 nA
0,350341796875;50,4174558727082;2,647705078125E-08;0,35009765625;2;87;4,15474005043507E-07;-4,29826997220516E-07;100 nA
0,400390625;50,9179438714446;2,31048583984375E-08;0,4000244140625;2;88;4,15474005043507E-07;-4,29826997220516E-07;100 nA
0,450439453125;51,4184318701809;2,01202392578125E-08;0,450103759765625;2;89;4,15474005043507E-07;-4,29826997220516E-07;100 nA
0,50048828125;51,9189198689173;1,763916015625E-08;0,500091552734375;2;90;4,15474005043507E-07;-4,29826997220516E-07;100 nA
0,550537109375;52,4194078676537;1,571044921875E-08;0,5501708984375;2;91;4,15474005043507E-07;-4,29826997220516E-07;100 nA
0,6005859375;52,9198958663901;1,42547607421875E-08;0,600067138671875;2;92;4,15474005043507E-07;-4,29826997220516E-07;100 nA
0,650634765625;53,4203838651265;1,307373046875E-08;0,6500244140625;2;93;4,15474005043507E-07;-4,29826997220516E-07;100 nA
0,70068359375;53,9208718638629;1,2188720703125E-08;0,699920654296875;2;94;4,15474005043507E-07;-4,29826997220516E-07;100 nA
0,750732421875;54,4213598625993;1,13311767578125E-08;0,74981689453125;2;95;4,15474005043507E-07;-4,29826997220516E-07;100 nA
0,80078125;54,9218478613357;1,09588623046875E-08;0,80047607421875;2;96;4,15474005043507E-07;-4,29826997220516E-07;100 nA
0,850830078125;55,4223358600721;1,10687255859375E-08;0,84991455078125;2;97;4,15474005043507E-07;-4,29826997220516E-07;100 nA
0,90087890625;55,9228238588084;1,136474609375E-08;0,899658203125;2;98;4,15474005043507E-07;-4,29826997220516E-07;100 nA
0,950927734375;56,4233118575448;1,195068359375E-08;0,94970703125;2;99;4,15474005043507E-07;-4,29826997220516E-07;100 nA
1,0009765625;56,9237998562812;1,2890625E-08;0,999755859375;2;100;4,15474005043507E-07;-4,29826997220516E-07;100 nA
0,950927734375;57,4242878550176;6,5948486328125E-09;0,95001220703125;2;101;4,15474005043507E-07;-4,29826997220516E-07;100 nA
0,90087890625;57,924775853754;4,1168212890625E-09;0,89996337890625;2;102;4,15474005043507E-07;-4,29826997220516E-07;100 nA
0,850830078125;58,4252638524904;2,86376953125E-09;0,84991455078125;2;103;4,15474005043507E-07;-4,29826997220516E-07;100 nA
0,80078125;58,9257518512268;2,19512939453125E-09;0,80047607421875;2;104;4,15474005043507E-07;-4,29826997220516E-07;100 nA
0,750732421875;59,4262398499632;1,69921875E-09;0,750030517578125;2;105;4,15474005043507E-07;-4,29826997220516E-07;100 nA
0,70068359375;59,9267278486996;1,375732421875E-09;0,700042724609375;2;106;4,15474005043507E-07;-4,29826997220516E-07;100 nA
0,650634765625;60,4272158474359;1,0516357421875E-09;0,650177001953125;2;107;4,15474005043507E-07;-4,29826997220516E-07;100 nA
0,6005859375;60,9277038461723;7,2601318359375E-10;0,600189208984375;2;108;4,15474005043507E-07;-4,29826997220516E-07;100 nA
0,550537109375;61,4281918449087;2,92053222656249E-10;0,550262451171875;2;109;4,15474005043507E-07;-4,29826997220516E-07;100 nA
0,50048828125;61,9286798436451;-2,57568359375E-10;0,50018310546875;2;110;4,15474005043507E-07;-4,29826997220516E-07;100 nA
0,450439453125;62,4291678423815;-1,02294921875E-09;0,450164794921875;2;111;4,15474005043507E-07;-4,29826997220516E-07;100 nA
0,400390625;62,9296558411179;-2,13836669921875E-09;0,400177001953125;2;112;4,15474005043507E-07;-4,29826997220516E-07;100 nA
0,350341796875;63,4301438398543;-3,66912841796875E-09;0,350250244140625;2;113;4,15474005043507E-07;-4,29826997220516E-07;100 nA
0,30029296875;63,9306318385907;-5,28564453125E-09;0,300140380859375;2;114;4,15474005043507E-07;-4,29826997220516E-07;100 nA
0,250244140625;64,4311198373271;-6,7291259765625E-09;0,250091552734375;2;115;4,15474005043507E-07;-4,29826997220516E-07;100 nA
0,2001953125;64,9316078360634;-8,63037109375E-09;0,200103759765625;2;116;4,15474005043507E-07;-4,29826997220516E-07;100 nA
0,150146484375;65,4320958347998;-1,298828125E-08;0,150146484375;2;117;4,15474005043507E-07;-4,29826997220516E-07;100 nA
0,10009765625;65,9325838335362;-1,73675537109375E-08;0,1002197265625;2;118;4,15474005043507E-07;-4,29826997220516E-07;100 nA
0,050048828125;66,4330718322726;-1,79931640625E-08;0,0501708984375;2;119;4,15474005043507E-07;-4,29826997220516E-07;100 nA
0;66,933559831009;-1,7047119140625E-08;0,000189208984374994;2;120;4,15474005043507E-07;-4,29826997220516E-07;100 nA
-0,050048828125;67,4340478297454;-1,62353515625E-08;-0,0496856689453125;2;121;4,15474005043507E-07;-4,29826997220516E-07;100 nA
-0,10009765625;67,9345358284818;-1,588134765625E-08;-0,099639892578125;2;122;4,15474005043507E-07;-4,29826997220516E-07;100 nA
-0,150146484375;68,4350238272182;-1,61102294921875E-08;-0,149444580078125;2;123;4,15474005043507E-07;-4,29826997220516E-07;100 nA
-0,2001953125;68,9355118259546;-1,68121337890625E-08;-0,199371337890625;2;124;4,15474005043507E-07;-4,29826997220516E-07;100 nA
-0,250244140625;69,435999824691;-1,81488037109375E-08;-0,249298095703125;2;125;4,15474005043507E-07;-4,29826997220516E-07;100 nA
-0,30029296875;69,9364878234273;-2,0684814453125E-08;-0,299224853515625;2;126;4,15474005043507E-07;-4,29826997220516E-07;100 nA
-0,350341796875;70,4369758221637;-2,55523681640625E-08;-0,349151611328125;2;127;4,15474005043507E-07;-4,29826997220516E-07;100 nA
-0,400390625;70,9374638209001;-3,30230712890625E-08;-0,399017333984375;2;128;4,15474005043507E-07;-4,29826997220516E-07;100 nA
-0,450439453125;71,4379518196365;-4,0948486328125E-08;-0,448883056640625;2;129;4,15474005043507E-07;-4,29826997220516E-07;100 nA
-0,50048828125;71,9384398183729;-4,80224609375E-08;-0,49871826171875;2;130;4,15474005043507E-07;-4,29826997220516E-07;100 nA
-0,550537109375;72,4389278171093;-4,7003173828125E-08;-0,548614501953125;2;131;4,15474005043507E-07;-4,29826997220516E-07;100 nA
-0,6005859375;72,9394158158457;-4,9560546875E-08;-0,598541259765625;2;132;4,15474005043507E-07;-4,29826997220516E-07;100 nA
-0,650634765625;73,4399038145821;-5,084228515625E-08;-0,648468017578125;2;133;4,15474005043507E-07;-4,29826997220516E-07;100 nA
-0,70068359375;73,9403918133185;-5,194091796875E-08;-0,698486328125;2;134;4,15474005043507E-07;-4,29826997220516E-07;100 nA
-0,750732421875;74,4408798120548;-5,2337646484375E-08;-0,74853515625;2;135;4,15474005043507E-07;-4,29826997220516E-07;100 nA
-0,80078125;74,9413678107912;-5,072021484375E-08;-0,7989501953125;2;136;4,15474005043507E-07;-4,29826997220516E-07;100 nA
-0,850830078125;75,4418558095276;-4,80377197265625E-08;-0,8489990234375;2;137;4,15474005043507E-07;-4,29826997220516E-07;100 nA
-0,90087890625;75,942343808264;-4,5684814453125E-08;-0,89874267578125;2;138;4,15474005043507E-07;-4,29826997220516E-07;100 nA
-0,950927734375;76,4428318070004;-4,4482421875E-08;-0,9490966796875;2;139;4,15474005043507E-07;-4,29826997220516E-07;100 nA
-1,0009765625;76,9433198057368;-4,62127685546875E-08;-0,99884033203125;2;140;4,15474005043507E-07;-4,29826997220516E-07;100 nA
-0,950927734375;77,4438078044732;-2,01873779296875E-08;-0,9490966796875;2;141;4,15474005043507E-07;-4,29826997220516E-07;100 nA
-0,90087890625;77,9442958032096;-7,257080078125E-09;-0,8984375;2;142;4,15474005043507E-07;-4,29826997220516E-07;100 nA
-0,850830078125;78,444783801946;3,2012939453125E-10;-0,84869384765625;2;143;4,15474005043507E-07;-4,29826997220516E-07;100 nA
-0,80078125;78,9452718006823;5,3497314453125E-09;-0,79864501953125;2;144;4,15474005043507E-07;-4,29826997220516E-07;100 nA
-0,750732421875;79,4457597994187;9,0301513671875E-09;-0,74871826171875;2;145;4,15474005043507E-07;-4,29826997220516E-07;100 nA
-0,70068359375;79,9462477981551;1,1932373046875E-08;-0,698699951171875;2;146;4,15474005043507E-07;-4,29826997220516E-07;100 nA
-0,650634765625;80,4467357968915;1,43310546875E-08;-0,648712158203125;2;147;4,15474005043507E-07;-4,29826997220516E-07;100 nA
-0,6005859375;80,9472237956279;1,6400146484375E-08;-0,598724365234375;2;148;4,15474005043507E-07;-4,29826997220516E-07;100 nA
-0,550537109375;81,4477117943643;1,84722900390625E-08;-0,548828125;2;149;4,15474005043507E-07;-4,29826997220516E-07;100 nA
-0,50048828125;81,9481997931007;2,0904541015625E-08;-0,498931884765625;2;150;4,15474005043507E-07;-4,29826997220516E-07;100 nA
-0,450439453125;82,4486877918371;2,43682861328125E-08;-0,449066162109375;2;151;4,15474005043507E-07;-4,29826997220516E-07;100 nA
-0,400390625;82,9491757905735;3,0523681640625E-08;-0,399200439453125;2;152;4,15474005043507E-07;-4,29826997220516E-07;100 nA
-0,350341796875;83,4496637893099;3,73626708984375E-08;-0,349273681640625;2;153;4,15474005043507E-07;-4,29826997220516E-07;100 nA
-0,30029296875;83,9501517880462;4,1461181640625E-08;-0,29937744140625;2;154;4,15474005043507E-07;-4,29826997220516E-07;100 nA
-0,250244140625;84,4506397867826;4,312744140625E-08;-0,24951171875;2;155;4,15474005043507E-07;-4,29826997220516E-07;100 nA
-0,2001953125;84,951127785519;4,248046875E-08;-0,1995849609375;2;156;4,15474005043507E-07;-4,29826997220516E-07;100 nA
-0,150146484375;85,4516157842554;3,753662109375E-08;-0,149658203125;2;157;4,15474005043507E-07;-4,29826997220516E-07;100 nA
-0,10009765625;85,9521037829918;3,355712890625E-08;-0,09979248046875;2;158;4,15474005043507E-07;-4,29826997220516E-07;100 nA
-0,050048828125;86,4525917817282;3,0267333984375E-08;-0,0499267578125;2;159;4,15474005043507E-07;-4,29826997220516E-07;100 nA
0;86,9530797804646;2,76947021484375E-08;9,76562499999944E-05;2;160;4,15474005043507E-07;-4,29826997220516E-07;100 nA
0,050048828125;87,453567779201;2,57232666015625E-08;0,050018310546875;3;161;3,95360693335533E-07;-4,06031657010317E-07;100 nA
0,10009765625;87,9540557779374;2,431640625E-08;0,10003662109375;3;162;3,95360693335533E-07;-4,06031657010317E-07;100 nA
0,150146484375;88,4545437766737;2,3492431640625E-08;0,1500244140625;3;163;3,95360693335533E-07;-4,06031657010317E-07;100 nA
0,2001953125;88,9550317754101;2,31903076171875E-08;0,20001220703125;3;164;3,95360693335533E-07;-4,06031657010317E-07;100 nA
0,250244140625;89,4555197741465;2,27691650390625E-08;0,250030517578125;3;165;3,95360693335533E-07;-4,06031657010317E-07;100 nA
0,30029296875;89,9560077728829;2,31109619140625E-08;0,300048828125;3;166;3,95360693335533E-07;-4,06031657010317E-07;100 nA
0,350341796875;90,4564957716193;2,3187255859375E-08;0,35009765625;3;167;3,95360693335533E-07;-4,06031657010317E-07;100 nA
0,400390625;90,9569837703557;1,9342041015625E-08;0,400115966796875;3;168;3,95360693335533E-07;-4,06031657010317E-07;100 nA
0,450439453125;91,4574717690921;1,7071533203125E-08;0,4500732421875;3;169;3,95360693335533E-07;-4,06031657010317E-07;100 nA
0,50048828125;91,9579597678285;1,53228759765625E-08;0,500091552734375;3;170;3,95360693335533E-07;-4,06031657010317E-07;100 nA
0,550537109375;92,4584477665649;1,36138916015625E-08;0,550079345703125;3;171;3,95360693335533E-07;-4,06031657010317E-07;100 nA
0,6005859375;92,9589357653012;1,23565673828125E-08;0,600067138671875;3;172;3,95360693335533E-07;-4,06031657010317E-07;100 nA
0,650634765625;93,4594237640376;1,151123046875E-08;0,650054931640625;3;173;3,95360693335533E-07;-4,06031657010317E-07;100 nA
0,70068359375;93,959911762774;1,07940673828125E-08;0,69989013671875;3;174;3,95360693335533E-07;-4,06031657010317E-07;100 nA
0,750732421875;94,4603997615104;1,05926513671875E-08;0,74981689453125;3;175;3,95360693335533E-07;-4,06031657010317E-07;100 nA
0,80078125;94,9608877602468;1,070556640625E-08;0,8001708984375;3;176;3,95360693335533E-07;-4,06031657010317E-07;100 nA
0,850830078125;95,4613757589832;1,09619140625E-08;0,849609375;3;177;3,95360693335533E-07;-4,06031657010317E-07;100 nA
0,90087890625;95,9618637577196;1,16363525390625E-08;0,89996337890625;3;178;3,95360693335533E-07;-4,06031657010317E-07;100 nA
0,950927734375;96,462351756456;1,23809814453125E-08;0,94970703125;3;179;3,95360693335533E-07;-4,06031657010317E-07;100 nA
1,0009765625;96,9628397551924;1,3385009765625E-08;0,999755859375;3;180;3,95360693335533E-07;-4,06031657010317E-07;100 nA
0,950927734375;97,4633277539288;6,793212890625E-09;0,94970703125;3;181;3,95360693335533E-07;-4,06031657010317E-07;100 nA
0,90087890625;97,9638157526651;4,1717529296875E-09;0,89996337890625;3;182;3,95360693335533E-07;-4,06031657010317E-07;100 nA
0,850830078125;98,4643037514015;2,889404296875E-09;0,8502197265625;3;183;3,95360693335533E-07;-4,06031657010317E-07;100 nA
0,80078125;98,9647917501379;2,098388671875E-09;0,79986572265625;3;184;3,95360693335533E-07;-4,06031657010317E-07;100 nA
0,750732421875;99,4652797488743;1,69464111328125E-09;0,749969482421875;3;185;3,95360693335533E-07;-4,06031657010317E-07;100 nA
0,70068359375;99,9657677476107;1,34979248046875E-09;0,699981689453125;3;186;3,95360693335533E-07;-4,06031657010317E-07;100 nA
0,650634765625;100,466255746347;1,09222412109375E-09;0,650146484375;3;187;3,95360693335533E-07;-4,06031657010317E-07;100 nA
0,6005859375;100,966743745083;7,63549804687499E-10;0,600189208984375;3;188;3,95360693335533E-07;-4,06031657010317E-07;100 nA
0,550537109375;101,46723174382;3,65295410156249E-10;0,5501708984375;3;189;3,95360693335533E-07;-4,06031657010317E-07;100 nA
0,50048828125;101,967719742556;-1,10778808593751E-10;0,500152587890625;3;190;3,95360693335533E-07;-4,06031657010317E-07;100 nA
0,450439453125;102,468207741293;-7,7056884765625E-10;0,450164794921875;3;191;3,95360693335533E-07;-4,06031657010317E-07;100 nA
0,400390625;102,968695740029;-1,70379638671875E-09;0,400177001953125;3;192;3,95360693335533E-07;-4,06031657010317E-07;100 nA
0,350341796875;103,469183738765;-2,9547119140625E-09;0,35015869140625;3;193;3,95360693335533E-07;-4,06031657010317E-07;100 nA
0,30029296875;103,969671737502;-4,35791015625E-09;0,30023193359375;3;194;3,95360693335533E-07;-4,06031657010317E-07;100 nA
0,250244140625;104,470159736238;-5,6488037109375E-09;0,250091552734375;3;195;3,95360693335533E-07;-4,06031657010317E-07;100 nA
0,2001953125;104,970647734975;-7,32421875E-09;0,200164794921875;3;196;3,95360693335533E-07;-4,06031657010317E-07;100 nA
0,150146484375;105,471135733711;-1,10382080078125E-08;0,150177001953125;3;197;3,95360693335533E-07;-4,06031657010317E-07;100 nA
0,10009765625;105,971623732447;-1,57623291015625E-08;0,10015869140625;3;198;3,95360693335533E-07;-4,06031657010317E-07;100 nA
0,050048828125;106,472111731184;-1,64520263671875E-08;0,050140380859375;3;199;3,95360693335533E-07;-4,06031657010317E-07;100 nA
0;106,97259972992;-1,5802001953125E-08;0,0001983642578125;3;200;3,95360693335533E-07;-4,06031657010317E-07;100 nA
-0,050048828125;107,473087728657;-1,5203857421875E-08;-0,0496856689453125;3;201;3,95360693335533E-07;-4,06031657010317E-07;100 nA
-0,10009765625;107,973575727393;-1,505126953125E-08;-0,099639892578125;3;202;3,95360693335533E-07;-4,06031657010317E-07;100 nA
-0,150146484375;108,474063726129;-1,53961181640625E-08;-0,149566650390625;3;203;3,95360693335533E-07;-4,06031657010317E-07;100 nA
-0,2001953125;108,974551724866;-1,6107177734375E-08;-0,199371337890625;3;204;3,95360693335533E-07;-4,06031657010317E-07;100 nA
-0,250244140625;109,475039723602;-1,73828125E-08;-0,249267578125;3;205;3,95360693335533E-07;-4,06031657010317E-07;100 nA
-0,30029296875;109,975527722338;-1,9610595703125E-08;-0,29925537109375;3;206;3,95360693335533E-07;-4,06031657010317E-07;100 nA
-0,350341796875;110,476015721075;-2,3773193359375E-08;-0,34912109375;3;207;3,95360693335533E-07;-4,06031657010317E-07;100 nA
-0,400390625;110,976503719811;-3,06549072265625E-08;-0,398956298828125;3;208;3,95360693335533E-07;-4,06031657010317E-07;100 nA
-0,450439453125;111,476991718548;-3,9044189453125E-08;-0,4488525390625;3;209;3,95360693335533E-07;-4,06031657010317E-07;100 nA
-0,50048828125;111,977479717284;-4,564208984375E-08;-0,498779296875;3;210;3,95360693335533E-07;-4,06031657010317E-07;100 nA
-0,550537109375;112,47796771602;-4,549560546875E-08;-0,548614501953125;3;211;3,95360693335533E-07;-4,06031657010317E-07;100 nA
-0,6005859375;112,978455714757;-4,80316162109375E-08;-0,5985107421875;3;212;3,95360693335533E-07;-4,06031657010317E-07;100 nA
-0,650634765625;113,478943713493;-4,925537109375E-08;-0,648529052734375;3;213;3,95360693335533E-07;-4,06031657010317E-07;100 nA
-0,70068359375;113,97943171223;-5,0018310546875E-08;-0,698486328125;3;214;3,95360693335533E-07;-4,06031657010317E-07;100 nA
-0,750732421875;114,479919710966;-4,96826171875E-08;-0,748504638671875;3;215;3,95360693335533E-07;-4,06031657010317E-07;100 nA
-0,80078125;114,980407709702;-4,76348876953125E-08;-0,79833984375;3;216;3,95360693335533E-07;-4,06031657010317E-07;100 nA
-0,850830078125;115,480895708439;-4,5404052734375E-08;-0,848388671875;3;217;3,95360693335533E-07;-4,06031657010317E-07;100 nA
-0,90087890625;115,981383707175;-4,349365234375E-08;-0,89874267578125;3;218;3,95360693335533E-07;-4,06031657010317E-07;100 nA
-0,950927734375;116,481871705912;-4,2669677734375E-08;-0,948486328125;3;219;3,95360693335533E-07;-4,06031657010317E-07;100 nA
-1,0009765625;116,982359704648;-4,44427490234375E-08;-0,9991455078125;3;220;3,95360693335533E-07;-4,06031657010317E-07;100 nA
-0,950927734375;117,482847703384;-1,8939208984375E-08;-0,94879150390625;3;221;3,95360693335533E-07;-4,06031657010317E-07;100 nA
-0,90087890625;117,983335702121;-6,4117431640625E-09;-0,8984375;3;222;3,95360693335533E-07;-4,06031657010317E-07;100 nA
-0,850830078125;118,483823700857;8,636474609375E-10;-0,848388671875;3;223;3,95360693335533E-07;-4,06031657010317E-07;100 nA
-0,80078125;118,984311699593;5,682373046875E-09;-0,79864501953125;3;224;3,95360693335533E-07;-4,06031657010317E-07;100 nA
-0,750732421875;119,48479969833;9,1888427734375E-09;-0,7486572265625;3;225;3,95360693335533E-07;-4,06031657010317E-07;100 nA
-0,70068359375;119,985287697066;1,2005615234375E-08;-0,698638916015625;3;226;3,95360693335533E-07;-4,06031657010317E-07;100 nA
-0,650634765625;120,485775695803;1,43218994140625E-08;-0,648681640625;3;227;3,95360693335533E-07;-4,06031657010317E-07;100 nA
-0,6005859375;120,986263694539;1,6302490234375E-08;-0,598724365234375;3;228;3,95360693335533E-07;-4,06031657010317E-07;100 nA
-0,550537109375;121,486751693275;1,83074951171875E-08;-0,548858642578125;3;229;3,95360693335533E-07;-4,06031657010317E-07;100 nA
-0,50048828125;121,987239692012;2,06512451171875E-08;-0,498992919921875;3;230;3,95360693335533E-07;-4,06031657010317E-07;100 nA
-0,450439453125;122,487727690748;2,3980712890625E-08;-0,449066162109375;3;231;3,95360693335533E-07;-4,06031657010317E-07;100 nA
-0,400390625;122,988215689485;2,96722412109375E-08;-0,399200439453125;3;232;3,95360693335533E-07;-4,06031657010317E-07;100 nA
-0,350341796875;123,488703688221;3,62091064453125E-08;-0,34930419921875;3;233;3,95360693335533E-07;-4,06031657010317E-07;100 nA
-0,30029296875;123,989191686957;4,02984619140625E-08;-0,29937744140625;3;234;3,95360693335533E-07;-4,06031657010317E-07;100 nA
-0,250244140625;124,489679685694;4,1937255859375E-08;-0,24945068359375;3;235;3,95360693335533E-07;-4,06031657010317E-07;100 nA
-0,2001953125;124,99016768443;4,110107421875E-08;-0,1995849609375;3;236;3,95360693335533E-07;-4,06031657010317E-07;100 nA
-0,150146484375;125,490655683167;3,58551025390625E-08;-0,149688720703125;3;237;3,95360693335533E-07;-4,06031657010317E-07;100 nA
-0,10009765625;125,991143681903;3,18634033203125E-08;-0,099822998046875;3;238;3,95360693335533E-07;-4,06031657010317E-07;100 nA
-0,050048828125;126,491631680639;2,87017822265625E-08;-0,049896240234375;3;239;3,95360693335533E-07;-4,06031657010317E-07;100 nA
0;126,992119679376;2,6324462890625E-08;8,85009765625028E-05;3;240;3,95360693335533E-07;-4,06031657010317E-07;100 nA
0,050048828125;127,492607678112;2,44354248046875E-08;0,050018310546875;4;241;3,78510605543852E-07;-3,8806277140975E-07;100 nA
0,10009765625;127,993095676849;2,3291015625E-08;0,10003662109375;4;242;3,78510605543852E-07;-3,8806277140975E-07;100 nA
0,150146484375;128,493583675585;2,25677490234375E-08;0,150054931640625;4;243;3,78510605543852E-07;-3,8806277140975E-07;100 nA
0,2001953125;128,994071674321;2,22503662109375E-08;0,20001220703125;4;244;3,78510605543852E-07;-3,8806277140975E-07;100 nA
0,250244140625;129,494559673058;2,17864990234375E-08;0,25;4;245;3,78510605543852E-07;-3,8806277140975E-07;100 nA
0,30029296875;129,995047671794;2,1600341796875E-08;0,300048828125;4;246;3,78510605543852E-07;-3,8806277140975E-07;100 nA
0,350341796875;130,49553567053;2,00469970703125E-08;0,350006103515625;4;247;3,78510605543852E-07;-3,8806277140975E-07;100 nA
0,400390625;130,996023669267;1,70654296875E-08;0,400115966796875;4;248;3,78510605543852E-07;-3,8806277140975E-07;100 nA
0,450439453125;131,496511668003;1,5069580078125E-08;0,4500732421875;4;249;3,78510605543852E-07;-3,8806277140975E-07;100 nA
0,50048828125;131,99699966674;1,35223388671875E-08;0,500030517578125;4;250;3,78510605543852E-07;-3,8806277140975E-07;100 nA
0,550537109375;132,497487665476;1,20208740234375E-08;0,550079345703125;4;251;3,78510605543852E-07;-3,8806277140975E-07;100 nA
0,6005859375;132,997975664212;1,09466552734375E-08;0,600067138671875;4;252;3,78510605543852E-07;-3,8806277140975E-07;100 nA
0,650634765625;133,498463662949;1,01898193359375E-08;0,650054931640625;4;253;3,78510605543852E-07;-3,8806277140975E-07;100 nA
0,70068359375;133,998951661685;9,6221923828125E-09;0,699981689453125;4;254;3,78510605543852E-07;-3,8806277140975E-07;100 nA
0,750732421875;134,499439660422;9,6160888671875E-09;0,749847412109375;4;255;3,78510605543852E-07;-3,8806277140975E-07;100 nA
0,80078125;134,999927659158;9,99755859375E-09;0,8001708984375;4;256;3,78510605543852E-07;-3,8806277140975E-07;100 nA
0,850830078125;135,500415657894;1,0546875E-08;0,8502197265625;4;257;3,78510605543852E-07;-3,8806277140975E-07;100 nA
0,90087890625;136,000903656631;1,1431884765625E-08;0,89935302734375;4;258;3,78510605543852E-07;-3,8806277140975E-07;100 nA
0,950927734375;136,501391655367;1,23748779296875E-08;0,95001220703125;4;259;3,78510605543852E-07;-3,8806277140975E-07;100 nA
1,0009765625;137,001879654104;1,3482666015625E-08;0,999755859375;4;260;3,78510605543852E-07;-3,8806277140975E-07;100 nA
0,950927734375;137,50236765284;6,8878173828125E-09;0,94970703125;4;261;3,78510605543852E-07;-3,8806277140975E-07;100 nA
0,90087890625;138,002855651576;4,0985107421875E-09;0,9002685546875;4;262;3,78510605543852E-07;-3,8806277140975E-07;100 nA
0,850830078125;138,503343650313;2,6971435546875E-09;0,849609375;4;263;3,78510605543852E-07;-3,8806277140975E-07;100 nA
0,80078125;139,003831649049;1,99127197265625E-09;0,79986572265625;4;264;3,78510605543852E-07;-3,8806277140975E-07;100 nA
0,750732421875;139,504319647785;1,5899658203125E-09;0,749969482421875;4;265;3,78510605543852E-07;-3,8806277140975E-07;100 nA
0,70068359375;140,004807646522;1,24359130859375E-09;0,700042724609375;4;266;3,78510605543852E-07;-3,8806277140975E-07;100 nA
0,650634765625;140,505295645258;9,9273681640625E-10;0,650177001953125;4;267;3,78510605543852E-07;-3,8806277140975E-07;100 nA
0,6005859375;141,005783643995;7,4493408203125E-10;0,600250244140625;4;268;3,78510605543852E-07;-3,8806277140975E-07;100 nA
0,550537109375;141,506271642731;4,08020019531249E-10;0,5501708984375;4;269;3,78510605543852E-07;-3,8806277140975E-07;100 nA
0,50048828125;142,006759641467;-4,54711914062503E-11;0,500152587890625;4;270;3,78510605543852E-07;-3,8806277140975E-07;100 nA
0,450439453125;142,507247640204;-6,0272216796875E-10;0,450103759765625;4;271;3,78510605543852E-07;-3,8806277140975E-07;100 nA
0,400390625;143,00773563894;-1,3751220703125E-09;0,40020751953125;4;272;3,78510605543852E-07;-3,8806277140975E-07;100 nA
0,350341796875;143,508223637677;-2,4530029296875E-09;0,350189208984375;4;273;3,78510605543852E-07;-3,8806277140975E-07;100 nA
0,30029296875;144,008711636413;-3,69232177734375E-09;0,3001708984375;4;274;3,78510605543852E-07;-3,8806277140975E-07;100 nA
0,250244140625;144,509199635149;-4,8736572265625E-09;0,250152587890625;4;275;3,78510605543852E-07;-3,8806277140975E-07;100 nA
0,2001953125;145,009687633886;-6,35986328125E-09;0,200103759765625;4;276;3,78510605543852E-07;-3,8806277140975E-07;100 nA
0,150146484375;145,510175632622;-9,661865234375E-09;0,150146484375;4;277;3,78510605543852E-07;-3,8806277140975E-07;100 nA
0,10009765625;146,010663631359;-1,468505859375E-08;0,10015869140625;4;278;3,78510605543852E-07;-3,8806277140975E-07;100 nA
0,050048828125;146,511151630095;-1,53717041015625E-08;0,050140380859375;4;279;3,78510605543852E-07;-3,8806277140975E-07;100 nA
0;147,011639628831;-1,4892578125E-08;0,000186157226562497;4;280;3,78510605543852E-07;-3,8806277140975E-07;100 nA
-0,050048828125;147,512127627568;-1,44622802734375E-08;-0,0496917724609375;4;281;3,78510605543852E-07;-3,8806277140975E-07;100 nA
-0,10009765625;148,012615626304;-1,4471435546875E-08;-0,099639892578125;4;282;3,78510605543852E-07;-3,8806277140975E-07;100 nA
-0,150146484375;148,51310362504;-1,488037109375E-08;-0,1495361328125;4;283;3,78510605543852E-07;-3,8806277140975E-07;100 nA
-0,2001953125;149,013591623777;-1,56494140625E-08;-0,199462890625;4;284;3,78510605543852E-07;-3,8806277140975E-07;100 nA
-0,250244140625;149,514079622513;-1,68670654296875E-08;-0,24932861328125;4;285;3,78510605543852E-07;-3,8806277140975E-07;100 nA
-0,30029296875;150,01456762125;-1,888427734375E-08;-0,2991943359375;4;286;3,78510605543852E-07;-3,8806277140975E-07;100 nA
-0,350341796875;150,515055619986;-2,25555419921875E-08;-0,349212646484375;4;287;3,78510605543852E-07;-3,8806277140975E-07;100 nA
-0,400390625;151,015543618722;-2,8985595703125E-08;-0,3990478515625;4;288;3,78510605543852E-07;-3,8806277140975E-07;100 nA
-0,450439453125;151,516031617459;-3,73626708984375E-08;-0,448883056640625;4;289;3,78510605543852E-07;-3,8806277140975E-07;100 nA
-0,50048828125;152,016519616195;-4,361572265625E-08;-0,498809814453125;4;290;3,78510605543852E-07;-3,8806277140975E-07;100 nA
-0,550537109375;152,517007614932;-4,40399169921875E-08;-0,548675537109375;4;291;3,78510605543852E-07;-3,8806277140975E-07;100 nA
-0,6005859375;153,017495613668;-4,66094970703125E-08;-0,598419189453125;4;292;3,78510605543852E-07;-3,8806277140975E-07;100 nA
-0,650634765625;153,517983612404;-4,77386474609375E-08;-0,648406982421875;4;293;3,78510605543852E-07;-3,8806277140975E-07;100 nA
-0,70068359375;154,018471611141;-4,8291015625E-08;-0,698455810546875;4;294;3,78510605543852E-07;-3,8806277140975E-07;100 nA
-0,750732421875;154,518959609877;-4,75128173828125E-08;-0,748443603515625;4;295;3,78510605543852E-07;-3,8806277140975E-07;100 nA
-0,80078125;155,019447608614;-4,54376220703125E-08;-0,79833984375;4;296;3,78510605543852E-07;-3,8806277140975E-07;100 nA
-0,850830078125;155,51993560735;-4,34722900390625E-08;-0,84869384765625;4;297;3,78510605543852E-07;-3,8806277140975E-07;100 nA
-0,90087890625;156,020423606086;-4,19647216796875E-08;-0,89874267578125;4;298;3,78510605543852E-07;-3,8806277140975E-07;100 nA
-0,950927734375;156,520911604823;-4,1455078125E-08;-0,94818115234375;4;299;3,78510605543852E-07;-3,8806277140975E-07;100 nA
-1,0009765625;157,021399603559;-4,32769775390625E-08;-0,99884033203125;4;300;3,78510605543852E-07;-3,8806277140975E-07;100 nA
-0,950927734375;157,521887602295;-1,802978515625E-08;-0,94879150390625;4;301;3,78510605543852E-07;-3,8806277140975E-07;100 nA
-0,90087890625;158,022375601032;-5,792236328125E-09;-0,89874267578125;4;302;3,78510605543852E-07;-3,8806277140975E-07;100 nA
-0,850830078125;158,522863599768;1,2872314453125E-09;-0,84808349609375;4;303;3,78510605543852E-07;-3,8806277140975E-07;100 nA
-0,80078125;159,023351598505;5,96923828125E-09;-0,79833984375;4;304;3,78510605543852E-07;-3,8806277140975E-07;100 nA
-0,750732421875;159,523839597241;9,4085693359375E-09;-0,748626708984375;4;305;3,78510605543852E-07;-3,8806277140975E-07;100 nA
-0,70068359375;160,024327595977;1,21307373046875E-08;-0,69873046875;4;306;3,78510605543852E-07;-3,8806277140975E-07;100 nA
-0,650634765625;160,524815594714;1,436767578125E-08;-0,648712158203125;4;307;3,78510605543852E-07;-3,8806277140975E-07;100 nA
-0,6005859375;161,02530359345;1,62322998046875E-08;-0,5987548828125;4;308;3,78510605543852E-07;-3,8806277140975E-07;100 nA
-0,550537109375;161,525791592187;1,81732177734375E-08;-0,548858642578125;4;309;3,78510605543852E-07;-3,8806277140975E-07;100 nA
-0,50048828125;162,026279590923;2,04833984375E-08;-0,4990234375;4;310;3,78510605543852E-07;-3,8806277140975E-07;100 nA
-0,450439453125;162,526767589659;2,374267578125E-08;-0,449066162109375;4;311;3,78510605543852E-07;-3,8806277140975E-07;100 nA
-0,400390625;163,027255588396;2,91534423828125E-08;-0,399200439453125;4;312;3,78510605543852E-07;-3,8806277140975E-07;100 nA
-0,350341796875;163,527743587132;3,5369873046875E-08;-0,34930419921875;4;313;3,78510605543852E-07;-3,8806277140975E-07;100 nA
-0,30029296875;164,028231585869;3,93798828125E-08;-0,29931640625;4;314;3,78510605543852E-07;-3,8806277140975E-07;100 nA
-0,250244140625;164,528719584605;4,09271240234375E-08;-0,249481201171875;4;315;3,78510605543852E-07;-3,8806277140975E-07;100 nA
-0,2001953125;165,029207583341;3,97430419921875E-08;-0,1995849609375;4;316;3,78510605543852E-07;-3,8806277140975E-07;100 nA
-0,150146484375;165,529695582078;3,4356689453125E-08;-0,149688720703125;4;317;3,78510605543852E-07;-3,8806277140975E-07;100 nA
-0,10009765625;166,030183580814;3,04718017578125E-08;-0,09979248046875;4;318;3,78510605543852E-07;-3,8806277140975E-07;100 nA
-0,050048828125;166,53067157955;2,74627685546875E-08;-0,04986572265625;4;319;3,78510605543852E-07;-3,8806277140975E-07;100 nA
0;167,031159578287;2,5103759765625E-08;8,23974609374944E-05;4;320;3,78510605543852E-07;-3,8806277140975E-07;100 nA
0,050048828125;167,531647577023;2,340087890625E-08;0,050018310546875;5;321;3,64125691354275E-07;-3,73486936092377E-07;100 nA
0,10009765625;168,03213557576;2,23388671875E-08;0,10003662109375;5;322;3,64125691354275E-07;-3,73486936092377E-07;100 nA
0,150146484375;168,532623574496;2,17376708984375E-08;0,1500244140625;5;323;3,64125691354275E-07;-3,73486936092377E-07;100 nA
0,2001953125;169,033111573232;2,13775634765625E-08;0,199981689453125;5;324;3,64125691354275E-07;-3,73486936092377E-07;100 nA
0,250244140625;169,533599571969;2,060546875E-08;0,250030517578125;5;325;3,64125691354275E-07;-3,73486936092377E-07;100 nA
0,30029296875;170,034087570705;1,95953369140625E-08;0,300018310546875;5;326;3,64125691354275E-07;-3,73486936092377E-07;100 nA
0,350341796875;170,534575569442;1,73858642578125E-08;0,35009765625;5;327;3,64125691354275E-07;-3,73486936092377E-07;100 nA
0,400390625;171,035063568178;1,50848388671875E-08;0,400054931640625;5;328;3,64125691354275E-07;-3,73486936092377E-07;100 nA
0,450439453125;171,535551566914;1,35223388671875E-08;0,45001220703125;5;329;3,64125691354275E-07;-3,73486936092377E-07;100 nA
0,50048828125;172,036039565651;1,20330810546875E-08;0,500091552734375;5;330;3,64125691354275E-07;-3,73486936092377E-07;100 nA
0,550537109375;172,536527564387;1,083984375E-08;0,550048828125;5;331;3,64125691354275E-07;-3,73486936092377E-07;100 nA
0,6005859375;173,037015563124;1,00555419921875E-08;0,600067138671875;5;332;3,64125691354275E-07;-3,73486936092377E-07;100 nA
0,650634765625;173,53750356186;9,3719482421875E-09;0,649993896484375;5;333;3,64125691354275E-07;-3,73486936092377E-07;100 nA
0,70068359375;174,037991560596;9,1094970703125E-09;0,699920654296875;5;334;3,64125691354275E-07;-3,73486936092377E-07;100 nA
0,750732421875;174,538479559333;9,222412109375E-09;0,749847412109375;5;335;3,64125691354275E-07;-3,73486936092377E-07;100 nA
0,80078125;175,038967558069;9,515380859375E-09;0,79925537109375;5;336;3,64125691354275E-07;-3,73486936092377E-07;100 nA
0,850830078125;175,539455556805;1,02020263671875E-08;0,8502197265625;5;337;3,64125691354275E-07;-3,73486936092377E-07;100 nA
0,90087890625;176,039943555542;1,11053466796875E-08;0,89996337890625;5;338;3,64125691354275E-07;-3,73486936092377E-07;100 nA
0,950927734375;176,540431554278;1,21246337890625E-08;0,94940185546875;5;339;3,64125691354275E-07;-3,73486936092377E-07;100 nA
1,0009765625;177,040919553015;1,33819580078125E-08;0,999755859375;5;340;3,64125691354275E-07;-3,73486936092377E-07;100 nA
0,950927734375;177,541407551751;6,817626953125E-09;0,94970703125;5;341;3,64125691354275E-07;-3,73486936092377E-07;100 nA
0,90087890625;178,041895550487;4,119873046875E-09;0,9002685546875;5;342;3,64125691354275E-07;-3,73486936092377E-07;100 nA
0,850830078125;178,542383549224;2,662353515625E-09;0,84991455078125;5;343;3,64125691354275E-07;-3,73486936092377E-07;100 nA
0,80078125;179,04287154796;1,8719482421875E-09;0,79986572265625;5;344;3,64125691354275E-07;-3,73486936092377E-07;100 nA
0,750732421875;179,543359546697;1,405029296875E-09;0,749969482421875;5;345;3,64125691354275E-07;-3,73486936092377E-07;100 nA
0,70068359375;180,043847545433;1,09893798828125E-09;0,700042724609375;5;346;3,64125691354275E-07;-3,73486936092377E-07;100 nA
0,650634765625;180,544335544169;8,38623046875001E-10;0,65020751953125;5;347;3,64125691354275E-07;-3,73486936092377E-07;100 nA
0,6005859375;181,044823542906;6,0394287109375E-10;0,600189208984375;5;348;3,64125691354275E-07;-3,73486936092377E-07;100 nA
0,550537109375;181,545311541642;3,4332275390625E-10;0,550262451171875;5;349;3,64125691354275E-07;-3,73486936092377E-07;100 nA
0,50048828125;182,045799540379;-3,41796874999994E-11;0,50018310546875;5;350;3,64125691354275E-07;-3,73486936092377E-07;100 nA
0,450439453125;182,546287539115;-5,0933837890625E-10;0,450164794921875;5;351;3,64125691354275E-07;-3,73486936092377E-07;100 nA
0,400390625;183,046775537851;-1,16180419921875E-09;0,40020751953125;5;352;3,64125691354275E-07;-3,73486936092377E-07;100 nA
0,350341796875;183,547263536588;-2,10479736328125E-09;0,350250244140625;5;353;3,64125691354275E-07;-3,73486936092377E-07;100 nA
0,30029296875;184,047751535324;-3,22296142578125E-09;0,3001708984375;5;354;3,64125691354275E-07;-3,73486936092377E-07;100 nA
0,250244140625;184,54823953406;-4,3182373046875E-09;0,250152587890625;5;355;3,64125691354275E-07;-3,73486936092377E-07;100 nA
0,2001953125;185,048727532797;-5,7373046875E-09;0,200164794921875;5;356;3,64125691354275E-07;-3,73486936092377E-07;100 nA
0,150146484375;185,549215531533;-8,648681640625E-09;0,150146484375;5;357;3,64125691354275E-07;-3,73486936092377E-07;100 nA
0,10009765625;186,04970353027;-1,38092041015625E-08;0,1002197265625;5;358;3,64125691354275E-07;-3,73486936092377E-07;100 nA
0,050048828125;186,550191529006;-1,45904541015625E-08;0,05010986328125;5;359;3,64125691354275E-07;-3,73486936092377E-07;100 nA
0;187,050679527742;-1,4178466796875E-08;0,000170898437499997;5;360;3,64125691354275E-07;-3,73486936092377E-07;100 nA
-0,050048828125;187,551167526479;-1,39373779296875E-08;-0,0496978759765625;5;361;3,64125691354275E-07;-3,73486936092377E-07;100 nA
-0,10009765625;188,051655525215;-1,40380859375E-08;-0,099639892578125;5;362;3,64125691354275E-07;-3,73486936092377E-07;100 nA
-0,150146484375;188,552143523952;-1,44683837890625E-08;-0,1495361328125;5;363;3,64125691354275E-07;-3,73486936092377E-07;100 nA
-0,2001953125;189,052631522688;-1,52252197265625E-08;-0,19940185546875;5;364;3,64125691354275E-07;-3,73486936092377E-07;100 nA
-0,250244140625;189,553119521424;-1,64215087890625E-08;-0,249298095703125;5;365;3,64125691354275E-07;-3,73486936092377E-07;100 nA
-0,30029296875;190,053607520161;-1,82952880859375E-08;-0,299224853515625;5;366;3,64125691354275E-07;-3,73486936092377E-07;100 nA
-0,350341796875;190,554095518897;-2,16522216796875E-08;-0,349151611328125;5;367;3,64125691354275E-07;-3,73486936092377E-07;100 nA
-0,400390625;191,054583517634;-2,76153564453125E-08;-0,39898681640625;5;368;3,64125691354275E-07;-3,73486936092377E-07;100 nA
-0,450439453125;191,55507151637;-3,58184814453125E-08;-0,4488525390625;5;369;3,64125691354275E-07;-3,73486936092377E-07;100 nA
-0,50048828125;192,055559515106;-4,20501708984375E-08;-0,498748779296875;5;370;3,64125691354275E-07;-3,73486936092377E-07;100 nA
-0,550537109375;192,556047513843;-4,2828369140625E-08;-0,548675537109375;5;371;3,64125691354275E-07;-3,73486936092377E-07;100 nA
-0,6005859375;193,056535512579;-4,52301025390625E-08;-0,59857177734375;5;372;3,64125691354275E-07;-3,73486936092377E-07;100 nA
-0,650634765625;193,557023511315;-4,6337890625E-08;-0,64849853515625;5;373;3,64125691354275E-07;-3,73486936092377E-07;100 nA
-0,70068359375;194,057511510052;-4,67315673828125E-08;-0,698516845703125;5;374;3,64125691354275E-07;-3,73486936092377E-07;100 nA
-0,750732421875;194,557999508788;-4,5709228515625E-08;-0,748504638671875;5;375;3,64125691354275E-07;-3,73486936092377E-07;100 nA
-0,80078125;195,058487507525;-4,3701171875E-08;-0,79864501953125;5;376;3,64125691354275E-07;-3,73486936092377E-07;100 nA
-0,850830078125;195,558975506261;-4,208984375E-08;-0,84869384765625;5;377;3,64125691354275E-07;-3,73486936092377E-07;100 nA
-0,90087890625;196,059463504997;-4,083251953125E-08;-0,8990478515625;5;378;3,64125691354275E-07;-3,73486936092377E-07;100 nA
-0,950927734375;196,559951503734;-4,03900146484375E-08;-0,94879150390625;5;379;3,64125691354275E-07;-3,73486936092377E-07;100 nA
-1,0009765625;197,06043950247;-4,21600341796875E-08;-0,99945068359375;5;380;3,64125691354275E-07;-3,73486936092377E-07;100 nA
-0,950927734375;197,560927501207;-1,72210693359375E-08;-0,94879150390625;5;381;3,64125691354275E-07;-3,73486936092377E-07;100 nA
-0,90087890625;198,061415499943;-5,17578125E-09;-0,89874267578125;5;382;3,64125691354275E-07;-3,73486936092377E-07;100 nA
-0,850830078125;198,561903498679;1,71844482421875E-09;-0,84869384765625;5;383;3,64125691354275E-07;-3,73486936092377E-07;100 nA
-0,80078125;199,062391497416;6,1981201171875E-09;-0,79864501953125;5;384;3,64125691354275E-07;-3,73486936092377E-07;100 nA
-0,750732421875;199,562879496152;9,5001220703125E-09;-0,7486572265625;5;385;3,64125691354275E-07;-3,73486936092377E-07;100 nA
-0,70068359375;200,063367494889;1,21673583984375E-08;-0,698699951171875;5;386;3,64125691354275E-07;-3,73486936092377E-07;100 nA
-0,650634765625;200,563855493625;1,43096923828125E-08;-0,64874267578125;5;387;3,64125691354275E-07;-3,73486936092377E-07;100 nA
-0,6005859375;201,064343492361;1,6156005859375E-08;-0,598724365234375;5;388;3,64125691354275E-07;-3,73486936092377E-07;100 nA
-0,550537109375;201,564831491098;1,805419921875E-08;-0,548858642578125;5;389;3,64125691354275E-07;-3,73486936092377E-07;100 nA
-0,50048828125;202,065319489834;2,03460693359375E-08;-0,498931884765625;5;390;3,64125691354275E-07;-3,73486936092377E-07;100 nA
-0,450439453125;202,565807488571;2,35870361328125E-08;-0,44903564453125;5;391;3,64125691354275E-07;-3,73486936092377E-07;100 nA
-0,400390625;203,066295487307;2,882080078125E-08;-0,399139404296875;5;392;3,64125691354275E-07;-3,73486936092377E-07;100 nA
-0,350341796875;203,566783486043;3,4796142578125E-08;-0,349334716796875;5;393;3,64125691354275E-07;-3,73486936092377E-07;100 nA
-0,30029296875;204,06727148478;3,86566162109375E-08;-0,299407958984375;5;394;3,64125691354275E-07;-3,73486936092377E-07;100 nA
-0,250244140625;204,567759483516;4,0142822265625E-08;-0,24951171875;5;395;3,64125691354275E-07;-3,73486936092377E-07;100 nA
-0,2001953125;205,068247482252;3,8531494140625E-08;-0,1995849609375;5;396;3,64125691354275E-07;-3,73486936092377E-07;100 nA
-0,150146484375;205,568735480989;3,3135986328125E-08;-0,149688720703125;5;397;3,64125691354275E-07;-3,73486936092377E-07;100 nA
-0,10009765625;206,069223479725;2,9193115234375E-08;-0,099822998046875;5;398;3,64125691354275E-07;-3,73486936092377E-07;100 nA
-0,050048828125;206,569711478462;2,63336181640625E-08;-0,0499267578125;5;399;3,64125691354275E-07;-3,73486936092377E-07;100 nA
0;207,070199477198;2,412109375E-08;7,01904296875056E-05;5;400;3,64125691354275E-07;-3,73486936092377E-07;100 nA
0,050048828125;207,570687475934;2,2576904296875E-08;0,04998779296875;6;401;3,53505283594132E-07;-3,61789885908365E-07;100 nA
0,10009765625;208,071175474671;2,16583251953125E-08;0,100006103515625;6;402;3,53505283594132E-07;-3,61789885908365E-07;100 nA
0,150146484375;208,571663473407;2,1099853515625E-08;0,1500244140625;6;403;3,53505283594132E-07;-3,61789885908365E-07;100 nA
0,2001953125;209,072151472144;2,066650390625E-08;0,20001220703125;6;404;3,53505283594132E-07;-3,61789885908365E-07;100 nA
0,250244140625;209,57263947088;1,9586181640625E-08;0,25006103515625;6;405;3,53505283594132E-07;-3,61789885908365E-07;100 nA
0,30029296875;210,073127469616;1,80328369140625E-08;0,300048828125;6;406;3,53505283594132E-07;-3,61789885908365E-07;100 nA
0,350341796875;210,573615468353;1,5814208984375E-08;0,35009765625;6;407;3,53505283594132E-07;-3,61789885908365E-07;100 nA
0,400390625;211,074103467089;1,4007568359375E-08;0,400115966796875;6;408;3,53505283594132E-07;-3,61789885908365E-07;100 nA
0,450439453125;211,574591465826;1,24786376953125E-08;0,450103759765625;6;409;3,53505283594132E-07;-3,61789885908365E-07;100 nA
0,50048828125;212,075079464562;1,1041259765625E-08;0,50006103515625;6;410;3,53505283594132E-07;-3,61789885908365E-07;100 nA
0,550537109375;212,575567463298;1,01837158203125E-08;0,55010986328125;6;411;3,53505283594132E-07;-3,61789885908365E-07;100 nA
0,6005859375;213,076055462035;9,478759765625E-09;0,60009765625;6;412;3,53505283594132E-07;-3,61789885908365E-07;100 nA
0,650634765625;213,576543460771;9,0667724609375E-09;0,6500244140625;6;413;3,53505283594132E-07;-3,61789885908365E-07;100 nA
0,70068359375;214,077031459507;9,0057373046875E-09;0,69989013671875;6;414;3,53505283594132E-07;-3,61789885908365E-07;100 nA
0,750732421875;214,577519458244;9,06982421875E-09;0,74981689453125;6;415;3,53505283594132E-07;-3,61789885908365E-07;100 nA
0,80078125;215,07800745698;9,3994140625E-09;0,79986572265625;6;416;3,53505283594132E-07;-3,61789885908365E-07;100 nA
0,850830078125;215,578495455717;1,0052490234375E-08;0,8502197265625;6;417;3,53505283594132E-07;-3,61789885908365E-07;100 nA
0,90087890625;216,078983454453;1,1004638671875E-08;0,89996337890625;6;418;3,53505283594132E-07;-3,61789885908365E-07;100 nA
0,950927734375;216,579471453189;1,21185302734375E-08;0,94970703125;6;419;3,53505283594132E-07;-3,61789885908365E-07;100 nA
1,0009765625;217,079959451926;1,34185791015625E-08;0,99945068359375;6;420;3,53505283594132E-07;-3,61789885908365E-07;100 nA
0,950927734375;217,580447450662;6,8267822265625E-09;0,95001220703125;6;421;3,53505283594132E-07;-3,61789885908365E-07;100 nA
0,90087890625;218,080935449399;4,022216796875E-09;0,89935302734375;6;422;3,53505283594132E-07;-3,61789885908365E-07;100 nA
0,850830078125;218,581423448135;2,625732421875E-09;0,849609375;6;423;3,53505283594132E-07;-3,61789885908365E-07;100 nA
0,80078125;219,081911446871;1,81854248046875E-09;0,79986572265625;6;424;3,53505283594132E-07;-3,61789885908365E-07;100 nA
0,750732421875;219,582399445608;1,309814453125E-09;0,75;6;425;3,53505283594132E-07;-3,61789885908365E-07;100 nA
0,70068359375;220,082887444344;9,88159179687501E-10;0,7000732421875;6;426;3,53505283594132E-07;-3,61789885908365E-07;100 nA
0,650634765625;220,583375443081;7,54394531249999E-10;0,650115966796875;6;427;3,53505283594132E-07;-3,61789885908365E-07;100 nA
0,6005859375;221,083863441817;5,54504394531249E-10;0,60028076171875;6;428;3,53505283594132E-07;-3,61789885908365E-07;100 nA
0,550537109375;221,584351440553;3,25622558593749E-10;0,550262451171875;6;429;3,53505283594132E-07;-3,61789885908365E-07;100 nA
0,50048828125;222,08483943929;-9,15527343750555E-13;0,500213623046875;6;430;3,53505283594132E-07;-3,61789885908365E-07;100 nA
0,450439453125;222,585327438026;-4,3304443359375E-10;0,450225830078125;6;431;3,53505283594132E-07;-3,61789885908365E-07;100 nA
0,400390625;223,085815436762;-1,01959228515625E-09;0,40020751953125;6;432;3,53505283594132E-07;-3,61789885908365E-07;100 nA
0,350341796875;223,586303435499;-1,84600830078125E-09;0,350189208984375;6;433;3,53505283594132E-07;-3,61789885908365E-07;100 nA
0,30029296875;224,086791434235;-2,9083251953125E-09;0,3001708984375;6;434;3,53505283594132E-07;-3,61789885908365E-07;100 nA
0,250244140625;224,587279432972;-3,90350341796875E-09;0,25018310546875;6;435;3,53505283594132E-07;-3,61789885908365E-07;100 nA
0,2001953125;225,087767431708;-5,2459716796875E-09;0,200164794921875;6;436;3,53505283594132E-07;-3,61789885908365E-07;100 nA
0,150146484375;225,588255430444;-7,9132080078125E-09;0,15020751953125;6;437;3,53505283594132E-07;-3,61789885908365E-07;100 nA
0,10009765625;226,088743429181;-1,30157470703125E-08;0,100128173828125;6;438;3,53505283594132E-07;-3,61789885908365E-07;100 nA
0,050048828125;226,589231427917;-1,40411376953125E-08;0,050201416015625;6;439;3,53505283594132E-07;-3,61789885908365E-07;100 nA
0;227,089719426654;-1,3677978515625E-08;0,000170898437499997;6;440;3,53505283594132E-07;-3,61789885908365E-07;100 nA
-0,050048828125;227,59020742539;-1,35833740234375E-08;-0,0496826171875;6;441;3,53505283594132E-07;-3,61789885908365E-07;100 nA
-0,10009765625;228,090695424126;-1,3800048828125E-08;-0,099639892578125;6;442;3,53505283594132E-07;-3,61789885908365E-07;100 nA
-0,150146484375;228,591183422863;-1,42425537109375E-08;-0,1495361328125;6;443;3,53505283594132E-07;-3,61789885908365E-07;100 nA
-0,2001953125;229,091671421599;-1,4990234375E-08;-0,199432373046875;6;444;3,53505283594132E-07;-3,61789885908365E-07;100 nA
-0,250244140625;229,592159420336;-1,61376953125E-08;-0,24932861328125;6;445;3,53505283594132E-07;-3,61789885908365E-07;100 nA
-0,30029296875;230,092647419072;-1,79290771484375E-08;-0,299163818359375;6;446;3,53505283594132E-07;-3,61789885908365E-07;100 nA
-0,350341796875;230,593135417808;-2,10296630859375E-08;-0,34912109375;6;447;3,53505283594132E-07;-3,61789885908365E-07;100 nA
-0,400390625;231,093623416545;-2,6513671875E-08;-0,3990478515625;6;448;3,53505283594132E-07;-3,61789885908365E-07;100 nA
-0,450439453125;231,594111415281;-3,44390869140625E-08;-0,448883056640625;6;449;3,53505283594132E-07;-3,61789885908365E-07;100 nA
-0,50048828125;232,094599414017;-4,05517578125E-08;-0,498748779296875;6;450;3,53505283594132E-07;-3,61789885908365E-07;100 nA
-0,550537109375;232,595087412754;-4,1632080078125E-08;-0,5487060546875;6;451;3,53505283594132E-07;-3,61789885908365E-07;100 nA
-0,6005859375;233,09557541149;-4,40185546875E-08;-0,598541259765625;6;452;3,53505283594132E-07;-3,61789885908365E-07;100 nA
-0,650634765625;233,596063410227;-4,510498046875E-08;-0,648468017578125;6;453;3,53505283594132E-07;-3,61789885908365E-07;100 nA
-0,70068359375;234,096551408963;-4,5281982421875E-08;-0,698486328125;6;454;3,53505283594132E-07;-3,61789885908365E-07;100 nA
-0,750732421875;234,597039407699;-4,41192626953125E-08;-0,748504638671875;6;455;3,53505283594132E-07;-3,61789885908365E-07;100 nA
-0,80078125;235,097527406436;-4,234619140625E-08;-0,79833984375;6;456;3,53505283594132E-07;-3,61789885908365E-07;100 nA
-0,850830078125;235,598015405172;-4,09210205078125E-08;-0,848388671875;6;457;3,53505283594132E-07;-3,61789885908365E-07;100 nA
-0,90087890625;236,098503403909;-3,9923095703125E-08;-0,8990478515625;6;458;3,53505283594132E-07;-3,61789885908365E-07;100 nA
-0,950927734375;236,598991402645;-3,95904541015625E-08;-0,948486328125;6;459;3,53505283594132E-07;-3,61789885908365E-07;100 nA
-1,0009765625;237,099479401381;-4,130859375E-08;-0,99884033203125;6;460;3,53505283594132E-07;-3,61789885908365E-07;100 nA
-0,950927734375;237,599967400118;-1,66259765625E-08;-0,948486328125;6;461;3,53505283594132E-07;-3,61789885908365E-07;100 nA
-0,90087890625;238,100455398854;-4,779052734375E-09;-0,8990478515625;6;462;3,53505283594132E-07;-3,61789885908365E-07;100 nA
-0,850830078125;238,600943397591;1,97540283203125E-09;-0,84869384765625;6;463;3,53505283594132E-07;-3,61789885908365E-07;100 nA
-0,80078125;239,101431396327;6,402587890625E-09;-0,79864501953125;6;464;3,53505283594132E-07;-3,61789885908365E-07;100 nA
-0,750732421875;239,601919395063;9,6527099609375E-09;-0,748687744140625;6;465;3,53505283594132E-07;-3,61789885908365E-07;100 nA
-0,70068359375;240,1024073938;1,2176513671875E-08;-0,6986083984375;6;466;3,53505283594132E-07;-3,61789885908365E-07;100 nA
-0,650634765625;240,602895392536;1,42242431640625E-08;-0,648681640625;6;467;3,53505283594132E-07;-3,61789885908365E-07;100 nA
-0,6005859375;241,103383391272;1,60003662109375E-08;-0,598785400390625;6;468;3,53505283594132E-07;-3,61789885908365E-07;100 nA
-0,550537109375;241,603871390009;1,7889404296875E-08;-0,54876708984375;6;469;3,53505283594132E-07;-3,61789885908365E-07;100 nA
-0,50048828125;242,104359388745;2,0166015625E-08;-0,498992919921875;6;470;3,53505283594132E-07;-3,61789885908365E-07;100 nA
-0,450439453125;242,604847387482;2,33856201171875E-08;-0,449066162109375;6;471;3,53505283594132E-07;-3,61789885908365E-07;100 nA
-0,400390625;243,105335386218;2,84332275390625E-08;-0,39923095703125;6;472;3,53505283594132E-07;-3,61789885908365E-07;100 nA
-0,350341796875;243,605823384954;3,41796875E-08;-0,3492431640625;6;473;3,53505283594132E-07;-3,61789885908365E-07;100 nA
-0,30029296875;244,106311383691;3,78936767578125E-08;-0,29937744140625;6;474;3,53505283594132E-07;-3,61789885908365E-07;100 nA
-0,250244140625;244,606799382427;3,92181396484375E-08;-0,24957275390625;6;475;3,53505283594132E-07;-3,61789885908365E-07;100 nA
-0,2001953125;245,107287381164;3,7237548828125E-08;-0,1995849609375;6;476;3,53505283594132E-07;-3,61789885908365E-07;100 nA
-0,150146484375;245,6077753799;3,18206787109375E-08;-0,14971923828125;6;477;3,53505283594132E-07;-3,61789885908365E-07;100 nA
-0,10009765625;246,108263378636;2,80364990234375E-08;-0,09979248046875;6;478;3,53505283594132E-07;-3,61789885908365E-07;100 nA
-0,050048828125;246,608751377373;2,535400390625E-08;-0,049835205078125;6;479;3,53505283594132E-07;-3,61789885908365E-07;100 nA
0;247,109239376109;2,32879638671875E-08;0,000100708007812506;6;480;3,53505283594132E-07;-3,61789885908365E-07;100 nA
0,050048828125;247,609727374846;2,18719482421875E-08;0,049957275390625;7;481;3,42909466475248E-07;-3,51210869848728E-07;100 nA
0,10009765625;248,110215373582;2,09716796875E-08;0,0999755859375;7;482;3,42909466475248E-07;-3,51210869848728E-07;100 nA
0,150146484375;248,610703372318;2,05413818359375E-08;0,149993896484375;7;483;3,42909466475248E-07;-3,51210869848728E-07;100 nA
0,2001953125;249,111191371055;2,00286865234375E-08;0,20001220703125;7;484;3,42909466475248E-07;-3,51210869848728E-07;100 nA
0,250244140625;249,611679369791;1,85943603515625E-08;0,25;7;485;3,42909466475248E-07;-3,51210869848728E-07;100 nA
0,30029296875;250,112167368527;1,6827392578125E-08;0,300048828125;7;486;3,42909466475248E-07;-3,51210869848728E-07;100 nA
0,350341796875;250,612655367264;1,4617919921875E-08;0,35009765625;7;487;3,42909466475248E-07;-3,51210869848728E-07;100 nA
0,400390625;251,113143366;1,30767822265625E-08;0,400115966796875;7;488;3,42909466475248E-07;-3,51210869848728E-07;100 nA
0,450439453125;251,613631364737;1,1572265625E-08;0,450103759765625;7;489;3,42909466475248E-07;-3,51210869848728E-07;100 nA
0,50048828125;252,114119363473;1,02996826171875E-08;0,500091552734375;7;490;3,42909466475248E-07;-3,51210869848728E-07;100 nA
0,550537109375;252,614607362209;9,5001220703125E-09;0,550079345703125;7;491;3,42909466475248E-07;-3,51210869848728E-07;100 nA
0,6005859375;253,115095360946;8,837890625E-09;0,60009765625;7;492;3,42909466475248E-07;-3,51210869848728E-07;100 nA
0,650634765625;253,615583359682;8,538818359375E-09;0,650054931640625;7;493;3,42909466475248E-07;-3,51210869848728E-07;100 nA
0,70068359375;254,116071358419;8,4808349609375E-09;0,699951171875;7;494;3,42909466475248E-07;-3,51210869848728E-07;100 nA
0,750732421875;254,616559357155;8,807373046875E-09;0,749847412109375;7;495;3,42909466475248E-07;-3,51210869848728E-07;100 nA
0,80078125;255,117047355891;9,0576171875E-09;0,799560546875;7;496;3,42909466475248E-07;-3,51210869848728E-07;100 nA
0,850830078125;255,617535354628;9,6466064453125E-09;0,84991455078125;7;497;3,42909466475248E-07;-3,51210869848728E-07;100 nA
0,90087890625;256,118023353364;1,05712890625E-08;0,899658203125;7;498;3,42909466475248E-07;-3,51210869848728E-07;100 nA
0,950927734375;256,618511352101;1,177978515625E-08;0,94970703125;7;499;3,42909466475248E-07;-3,51210869848728E-07;100 nA
1,0009765625;257,118999350837;1,2896728515625E-08;1,00006103515625;7;500;3,42909466475248E-07;-3,51210869848728E-07;100 nA
0,950927734375;257,619487349573;6,561279296875E-09;0,94940185546875;7;501;3,42909466475248E-07;-3,51210869848728E-07;100 nA
0,90087890625;258,11997534831;3,86962890625E-09;0,89935302734375;7;502;3,42909466475248E-07;-3,51210869848728E-07;100 nA
0,850830078125;258,620463347046;2,46978759765625E-09;0,8489990234375;7;503;3,42909466475248E-07;-3,51210869848728E-07;100 nA
0,80078125;259,120951345782;1,65130615234375E-09;0,8001708984375;7;504;3,42909466475248E-07;-3,51210869848728E-07;100 nA
0,750732421875;259,621439344519;1,241455078125E-09;0,750030517578125;7;505;3,42909466475248E-07;-3,51210869848728E-07;100 nA
0,70068359375;260,121927343255;9,17663574218749E-10;0,70001220703125;7;506;3,42909466475248E-07;-3,51210869848728E-07;100 nA
0,650634765625;260,622415341992;7,1136474609375E-10;0,650115966796875;7;507;3,42909466475248E-07;-3,51210869848728E-07;100 nA
0,6005859375;261,122903340728;5,02624511718749E-10;0,6002197265625;7;508;3,42909466475248E-07;-3,51210869848728E-07;100 nA
0,550537109375;261,623391339464;3,3233642578125E-10;0,55023193359375;7;509;3,42909466475248E-07;-3,51210869848728E-07;100 nA
0,50048828125;262,123879338201;6,16455078124994E-11;0,500244140625;7;510;3,42909466475248E-07;-3,51210869848728E-07;100 nA
0,450439453125;262,624367336937;-3,0853271484375E-10;0,4501953125;7;511;3,42909466475248E-07;-3,51210869848728E-07;100 nA
0,400390625;263,124855335674;-8,270263671875E-10;0,400238037109375;7;512;3,42909466475248E-07;-3,51210869848728E-07;100 nA
0,350341796875;263,62534333441;-1,56341552734375E-09;0,350189208984375;7;513;3,42909466475248E-07;-3,51210869848728E-07;100 nA
0,30029296875;264,125831333146;-2,50579833984375E-09;0,300140380859375;7;514;3,42909466475248E-07;-3,51210869848728E-07;100 nA
0,250244140625;264,626319331883;-3,49884033203125E-09;0,250213623046875;7;515;3,42909466475248E-07;-3,51210869848728E-07;100 nA
0,2001953125;265,126807330619;-4,766845703125E-09;0,200164794921875;7;516;3,42909466475248E-07;-3,51210869848728E-07;100 nA
0,150146484375;265,627295329356;-7,2479248046875E-09;0,150177001953125;7;517;3,42909466475248E-07;-3,51210869848728E-07;100 nA
0,10009765625;266,127783328092;-1,21978759765625E-08;0,100189208984375;7;518;3,42909466475248E-07;-3,51210869848728E-07;100 nA
0,050048828125;266,628271326828;-1,3623046875E-08;0,050140380859375;7;519;3,42909466475248E-07;-3,51210869848728E-07;100 nA
0;267,128759325565;-1,337890625E-08;0,000158691406249994;7;520;3,42909466475248E-07;-3,51210869848728E-07;100 nA
-0,050048828125;267,629247324301;-1,334228515625E-08;-0,0496917724609375;7;521;3,42909466475248E-07;-3,51210869848728E-07;100 nA
-0,10009765625;268,129735323037;-1,35955810546875E-08;-0,09967041015625;7;522;3,42909466475248E-07;-3,51210869848728E-07;100 nA
-0,150146484375;268,630223321774;-1,4068603515625E-08;-0,1495361328125;7;523;3,42909466475248E-07;-3,51210869848728E-07;100 nA
-0,2001953125;269,13071132051;-1,4794921875E-08;-0,199371337890625;7;524;3,42909466475248E-07;-3,51210869848728E-07;100 nA
-0,250244140625;269,631199319247;-1,5887451171875E-08;-0,249267578125;7;525;3,42909466475248E-07;-3,51210869848728E-07;100 nA
-0,30029296875;270,131687317983;-1,75567626953125E-08;-0,29925537109375;7;526;3,42909466475248E-07;-3,51210869848728E-07;100 nA
-0,350341796875;270,632175316719;-2,04315185546875E-08;-0,34912109375;7;527;3,42909466475248E-07;-3,51210869848728E-07;100 nA
-0,400390625;271,132663315456;-2,55645751953125E-08;-0,398956298828125;7;528;3,42909466475248E-07;-3,51210869848728E-07;100 nA
-0,450439453125;271,633151314192;-3,31085205078125E-08;-0,448883056640625;7;529;3,42909466475248E-07;-3,51210869848728E-07;100 nA
-0,50048828125;272,133639312929;-3,9202880859375E-08;-0,498779296875;7;530;3,42909466475248E-07;-3,51210869848728E-07;100 nA
-0,550537109375;272,634127311665;-4,05242919921875E-08;-0,5487060546875;7;531;3,42909466475248E-07;-3,51210869848728E-07;100 nA
-0,6005859375;273,134615310401;-4,2877197265625E-08;-0,5985107421875;7;532;3,42909466475248E-07;-3,51210869848728E-07;100 nA
-0,650634765625;273,635103309138;-4,38201904296875E-08;-0,648590087890625;7;533;3,42909466475248E-07;-3,51210869848728E-07;100 nA
-0,70068359375;274,135591307874;-4,39697265625E-08;-0,698455810546875;7;534;3,42909466475248E-07;-3,51210869848728E-07;100 nA
-0,750732421875;274,636079306611;-4,27947998046875E-08;-0,74853515625;7;535;3,42909466475248E-07;-3,51210869848728E-07;100 nA
-0,80078125;275,136567305347;-4,11651611328125E-08;-0,79803466796875;7;536;3,42909466475248E-07;-3,51210869848728E-07;100 nA
-0,850830078125;275,637055304083;-3,997802734375E-08;-0,848388671875;7;537;3,42909466475248E-07;-3,51210869848728E-07;100 nA
-0,90087890625;276,13754330282;-3,9190673828125E-08;-0,89935302734375;7;538;3,42909466475248E-07;-3,51210869848728E-07;100 nA
-0,950927734375;276,638031301556;-3,89312744140625E-08;-0,94879150390625;7;539;3,42909466475248E-07;-3,51210869848728E-07;100 nA
-1,0009765625;277,138519300293;-4,05975341796875E-08;-0,99853515625;7;540;3,42909466475248E-07;-3,51210869848728E-07;100 nA
-0,950927734375;277,639007299029;-1,6058349609375E-08;-0,94879150390625;7;541;3,42909466475248E-07;-3,51210869848728E-07;100 nA
-0,90087890625;278,139495297765;-4,35791015625E-09;-0,89874267578125;7;542;3,42909466475248E-07;-3,51210869848728E-07;100 nA
-0,850830078125;278,639983296502;2,29522705078125E-09;-0,84930419921875;7;543;3,42909466475248E-07;-3,51210869848728E-07;100 nA
-0,80078125;279,140471295238;6,597900390625E-09;-0,79864501953125;7;544;3,42909466475248E-07;-3,51210869848728E-07;100 nA
-0,750732421875;279,640959293974;9,722900390625E-09;-0,748687744140625;7;545;3,42909466475248E-07;-3,51210869848728E-07;100 nA
-0,70068359375;280,141447292711;1,22222900390625E-08;-0,69866943359375;7;546;3,42909466475248E-07;-3,51210869848728E-07;100 nA
-0,650634765625;280,641935291447;1,416015625E-08;-0,648651123046875;7;547;3,42909466475248E-07;-3,51210869848728E-07;100 nA
-0,6005859375;281,142423290184;1,5936279296875E-08;-0,598785400390625;7;548;3,42909466475248E-07;-3,51210869848728E-07;100 nA
-0,550537109375;281,64291128892;1,7779541015625E-08;-0,548828125;7;549;3,42909466475248E-07;-3,51210869848728E-07;100 nA
-0,50048828125;282,143399287656;2,00775146484375E-08;-0,498931884765625;7;550;3,42909466475248E-07;-3,51210869848728E-07;100 nA
-0,450439453125;282,643887286393;2,3284912109375E-08;-0,44903564453125;7;551;3,42909466475248E-07;-3,51210869848728E-07;100 nA
-0,400390625;283,144375285129;2,8167724609375E-08;-0,399200439453125;7;552;3,42909466475248E-07;-3,51210869848728E-07;100 nA
-0,350341796875;283,644863283866;3,36395263671875E-08;-0,349273681640625;7;553;3,42909466475248E-07;-3,51210869848728E-07;100 nA
-0,30029296875;284,145351282602;3,71673583984375E-08;-0,29937744140625;7;554;3,42909466475248E-07;-3,51210869848728E-07;100 nA
-0,250244140625;284,645839281338;3,84063720703125E-08;-0,24945068359375;7;555;3,42909466475248E-07;-3,51210869848728E-07;100 nA
-0,2001953125;285,146327280075;3,60137939453125E-08;-0,199615478515625;7;556;3,42909466475248E-07;-3,51210869848728E-07;100 nA
-0,150146484375;285,646815278811;3,0712890625E-08;-0,149688720703125;7;557;3,42909466475248E-07;-3,51210869848728E-07;100 nA
-0,10009765625;286,147303277548;2,7032470703125E-08;-0,09979248046875;7;558;3,42909466475248E-07;-3,51210869848728E-07;100 nA
-0,050048828125;286,647791276284;2,4517822265625E-08;-0,049896240234375;7;559;3,42909466475248E-07;-3,51210869848728E-07;100 nA
0;287,14827927502;2,2576904296875E-08;9,1552734375E-05;7;560;3,42909466475248E-07;-3,51210869848728E-07;100 nA
0,050048828125;287,648767273757;2,1307373046875E-08;0,050018310546875;8;561;3,34898568689823E-07;-3,42479206621647E-07;100 nA
0,10009765625;288,149255272493;2,05657958984375E-08;0,0999755859375;8;562;3,34898568689823E-07;-3,42479206621647E-07;100 nA
0,150146484375;288,649743271229;2,01416015625E-08;0,149993896484375;8;563;3,34898568689823E-07;-3,42479206621647E-07;100 nA
0,2001953125;289,150231269966;1,95526123046875E-08;0,199981689453125;8;564;3,34898568689823E-07;-3,42479206621647E-07;100 nA
0,250244140625;289,650719268702;1,7864990234375E-08;0,250030517578125;8;565;3,34898568689823E-07;-3,42479206621647E-07;100 nA
0,30029296875;290,151207267439;1,58782958984375E-08;0,300048828125;8;566;3,34898568689823E-07;-3,42479206621647E-07;100 nA
0,350341796875;290,651695266175;1,3739013671875E-08;0,350067138671875;8;567;3,34898568689823E-07;-3,42479206621647E-07;100 nA
0,400390625;291,152183264911;1,2176513671875E-08;0,40008544921875;8;568;3,34898568689823E-07;-3,42479206621647E-07;100 nA
0,450439453125;291,652671263648;1,0772705078125E-08;0,450103759765625;8;569;3,34898568689823E-07;-3,42479206621647E-07;100 nA
0,50048828125;292,153159262384;9,8358154296875E-09;0,50006103515625;8;570;3,34898568689823E-07;-3,42479206621647E-07;100 nA
0,550537109375;292,653647261121;9,136962890625E-09;0,550048828125;8;571;3,34898568689823E-07;-3,42479206621647E-07;100 nA
0,6005859375;293,154135259857;8,953857421875E-09;0,60009765625;8;572;3,34898568689823E-07;-3,42479206621647E-07;100 nA
0,650634765625;293,654623258593;8,4930419921875E-09;0,6500244140625;8;573;3,34898568689823E-07;-3,42479206621647E-07;100 nA
0,70068359375;294,15511125733;8,380126953125E-09;0,699920654296875;8;574;3,34898568689823E-07;-3,42479206621647E-07;100 nA
0,750732421875;294,655599256066;8,4930419921875E-09;0,749786376953125;8;575;3,34898568689823E-07;-3,42479206621647E-07;100 nA
0,80078125;295,156087254803;8,8836669921875E-09;0,8001708984375;8;576;3,34898568689823E-07;-3,42479206621647E-07;100 nA
0,850830078125;295,656575253539;9,48486328125E-09;0,84991455078125;8;577;3,34898568689823E-07;-3,42479206621647E-07;100 nA
0,90087890625;296,157063252275;1,0302734375E-08;0,89996337890625;8;578;3,34898568689823E-07;-3,42479206621647E-07;100 nA
0,950927734375;296,657551251012;1,1627197265625E-08;0,95001220703125;8;579;3,34898568689823E-07;-3,42479206621647E-07;100 nA
1,0009765625;297,158039249748;1,26800537109375E-08;0,99945068359375;8;580;3,34898568689823E-07;-3,42479206621647E-07;100 nA
0,950927734375;297,658527248484;6,35986328125E-09;0,95001220703125;8;581;3,34898568689823E-07;-3,42479206621647E-07;100 nA
0,90087890625;298,159015247221;3,71063232421875E-09;0,9002685546875;8;582;3,34898568689823E-07;-3,42479206621647E-07;100 nA
0,850830078125;298,659503245957;2,35687255859375E-09;0,849609375;8;583;3,34898568689823E-07;-3,42479206621647E-07;100 nA
0,80078125;299,159991244694;1,57806396484375E-09;0,79986572265625;8;584;3,34898568689823E-07;-3,42479206621647E-07;100 nA
0,750732421875;299,66047924343;1,1273193359375E-09;0,75;8;585;3,34898568689823E-07;-3,42479206621647E-07;100 nA
0,70068359375;300,160967242166;8,17260742187501E-10;0,70001220703125;8;586;3,34898568689823E-07;-3,42479206621647E-07;100 nA
0,650634765625;300,661455240903;6,0150146484375E-10;0,650177001953125;8;587;3,34898568689823E-07;-3,42479206621647E-07;100 nA
0,6005859375;301,161943239639;4,28466796875E-10;0,60015869140625;8;588;3,34898568689823E-07;-3,42479206621647E-07;100 nA
0,550537109375;301,662431238376;2,5665283203125E-10;0,55023193359375;8;589;3,34898568689823E-07;-3,42479206621647E-07;100 nA
0,50048828125;302,162919237112;2,38037109375006E-11;0,500213623046875;8;590;3,34898568689823E-07;-3,42479206621647E-07;100 nA
0,450439453125;302,663407235848;-3,06091308593751E-10;0,450164794921875;8;591;3,34898568689823E-07;-3,42479206621647E-07;100 nA
0,400390625;303,163895234585;-7,62939453125E-10;0,4002685546875;8;592;3,34898568689823E-07;-3,42479206621647E-07;100 nA
0,350341796875;303,664383233321;-1,43646240234375E-09;0,350189208984375;8;593;3,34898568689823E-07;-3,42479206621647E-07;100 nA
0,30029296875;304,164871232058;-2,31689453125E-09;0,3001708984375;8;594;3,34898568689823E-07;-3,42479206621647E-07;100 nA
0,250244140625;304,665359230794;-3,302001953125E-09;0,250152587890625;8;595;3,34898568689823E-07;-3,42479206621647E-07;100 nA
0,2001953125;305,16584722953;-4,47998046875E-09;0,200164794921875;8;596;3,34898568689823E-07;-3,42479206621647E-07;100 nA
0,150146484375;305,666335228267;-6,787109375E-09;0,150146484375;8;597;3,34898568689823E-07;-3,42479206621647E-07;100 nA
0,10009765625;306,166823227003;-1,15234375E-08;0,10015869140625;8;598;3,34898568689823E-07;-3,42479206621647E-07;100 nA
0,050048828125;306,667311225739;-1,3275146484375E-08;0,0501708984375;8;599;3,34898568689823E-07;-3,42479206621647E-07;100 nA
0;307,167799224476;-1,31378173828125E-08;0,000180053710937503;8;600;3,34898568689823E-07;-3,42479206621647E-07;100 nA
-0,050048828125;307,668287223212;-1,31622314453125E-08;-0,0496978759765625;8;601;3,34898568689823E-07;-3,42479206621647E-07;100 nA
-0,10009765625;308,168775221949;-1,34429931640625E-08;-0,099609375;8;602;3,34898568689823E-07;-3,42479206621647E-07;100 nA
-0,150146484375;308,669263220685;-1,3909912109375E-08;-0,14947509765625;8;603;3,34898568689823E-07;-3,42479206621647E-07;100 nA
-0,2001953125;309,169751219421;-1,46148681640625E-08;-0,199432373046875;8;604;3,34898568689823E-07;-3,42479206621647E-07;100 nA
-0,250244140625;309,670239218158;-1,5643310546875E-08;-0,249298095703125;8;605;3,34898568689823E-07;-3,42479206621647E-07;100 nA
-0,30029296875;310,170727216894;-1,72454833984375E-08;-0,299224853515625;8;606;3,34898568689823E-07;-3,42479206621647E-07;100 nA
-0,350341796875;310,671215215631;-1,99462890625E-08;-0,349151611328125;8;607;3,34898568689823E-07;-3,42479206621647E-07;100 nA
-0,400390625;311,171703214367;-2,4713134765625E-08;-0,3990478515625;8;608;3,34898568689823E-07;-3,42479206621647E-07;100 nA
-0,450439453125;311,672191213103;-3,18450927734375E-08;-0,44891357421875;8;609;3,34898568689823E-07;-3,42479206621647E-07;100 nA
-0,50048828125;312,17267921184;-3,792724609375E-08;-0,49871826171875;8;610;3,34898568689823E-07;-3,42479206621647E-07;100 nA
-0,550537109375;312,673167210576;-3,9703369140625E-08;-0,548675537109375;8;611;3,34898568689823E-07;-3,42479206621647E-07;100 nA
-0,6005859375;313,173655209313;-4,1925048828125E-08;-0,59857177734375;8;612;3,34898568689823E-07;-3,42479206621647E-07;100 nA
-0,650634765625;313,674143208049;-4,26513671875E-08;-0,648529052734375;8;613;3,34898568689823E-07;-3,42479206621647E-07;100 nA
-0,70068359375;314,174631206785;-4,26239013671875E-08;-0,698486328125;8;614;3,34898568689823E-07;-3,42479206621647E-07;100 nA
-0,750732421875;314,675119205522;-4,15771484375E-08;-0,74853515625;8;615;3,34898568689823E-07;-3,42479206621647E-07;100 nA
-0,80078125;315,175607204258;-4,0216064453125E-08;-0,79864501953125;8;616;3,34898568689823E-07;-3,42479206621647E-07;100 nA
-0,850830078125;315,676095202994;-3,9239501953125E-08;-0,848388671875;8;617;3,34898568689823E-07;-3,42479206621647E-07;100 nA
-0,90087890625;316,176583201731;-3,85772705078125E-08;-0,8990478515625;8;618;3,34898568689823E-07;-3,42479206621647E-07;100 nA
-0,950927734375;316,677071200467;-3,8323974609375E-08;-0,948486328125;8;619;3,34898568689823E-07;-3,42479206621647E-07;100 nA
-1,0009765625;317,177559199204;-3,99505615234375E-08;-0,9991455078125;8;620;3,34898568689823E-07;-3,42479206621647E-07;100 nA
-0,950927734375;317,67804719794;-1,5594482421875E-08;-0,94879150390625;8;621;3,34898568689823E-07;-3,42479206621647E-07;100 nA
-0,90087890625;318,178535196676;-4,1290283203125E-09;-0,89874267578125;8;622;3,34898568689823E-07;-3,42479206621647E-07;100 nA
-0,850830078125;318,679023195413;2,34405517578125E-09;-0,8489990234375;8;623;3,34898568689823E-07;-3,42479206621647E-07;100 nA
-0,80078125;319,179511194149;6,5521240234375E-09;-0,79925537109375;8;624;3,34898568689823E-07;-3,42479206621647E-07;100 nA
-0,750732421875;319,679999192886;9,674072265625E-09;-0,7486572265625;8;625;3,34898568689823E-07;-3,42479206621647E-07;100 nA
-0,70068359375;320,180487191622;1,2158203125E-08;-0,698699951171875;8;626;3,34898568689823E-07;-3,42479206621647E-07;100 nA
-0,650634765625;320,680975190358;1,41510009765625E-08;-0,64874267578125;8;627;3,34898568689823E-07;-3,42479206621647E-07;100 nA
-0,6005859375;321,181463189095;1,5875244140625E-08;-0,598785400390625;8;628;3,34898568689823E-07;-3,42479206621647E-07;100 nA
-0,550537109375;321,681951187831;1,76910400390625E-08;-0,548828125;8;629;3,34898568689823E-07;-3,42479206621647E-07;100 nA
-0,50048828125;322,182439186568;1,99554443359375E-08;-0,49896240234375;8;630;3,34898568689823E-07;-3,42479206621647E-07;100 nA
-0,450439453125;322,682927185304;2,31414794921875E-08;-0,449005126953125;8;631;3,34898568689823E-07;-3,42479206621647E-07;100 nA
-0,400390625;323,18341518404;2,78472900390625E-08;-0,399169921875;8;632;3,34898568689823E-07;-3,42479206621647E-07;100 nA
-0,350341796875;323,683903182777;3,310546875E-08;-0,349334716796875;8;633;3,34898568689823E-07;-3,42479206621647E-07;100 nA
-0,30029296875;324,184391181513;3,65264892578125E-08;-0,299407958984375;8;634;3,34898568689823E-07;-3,42479206621647E-07;100 nA
-0,250244140625;324,684879180249;3,77349853515625E-08;-0,24951171875;8;635;3,34898568689823E-07;-3,42479206621647E-07;100 nA
-0,2001953125;325,185367178986;3,5040283203125E-08;-0,199554443359375;8;636;3,34898568689823E-07;-3,42479206621647E-07;100 nA
-0,150146484375;325,685855177722;2,9791259765625E-08;-0,149658203125;8;637;3,34898568689823E-07;-3,42479206621647E-07;100 nA
-0,10009765625;326,186343176459;2,61993408203125E-08;-0,099822998046875;8;638;3,34898568689823E-07;-3,42479206621647E-07;100 nA
-0,050048828125;326,686831175195;2,38311767578125E-08;-0,049896240234375;8;639;3,34898568689823E-07;-3,42479206621647E-07;100 nA
0;327,187319173931;2,19940185546875E-08;8,85009765625028E-05;8;640;3,34898568689823E-07;-3,42479206621647E-07;100 nA
0,050048828125;327,687807172668;2,081298828125E-08;0,050048828125;9;641;3,27102418988943E-07;-3,35096668452024E-07;100 nA
0,10009765625;328,188295171404;2,015380859375E-08;0,10003662109375;9;642;3,27102418988943E-07;-3,35096668452024E-07;100 nA
0,150146484375;328,688783170141;1,976318359375E-08;0,149993896484375;9;643;3,27102418988943E-07;-3,35096668452024E-07;100 nA
0,2001953125;329,189271168877;1,910400390625E-08;0,199981689453125;9;644;3,27102418988943E-07;-3,35096668452024E-07;100 nA
0,250244140625;329,689759167613;1,712646484375E-08;0,250030517578125;9;645;3,27102418988943E-07;-3,35096668452024E-07;100 nA
0,30029296875;330,19024716635;1,49017333984375E-08;0,300018310546875;9;646;3,27102418988943E-07;-3,35096668452024E-07;100 nA
0,350341796875;330,690735165086;1,2982177734375E-08;0,35015869140625;9;647;3,27102418988943E-07;-3,35096668452024E-07;100 nA
0,400390625;331,191223163823;1,15234375E-08;0,400115966796875;9;648;3,27102418988943E-07;-3,35096668452024E-07;100 nA
0,450439453125;331,691711162559;1,0223388671875E-08;0,4500732421875;9;649;3,27102418988943E-07;-3,35096668452024E-07;100 nA
0,50048828125;332,192199161295;9,332275390625E-09;0,50018310546875;9;650;3,27102418988943E-07;-3,35096668452024E-07;100 nA
0,550537109375;332,692687160032;8,6822509765625E-09;0,550079345703125;9;651;3,27102418988943E-07;-3,35096668452024E-07;100 nA
0,6005859375;333,193175158768;8,3221435546875E-09;0,600128173828125;9;652;3,27102418988943E-07;-3,35096668452024E-07;100 nA
0,650634765625;333,693663157504;8,02001953125E-09;0,649993896484375;9;653;3,27102418988943E-07;-3,35096668452024E-07;100 nA
0,70068359375;334,194151156241;8,0230712890625E-09;0,699920654296875;9;654;3,27102418988943E-07;-3,35096668452024E-07;100 nA
0,750732421875;334,694639154977;8,10546875E-09;0,7498779296875;9;655;3,27102418988943E-07;-3,35096668452024E-07;100 nA
0,80078125;335,195127153714;8,5052490234375E-09;0,8001708984375;9;656;3,27102418988943E-07;-3,35096668452024E-07;100 nA
0,850830078125;335,69561515245;9,173583984375E-09;0,8502197265625;9;657;3,27102418988943E-07;-3,35096668452024E-07;100 nA
0,90087890625;336,196103151186;9,9609375E-09;0,9002685546875;9;658;3,27102418988943E-07;-3,35096668452024E-07;100 nA
0,950927734375;336,696591149923;1,11175537109375E-08;0,9490966796875;9;659;3,27102418988943E-07;-3,35096668452024E-07;100 nA
1,0009765625;337,197079148659;1,24481201171875E-08;1,00006103515625;9;660;3,27102418988943E-07;-3,35096668452024E-07;100 nA
0,950927734375;337,697567147396;6,2957763671875E-09;0,94970703125;9;661;3,27102418988943E-07;-3,35096668452024E-07;100 nA
0,90087890625;338,198055146132;3,65386962890625E-09;0,89996337890625;9;662;3,27102418988943E-07;-3,35096668452024E-07;100 nA
0,850830078125;338,698543144868;2,28057861328125E-09;0,84991455078125;9;663;3,27102418988943E-07;-3,35096668452024E-07;100 nA
0,80078125;339,199031143605;1,56951904296875E-09;0,799560546875;9;664;3,27102418988943E-07;-3,35096668452024E-07;100 nA
0,750732421875;339,699519142341;1,1126708984375E-09;0,749969482421875;9;665;3,27102418988943E-07;-3,35096668452024E-07;100 nA
0,70068359375;340,200007141078;8,0841064453125E-10;0,700103759765625;9;666;3,27102418988943E-07;-3,35096668452024E-07;100 nA
0,650634765625;340,700495139814;5,706787109375E-10;0,650146484375;9;667;3,27102418988943E-07;-3,35096668452024E-07;100 nA
0,6005859375;341,20098313855;3,77502441406249E-10;0,600250244140625;9;668;3,27102418988943E-07;-3,35096668452024E-07;100 nA
0,550537109375;341,701471137287;2,30712890625E-10;0,550201416015625;9;669;3,27102418988943E-07;-3,35096668452024E-07;100 nA
0,50048828125;342,201959136023;1,983642578125E-11;0,500274658203125;9;670;3,27102418988943E-07;-3,35096668452024E-07;100 nA
0,450439453125;342,70244713476;-2,8717041015625E-10;0,450225830078125;9;671;3,27102418988943E-07;-3,35096668452024E-07;100 nA
0,400390625;343,202935133496;-6,3751220703125E-10;0,40020751953125;9;672;3,27102418988943E-07;-3,35096668452024E-07;100 nA
0,350341796875;343,703423132232;-1,27227783203125E-09;0,3502197265625;9;673;3,27102418988943E-07;-3,35096668452024E-07;100 nA
0,30029296875;344,203911130969;-2,10479736328125E-09;0,3001708984375;9;674;3,27102418988943E-07;-3,35096668452024E-07;100 nA
0,250244140625;344,704399129705;-3,0352783203125E-09;0,25018310546875;9;675;3,27102418988943E-07;-3,35096668452024E-07;100 nA
0,2001953125;345,204887128441;-4,19921875E-09;0,200103759765625;9;676;3,27102418988943E-07;-3,35096668452024E-07;100 nA
0,150146484375;345,705375127178;-6,3812255859375E-09;0,150115966796875;9;677;3,27102418988943E-07;-3,35096668452024E-07;100 nA
0,10009765625;346,205863125914;-1,08734130859375E-08;0,100128173828125;9;678;3,27102418988943E-07;-3,35096668452024E-07;100 nA
0,050048828125;346,706351124651;-1,29302978515625E-08;0,0501708984375;9;679;3,27102418988943E-07;-3,35096668452024E-07;100 nA
0;347,206839123387;-1,28753662109375E-08;0,000173950195312494;9;680;3,27102418988943E-07;-3,35096668452024E-07;100 nA
-0,050048828125;347,707327122123;-1,29638671875E-08;-0,0496856689453125;9;681;3,27102418988943E-07;-3,35096668452024E-07;100 nA
-0,10009765625;348,20781512086;-1,32904052734375E-08;-0,099639892578125;9;682;3,27102418988943E-07;-3,35096668452024E-07;100 nA
-0,150146484375;348,708303119596;-1,37908935546875E-08;-0,149566650390625;9;683;3,27102418988943E-07;-3,35096668452024E-07;100 nA
-0,2001953125;349,208791118333;-1,4501953125E-08;-0,19940185546875;9;684;3,27102418988943E-07;-3,35096668452024E-07;100 nA
-0,250244140625;349,709279117069;-1,55242919921875E-08;-0,24932861328125;9;685;3,27102418988943E-07;-3,35096668452024E-07;100 nA
-0,30029296875;350,209767115805;-1,7041015625E-08;-0,299224853515625;9;686;3,27102418988943E-07;-3,35096668452024E-07;100 nA
-0,350341796875;350,710255114542;-1,95404052734375E-08;-0,34912109375;9;687;3,27102418988943E-07;-3,35096668452024E-07;100 nA
-0,400390625;351,210743113278;-2,39837646484375E-08;-0,399078369140625;9;688;3,27102418988943E-07;-3,35096668452024E-07;100 nA
-0,450439453125;351,711231112015;-3,084716796875E-08;-0,448883056640625;9;689;3,27102418988943E-07;-3,35096668452024E-07;100 nA
-0,50048828125;352,211719110751;-3,68133544921875E-08;-0,498779296875;9;690;3,27102418988943E-07;-3,35096668452024E-07;100 nA
-0,550537109375;352,712207109487;-3,88092041015625E-08;-0,548675537109375;9;691;3,27102418988943E-07;-3,35096668452024E-07;100 nA
-0,6005859375;353,212695108224;-4,111328125E-08;-0,598541259765625;9;692;3,27102418988943E-07;-3,35096668452024E-07;100 nA
-0,650634765625;353,71318310696;-4,17816162109375E-08;-0,648468017578125;9;693;3,27102418988943E-07;-3,35096668452024E-07;100 nA
-0,70068359375;354,213671105696;-4,16839599609375E-08;-0,698486328125;9;694;3,27102418988943E-07;-3,35096668452024E-07;100 nA
-0,750732421875;354,714159104433;-4,075927734375E-08;-0,74847412109375;9;695;3,27102418988943E-07;-3,35096668452024E-07;100 nA
-0,80078125;355,214647103169;-3,94775390625E-08;-0,7989501953125;9;696;3,27102418988943E-07;-3,35096668452024E-07;100 nA
-0,850830078125;355,715135101906;-3,868408203125E-08;-0,84869384765625;9;697;3,27102418988943E-07;-3,35096668452024E-07;100 nA
-0,90087890625;356,215623100642;-3,8018798828125E-08;-0,8984375;9;698;3,27102418988943E-07;-3,35096668452024E-07;100 nA
-0,950927734375;356,716111099378;-3,7847900390625E-08;-0,948486328125;9;699;3,27102418988943E-07;-3,35096668452024E-07;100 nA
-1,0009765625;357,216599098115;-3,9434814453125E-08;-0,99853515625;9;700;3,27102418988943E-07;-3,35096668452024E-07;100 nA
-0,950927734375;357,717087096851;-1,52099609375E-08;-0,94879150390625;9;701;3,27102418988943E-07;-3,35096668452024E-07;100 nA
-0,90087890625;358,217575095588;-3,82537841796875E-09;-0,8990478515625;9;702;3,27102418988943E-07;-3,35096668452024E-07;100 nA
-0,850830078125;358,718063094324;2,58026123046875E-09;-0,8489990234375;9;703;3,27102418988943E-07;-3,35096668452024E-07;100 nA
-0,80078125;359,21855109306;6,7779541015625E-09;-0,79833984375;9;704;3,27102418988943E-07;-3,35096668452024E-07;100 nA
-0,750732421875;359,719039091797;9,8388671875E-09;-0,748687744140625;9;705;3,27102418988943E-07;-3,35096668452024E-07;100 nA
-0,70068359375;360,219527090533;1,2200927734375E-08;-0,69866943359375;9;706;3,27102418988943E-07;-3,35096668452024E-07;100 nA
-0,650634765625;360,72001508927;1,40777587890625E-08;-0,648681640625;9;707;3,27102418988943E-07;-3,35096668452024E-07;100 nA
-0,6005859375;361,220503088006;1,573486328125E-08;-0,5987548828125;9;708;3,27102418988943E-07;-3,35096668452024E-07;100 nA
-0,550537109375;361,720991086742;1,7535400390625E-08;-0,548858642578125;9;709;3,27102418988943E-07;-3,35096668452024E-07;100 nA
-0,50048828125;362,221479085479;1,98272705078125E-08;-0,498870849609375;9;710;3,27102418988943E-07;-3,35096668452024E-07;100 nA
-0,450439453125;362,721967084215;2,30804443359375E-08;-0,4490966796875;9;711;3,27102418988943E-07;-3,35096668452024E-07;100 nA
-0,400390625;363,222455082951;2,76885986328125E-08;-0,399200439453125;9;712;3,27102418988943E-07;-3,35096668452024E-07;100 nA
-0,350341796875;363,722943081688;3,27667236328125E-08;-0,349334716796875;9;713;3,27102418988943E-07;-3,35096668452024E-07;100 nA
-0,30029296875;364,223431080424;3,60260009765625E-08;-0,299346923828125;9;714;3,27102418988943E-07;-3,35096668452024E-07;100 nA
-0,250244140625;364,723919079161;3,7091064453125E-08;-0,24945068359375;9;715;3,27102418988943E-07;-3,35096668452024E-07;100 nA
-0,2001953125;365,224407077897;3,4039306640625E-08;-0,1995849609375;9;716;3,27102418988943E-07;-3,35096668452024E-07;100 nA
-0,150146484375;365,724895076633;2,89276123046875E-08;-0,149688720703125;9;717;3,27102418988943E-07;-3,35096668452024E-07;100 nA
-0,10009765625;366,22538307537;2,54730224609375E-08;-0,09979248046875;9;718;3,27102418988943E-07;-3,35096668452024E-07;100 nA
-0,050048828125;366,725871074106;2,320556640625E-08;-0,049896240234375;9;719;3,27102418988943E-07;-3,35096668452024E-07;100 nA
0;367,226359072843;2,14935302734375E-08;8,54492187500056E-05;9;720;3,27102418988943E-07;-3,35096668452024E-07;100 nA
0,050048828125;367,726847071579;2,041015625E-08;0,050079345703125;10;721;3,20671431720257E-07;-3,28280173242092E-07;100 nA
0,10009765625;368,227335070315;1,98455810546875E-08;0,10003662109375;10;722;3,20671431720257E-07;-3,28280173242092E-07;100 nA
0,150146484375;368,727823069052;1,94427490234375E-08;0,149993896484375;10;723;3,20671431720257E-07;-3,28280173242092E-07;100 nA
0,2001953125;369,228311067788;1,86767578125E-08;0,200042724609375;10;724;3,20671431720257E-07;-3,28280173242092E-07;100 nA
0,250244140625;369,728799066525;1,6510009765625E-08;0,25006103515625;10;725;3,20671431720257E-07;-3,28280173242092E-07;100 nA
0,30029296875;370,229287065261;1,41632080078125E-08;0,300079345703125;10;726;3,20671431720257E-07;-3,28280173242092E-07;100 nA
0,350341796875;370,729775063997;1,2396240234375E-08;0,35009765625;10;727;3,20671431720257E-07;-3,28280173242092E-07;100 nA
0,400390625;371,230263062734;1,103515625E-08;0,400115966796875;10;728;3,20671431720257E-07;-3,28280173242092E-07;100 nA
0,450439453125;371,73075106147;9,9090576171875E-09;0,45013427734375;10;729;3,20671431720257E-07;-3,28280173242092E-07;100 nA
0,50048828125;372,231239060206;9,1400146484375E-09;0,5001220703125;10;730;3,20671431720257E-07;-3,28280173242092E-07;100 nA
0,550537109375;372,731727058943;8,4716796875E-09;0,550079345703125;10;731;3,20671431720257E-07;-3,28280173242092E-07;100 nA
0,6005859375;373,232215057679;8,111572265625E-09;0,600067138671875;10;732;3,20671431720257E-07;-3,28280173242092E-07;100 nA
0,650634765625;373,732703056416;7,9010009765625E-09;0,65008544921875;10;733;3,20671431720257E-07;-3,28280173242092E-07;100 nA
0,70068359375;374,233191055152;7,8369140625E-09;0,699951171875;10;734;3,20671431720257E-07;-3,28280173242092E-07;100 nA
0,750732421875;374,733679053888;7,9010009765625E-09;0,749847412109375;10;735;3,20671431720257E-07;-3,28280173242092E-07;100 nA
0,80078125;375,234167052625;8,221435546875E-09;0,799560546875;10;736;3,20671431720257E-07;-3,28280173242092E-07;100 nA
0,850830078125;375,734655051361;8,82568359375E-09;0,8502197265625;10;737;3,20671431720257E-07;-3,28280173242092E-07;100 nA
0,90087890625;376,235143050098;9,7442626953125E-09;0,899658203125;10;738;3,20671431720257E-07;-3,28280173242092E-07;100 nA
0,950927734375;376,735631048834;1,082763671875E-08;0,94970703125;10;739;3,20671431720257E-07;-3,28280173242092E-07;100 nA
1,0009765625;377,23611904757;1,21826171875E-08;0,99945068359375;10;740;3,20671431720257E-07;-3,28280173242092E-07;100 nA
0,950927734375;377,736607046307;6,201171875E-09;0,94940185546875;10;741;3,20671431720257E-07;-3,28280173242092E-07;100 nA
0,90087890625;378,237095045043;3,61663818359375E-09;0,899658203125;10;742;3,20671431720257E-07;-3,28280173242092E-07;100 nA
0,850830078125;378,73758304378;2,30438232421875E-09;0,8502197265625;10;743;3,20671431720257E-07;-3,28280173242092E-07;100 nA
0,80078125;379,238071042516;1,58111572265625E-09;0,8001708984375;10;744;3,20671431720257E-07;-3,28280173242092E-07;100 nA
0,750732421875;379,738559041252;1,1083984375E-09;0,75;10;745;3,20671431720257E-07;-3,28280173242092E-07;100 nA
0,70068359375;380,239047039989;7,9010009765625E-10;0,7000732421875;10;746;3,20671431720257E-07;-3,28280173242092E-07;100 nA
0,650634765625;380,739535038725;5,86853027343751E-10;0,650177001953125;10;747;3,20671431720257E-07;-3,28280173242092E-07;100 nA
0,6005859375;381,240023037461;3,826904296875E-10;0,600189208984375;10;748;3,20671431720257E-07;-3,28280173242092E-07;100 nA
0,550537109375;381,740511036198;1,9378662109375E-10;0,5501708984375;10;749;3,20671431720257E-07;-3,28280173242092E-07;100 nA
0,50048828125;382,240999034934;2,01416015624997E-11;0,50018310546875;10;750;3,20671431720257E-07;-3,28280173242092E-07;100 nA
0,450439453125;382,741487033671;-2,1240234375E-10;0,45013427734375;10;751;3,20671431720257E-07;-3,28280173242092E-07;100 nA
0,400390625;383,241975032407;-5,92956542968751E-10;0,400177001953125;10;752;3,20671431720257E-07;-3,28280173242092E-07;100 nA
0,350341796875;383,742463031143;-1,17950439453125E-09;0,350250244140625;10;753;3,20671431720257E-07;-3,28280173242092E-07;100 nA
0,30029296875;384,24295102988;-1,9610595703125E-09;0,300201416015625;10;754;3,20671431720257E-07;-3,28280173242092E-07;100 nA
0,250244140625;384,743439028616;-2,841796875E-09;0,25018310546875;10;755;3,20671431720257E-07;-3,28280173242092E-07;100 nA
0,2001953125;385,243927027353;-3,95782470703125E-09;0,200103759765625;10;756;3,20671431720257E-07;-3,28280173242092E-07;100 nA
0,150146484375;385,744415026089;-6,0455322265625E-09;0,150146484375;10;757;3,20671431720257E-07;-3,28280173242092E-07;100 nA
0,10009765625;386,244903024825;-1,03363037109375E-08;0,10015869140625;10;758;3,20671431720257E-07;-3,28280173242092E-07;100 nA
0,050048828125;386,745391023562;-1,26800537109375E-08;0,050140380859375;10;759;3,20671431720257E-07;-3,28280173242092E-07;100 nA
0;387,245879022298;-1,27288818359375E-08;0,000180053710937503;10;760;3,20671431720257E-07;-3,28280173242092E-07;100 nA
-0,050048828125;387,746367021035;-1,28631591796875E-08;-0,049688720703125;10;761;3,20671431720257E-07;-3,28280173242092E-07;100 nA
-0,10009765625;388,246855019771;-1,3238525390625E-08;-0,099609375;10;762;3,20671431720257E-07;-3,28280173242092E-07;100 nA
-0,150146484375;388,747343018507;-1,37054443359375E-08;-0,149566650390625;10;763;3,20671431720257E-07;-3,28280173242092E-07;100 nA
-0,2001953125;389,247831017244;-1,43890380859375E-08;-0,199462890625;10;764;3,20671431720257E-07;-3,28280173242092E-07;100 nA
-0,250244140625;389,74831901598;-1,536865234375E-08;-0,249298095703125;10;765;3,20671431720257E-07;-3,28280173242092E-07;100 nA
-0,30029296875;390,248807014716;-1,68212890625E-08;-0,299224853515625;10;766;3,20671431720257E-07;-3,28280173242092E-07;100 nA
-0,350341796875;390,749295013453;-1,91680908203125E-08;-0,34918212890625;10;767;3,20671431720257E-07;-3,28280173242092E-07;100 nA
-0,400390625;391,249783012189;-2,3297119140625E-08;-0,39898681640625;10;768;3,20671431720257E-07;-3,28280173242092E-07;100 nA
-0,450439453125;391,750271010926;-2,98126220703125E-08;-0,4488525390625;10;769;3,20671431720257E-07;-3,28280173242092E-07;100 nA
-0,50048828125;392,250759009662;-3,582763671875E-08;-0,498748779296875;10;770;3,20671431720257E-07;-3,28280173242092E-07;100 nA
-0,550537109375;392,751247008398;-3,80584716796875E-08;-0,5487060546875;10;771;3,20671431720257E-07;-3,28280173242092E-07;100 nA
-0,6005859375;393,251735007135;-4,0380859375E-08;-0,598541259765625;10;772;3,20671431720257E-07;-3,28280173242092E-07;100 nA
-0,650634765625;393,752223005871;-4,10125732421875E-08;-0,64849853515625;10;773;3,20671431720257E-07;-3,28280173242092E-07;100 nA
-0,70068359375;394,252711004608;-4,08966064453125E-08;-0,698516845703125;10;774;3,20671431720257E-07;-3,28280173242092E-07;100 nA
-0,750732421875;394,753199003344;-4,00238037109375E-08;-0,748504638671875;10;775;3,20671431720257E-07;-3,28280173242092E-07;100 nA
-0,80078125;395,25368700208;-3,88214111328125E-08;-0,79833984375;10;776;3,20671431720257E-07;-3,28280173242092E-07;100 nA
-0,850830078125;395,754175000817;-3,804931640625E-08;-0,84869384765625;10;777;3,20671431720257E-07;-3,28280173242092E-07;100 nA
-0,90087890625;396,254662999553;-3,74664306640625E-08;-0,89874267578125;10;778;3,20671431720257E-07;-3,28280173242092E-07;100 nA
-0,950927734375;396,75515099829;-3,71917724609375E-08;-0,948486328125;10;779;3,20671431720257E-07;-3,28280173242092E-07;100 nA
-1,0009765625;397,255638997026;-3,87725830078125E-08;-0,99822998046875;10;780;3,20671431720257E-07;-3,28280173242092E-07;100 nA
-0,950927734375;397,756126995762;-1,47491455078125E-08;-0,9490966796875;10;781;3,20671431720257E-07;-3,28280173242092E-07;100 nA
-0,90087890625;398,256614994499;-3,46893310546875E-09;-0,89874267578125;10;782;3,20671431720257E-07;-3,28280173242092E-07;100 nA
-0,850830078125;398,757102993235;2,8076171875E-09;-0,84869384765625;10;783;3,20671431720257E-07;-3,28280173242092E-07;100 nA
-0,80078125;399,257590991971;6,9091796875E-09;-0,79925537109375;10;784;3,20671431720257E-07;-3,28280173242092E-07;100 nA
-0,750732421875;399,758078990708;9,8846435546875E-09;-0,748687744140625;10;785;3,20671431720257E-07;-3,28280173242092E-07;100 nA
-0,70068359375;400,258566989444;1,21978759765625E-08;-0,698638916015625;10;786;3,20671431720257E-07;-3,28280173242092E-07;100 nA
-0,650634765625;400,759054988181;1,402587890625E-08;-0,648681640625;10;787;3,20671431720257E-07;-3,28280173242092E-07;100 nA
-0,6005859375;401,259542986917;1,56402587890625E-08;-0,5987548828125;10;788;3,20671431720257E-07;-3,28280173242092E-07;100 nA
-0,550537109375;401,760030985653;1,74163818359375E-08;-0,54888916015625;10;789;3,20671431720257E-07;-3,28280173242092E-07;100 nA
-0,50048828125;402,26051898439;1,9683837890625E-08;-0,498992919921875;10;790;3,20671431720257E-07;-3,28280173242092E-07;100 nA
-0,450439453125;402,761006983126;2,2882080078125E-08;-0,44903564453125;10;791;3,20671431720257E-07;-3,28280173242092E-07;100 nA
-0,400390625;403,261494981863;2,73895263671875E-08;-0,399200439453125;10;792;3,20671431720257E-07;-3,28280173242092E-07;100 nA
-0,350341796875;403,761982980599;3,2305908203125E-08;-0,349273681640625;10;793;3,20671431720257E-07;-3,28280173242092E-07;100 nA
-0,30029296875;404,262470979335;3,543701171875E-08;-0,2994384765625;10;794;3,20671431720257E-07;-3,28280173242092E-07;100 nA
-0,250244140625;404,762958978072;3,63525390625E-08;-0,24945068359375;10;795;3,20671431720257E-07;-3,28280173242092E-07;100 nA
-0,2001953125;405,263446976808;3,2904052734375E-08;-0,19964599609375;10;796;3,20671431720257E-07;-3,28280173242092E-07;100 nA
-0,150146484375;405,763934975545;2,80517578125E-08;-0,14959716796875;10;797;3,20671431720257E-07;-3,28280173242092E-07;100 nA
-0,10009765625;406,264422974281;2,47833251953125E-08;-0,09979248046875;10;798;3,20671431720257E-07;-3,28280173242092E-07;100 nA
-0,050048828125;406,764910973017;2,26776123046875E-08;-0,04986572265625;10;799;3,20671431720257E-07;-3,28280173242092E-07;100 nA
0;407,265398971754;2,10296630859375E-08;0,000103759765625003;10;800;3,20671431720257E-07;-3,28280173242092E-07;100 nA
