Potential applied (V);Time (s);WE(1).Current (A);WE(1).Potential (V);Scan;Index;Q+;Q-;Current range
0,050048828125;7,39111498133923;8,6578369140625E-09;0,050048828125;1;1;8,30180659890175E-07;-1,36935231089592E-06;100 nA
0,10009765625;7,89160298007562;1,2091064453125E-08;0,100067138671875;1;2;8,30180659890175E-07;-1,36935231089592E-06;100 nA
0,150146484375;8,39209097881201;1,2310791015625E-08;0,150054931640625;1;3;8,30180659890175E-07;-1,36935231089592E-06;100 nA
0,2001953125;8,8925789775484;1,278076171875E-08;0,200042724609375;1;4;8,30180659890175E-07;-1,36935231089592E-06;100 nA
0,250244140625;9,39306697628479;1,21612548828125E-08;0,250091552734375;1;5;8,30180659890175E-07;-1,36935231089592E-06;100 nA
0,30029296875;9,89355497502117;1,05316162109375E-08;0,300048828125;1;6;8,30180659890175E-07;-1,36935231089592E-06;100 nA
0,350341796875;10,3940429737576;9,4482421875E-09;0,35009765625;1;7;8,30180659890175E-07;-1,36935231089592E-06;100 nA
0,400390625;10,894530972494;8,6456298828125E-09;0,400146484375;1;8;8,30180659890175E-07;-1,36935231089592E-06;100 nA
0,450439453125;11,3950189712303;8,135986328125E-09;0,450042724609375;1;9;8,30180659890175E-07;-1,36935231089592E-06;100 nA
0,50048828125;11,8955069699667;7,60498046875E-09;0,500152587890625;1;10;8,30180659890175E-07;-1,36935231089592E-06;100 nA
0,550537109375;12,3959949687031;7,1746826171875E-09;0,55010986328125;1;11;8,30180659890175E-07;-1,36935231089592E-06;100 nA
0,6005859375;12,8964829674395;7,0281982421875E-09;0,600128173828125;1;12;8,30180659890175E-07;-1,36935231089592E-06;100 nA
0,650634765625;13,3969709661759;6,982421875E-09;0,6500244140625;1;13;8,30180659890175E-07;-1,36935231089592E-06;100 nA
0,70068359375;13,8974589649123;6,9580078125E-09;0,699920654296875;1;14;8,30180659890175E-07;-1,36935231089592E-06;100 nA
0,750732421875;14,3979469636487;7,2601318359375E-09;0,749847412109375;1;15;8,30180659890175E-07;-1,36935231089592E-06;100 nA
0,80078125;14,8984349623851;7,525634765625E-09;0,79986572265625;1;16;8,30180659890175E-07;-1,36935231089592E-06;100 nA
0,850830078125;15,3989229611215;7,9833984375E-09;0,8502197265625;1;17;8,30180659890175E-07;-1,36935231089592E-06;100 nA
0,90087890625;15,8994109598578;8,709716796875E-09;0,899658203125;1;18;8,30180659890175E-07;-1,36935231089592E-06;100 nA
0,950927734375;16,3998989585942;1,0357666015625E-08;0,95001220703125;1;19;8,30180659890175E-07;-1,36935231089592E-06;100 nA
1,0009765625;16,9003869573306;1,28692626953125E-08;0,999755859375;1;20;8,30180659890175E-07;-1,36935231089592E-06;100 nA
0,950927734375;17,400874956067;8,4747314453125E-09;0,94970703125;1;21;8,30180659890175E-07;-1,36935231089592E-06;100 nA
0,90087890625;17,9013629548034;6,1065673828125E-09;0,899658203125;1;22;8,30180659890175E-07;-1,36935231089592E-06;100 nA
0,850830078125;18,4018509535398;4,67529296875E-09;0,84991455078125;1;23;8,30180659890175E-07;-1,36935231089592E-06;100 nA
0,80078125;18,9023389522762;3,912353515625E-09;0,79986572265625;1;24;8,30180659890175E-07;-1,36935231089592E-06;100 nA
0,750732421875;19,4028269510126;3,4393310546875E-09;0,7498779296875;1;25;8,30180659890175E-07;-1,36935231089592E-06;100 nA
0,70068359375;19,903314949749;3,1463623046875E-09;0,699951171875;1;26;8,30180659890175E-07;-1,36935231089592E-06;100 nA
0,650634765625;20,4038029484854;2,911376953125E-09;0,65008544921875;1;27;8,30180659890175E-07;-1,36935231089592E-06;100 nA
0,6005859375;20,9042909472217;2,813720703125E-09;0,60009765625;1;28;8,30180659890175E-07;-1,36935231089592E-06;100 nA
0,550537109375;21,4047789459581;2,813720703125E-09;0,5501708984375;1;29;8,30180659890175E-07;-1,36935231089592E-06;100 nA
0,50048828125;21,9052669446945;2,7557373046875E-09;0,500091552734375;1;30;8,30180659890175E-07;-1,36935231089592E-06;100 nA
0,450439453125;22,4057549434309;2,667236328125E-09;0,45013427734375;1;31;8,30180659890175E-07;-1,36935231089592E-06;100 nA
0,400390625;22,9062429421673;2,581787109375E-09;0,400146484375;1;32;8,30180659890175E-07;-1,36935231089592E-06;100 nA
0,350341796875;23,4067309409037;2,36175537109375E-09;0,35015869140625;1;33;8,30180659890175E-07;-1,36935231089592E-06;100 nA
0,30029296875;23,9072189396401;2,0953369140625E-09;0,3001708984375;1;34;8,30180659890175E-07;-1,36935231089592E-06;100 nA
0,250244140625;24,4077069383765;1,7425537109375E-09;0,2501220703125;1;35;8,30180659890175E-07;-1,36935231089592E-06;100 nA
0,2001953125;24,9081949371129;1,22344970703125E-09;0,20013427734375;1;36;8,30180659890175E-07;-1,36935231089592E-06;100 nA
0,150146484375;25,4086829358492;4,7607421875E-10;0,150146484375;1;37;8,30180659890175E-07;-1,36935231089592E-06;100 nA
0,10009765625;25,9091709345856;-2,960205078125E-10;0,10009765625;1;38;8,30180659890175E-07;-1,36935231089592E-06;100 nA
0,050048828125;26,409658933322;-9,95483398437499E-10;0,0501708984375;1;39;8,30180659890175E-07;-1,36935231089592E-06;100 nA
0;26,9101469320584;-2,47802734375E-09;0,000155639648437497;1;40;8,30180659890175E-07;-1,36935231089592E-06;100 nA
-0,050048828125;27,4106349307948;-7,50732421875E-09;-0,049713134765625;1;41;8,30180659890175E-07;-1,36935231089592E-06;100 nA
-0,10009765625;27,9111229295312;-6,451416015625E-09;-0,09967041015625;1;42;8,30180659890175E-07;-1,36935231089592E-06;100 nA
-0,150146484375;28,4116109282676;-4,9591064453125E-09;-0,149566650390625;1;43;8,30180659890175E-07;-1,36935231089592E-06;100 nA
-0,2001953125;28,912098927004;-4,3365478515625E-09;-0,199462890625;1;44;8,30180659890175E-07;-1,36935231089592E-06;100 nA
-0,250244140625;29,4125869257404;-4,0435791015625E-09;-0,24932861328125;1;45;8,30180659890175E-07;-1,36935231089592E-06;100 nA
-0,30029296875;29,9130749244767;-4,0740966796875E-09;-0,29925537109375;1;46;8,30180659890175E-07;-1,36935231089592E-06;100 nA
-0,350341796875;30,4135629232131;-4,5867919921875E-09;-0,34918212890625;1;47;8,30180659890175E-07;-1,36935231089592E-06;100 nA
-0,400390625;30,9140509219495;-5,8197021484375E-09;-0,399139404296875;1;48;8,30180659890175E-07;-1,36935231089592E-06;100 nA
-0,450439453125;31,4145389206859;-8,65478515625E-09;-0,448944091796875;1;49;8,30180659890175E-07;-1,36935231089592E-06;100 nA
-0,50048828125;31,9150269194223;-1,5948486328125E-08;-0,498870849609375;1;50;8,30180659890175E-07;-1,36935231089592E-06;100 nA
-0,550537109375;32,4155149181587;-3,24615478515625E-08;-0,5487060546875;1;51;8,30180659890175E-07;-1,36935231089592E-06;100 nA
-0,6005859375;32,9160029168951;-6,060791015625E-08;-0,5985107421875;1;52;8,30180659890175E-07;-1,36935231089592E-06;100 nA
-0,650634765625;33,4164909156315;-1,0235595703125E-07;-0,64837646484375;1;53;8,30180659890175E-07;-1,36935231089592E-06;100 nA
-0,70068359375;33,9169789143679;-1,607666015625E-07;-0,698272705078125;1;54;8,30180659890175E-07;-1,36935231089592E-06;100 nA
-0,750732421875;34,4174669131042;-2,27203369140625E-07;-0,748077392578125;1;55;8,30180659890175E-07;-1,36935231089592E-06;100 nA
-0,80078125;34,9179549118406;-2,6995849609375E-07;-0,79833984375;1;56;8,30180659890175E-07;-1,36935231089592E-06;100 nA
-0,850830078125;35,418442910577;-2,9925537109375E-07;-0,8489990234375;1;57;8,30180659890175E-07;-1,36935231089592E-06;100 nA
-0,90087890625;35,9189309093134;-3,26995849609375E-07;-0,89813232421875;1;58;8,30180659890175E-07;-1,36935231089592E-06;100 nA
-0,950927734375;36,4194189080498;-3,55133056640625E-07;-0,94879150390625;1;59;8,30180659890175E-07;-1,36935231089592E-06;1 µA
-1,0009765625;36,9199069067862;-3,7109375E-07;-0,99884033203125;1;60;8,30180659890175E-07;-1,36935231089592E-06;1 µA
-0,950927734375;37,4203949055226;-2,3236083984375E-07;-0,94879150390625;1;61;8,30180659890175E-07;-1,36935231089592E-06;1 µA
-0,90087890625;37,920882904259;-1,34857177734375E-07;-0,89874267578125;1;62;8,30180659890175E-07;-1,36935231089592E-06;1 µA
-0,850830078125;38,4213709029954;-6,8756103515625E-08;-0,8489990234375;1;63;8,30180659890175E-07;-1,36935231089592E-06;1 µA
-0,80078125;38,9218589017318;-2,40753173828125E-08;-0,79833984375;1;64;8,30180659890175E-07;-1,36935231089592E-06;1 µA
-0,750732421875;39,4223469004681;1,48651123046875E-08;-0,748565673828125;1;65;8,30180659890175E-07;-1,36935231089592E-06;1 µA
-0,70068359375;39,9228348992045;6,463623046875E-08;-0,69866943359375;1;66;8,30180659890175E-07;-1,36935231089592E-06;1 µA
-0,650634765625;40,4233228979409;1,214599609375E-07;-0,648651123046875;1;67;8,30180659890175E-07;-1,36935231089592E-06;1 µA
-0,6005859375;40,9238108966773;1,6461181640625E-07;-0,5987548828125;1;68;8,30180659890175E-07;-1,36935231089592E-06;1 µA
-0,550537109375;41,4242988954137;1,976318359375E-07;-0,548858642578125;1;69;8,30180659890175E-07;-1,36935231089592E-06;1 µA
-0,50048828125;41,9247868941501;1,85821533203125E-07;-0,4989013671875;1;70;8,30180659890175E-07;-1,36935231089592E-06;1 µA
-0,450439453125;42,4252748928865;1,29486083984375E-07;-0,44903564453125;1;71;8,30180659890175E-07;-1,36935231089592E-06;1 µA
-0,400390625;42,9257628916229;9,564208984375E-08;-0,399139404296875;1;72;8,30180659890175E-07;-1,36935231089592E-06;1 µA
-0,350341796875;43,4262508903593;8,4442138671875E-08;-0,349212646484375;1;73;8,30180659890175E-07;-1,36935231089592E-06;1 µA
-0,30029296875;43,9267388890956;7,3486328125E-08;-0,299346923828125;1;74;8,30180659890175E-07;-1,36935231089592E-06;1 µA
-0,250244140625;44,427226887832;6,3690185546875E-08;-0,249359130859375;1;75;8,30180659890175E-07;-1,36935231089592E-06;1 µA
-0,2001953125;44,9277148865684;5,4656982421875E-08;-0,199462890625;1;76;8,30180659890175E-07;-1,36935231089592E-06;1 µA
-0,150146484375;45,4282028853048;4,794921875E-08;-0,14971923828125;1;77;8,30180659890175E-07;-1,36935231089592E-06;100 nA
-0,10009765625;45,9286908840412;4,35821533203125E-08;-0,099853515625;1;78;8,30180659890175E-07;-1,36935231089592E-06;100 nA
-0,050048828125;46,4291788827776;3,9825439453125E-08;-0,04998779296875;1;79;8,30180659890175E-07;-1,36935231089592E-06;100 nA
0;46,929666881514;3,75396728515625E-08;6,40869140624972E-05;1;80;8,30180659890175E-07;-1,36935231089592E-06;100 nA
0,050048828125;47,4301548802504;3,60626220703125E-08;0,049896240234375;2;81;1,01672954112291E-06;-1,26967865228653E-06;100 nA
0,10009765625;47,9306428789868;3,44390869140625E-08;0,0999755859375;2;82;1,01672954112291E-06;-1,26967865228653E-06;100 nA
0,150146484375;48,4311308777231;3,16253662109375E-08;0,14996337890625;2;83;1,01672954112291E-06;-1,26967865228653E-06;100 nA
0,2001953125;48,9316188764595;2,87261962890625E-08;0,199981689453125;2;84;1,01672954112291E-06;-1,26967865228653E-06;100 nA
0,250244140625;49,4321068751959;2,62115478515625E-08;0,249969482421875;2;85;1,01672954112291E-06;-1,26967865228653E-06;100 nA
0,30029296875;49,9325948739323;2,4310302734375E-08;0,29998779296875;2;86;1,01672954112291E-06;-1,26967865228653E-06;100 nA
0,350341796875;50,4330828726687;2,29034423828125E-08;0,350067138671875;2;87;1,01672954112291E-06;-1,26967865228653E-06;100 nA
0,400390625;50,9335708714051;2,14813232421875E-08;0,4000244140625;2;88;1,01672954112291E-06;-1,26967865228653E-06;100 nA
0,450439453125;51,4340588701415;2,0086669921875E-08;0,4500732421875;2;89;1,01672954112291E-06;-1,26967865228653E-06;100 nA
0,50048828125;51,9345468688779;1,937255859375E-08;0,50006103515625;2;90;1,01672954112291E-06;-1,26967865228653E-06;100 nA
0,550537109375;52,4350348676143;1,84814453125E-08;0,55010986328125;2;91;1,01672954112291E-06;-1,26967865228653E-06;100 nA
0,6005859375;52,9355228663507;1,8109130859375E-08;0,60003662109375;2;92;1,01672954112291E-06;-1,26967865228653E-06;100 nA
0,650634765625;53,436010865087;1,7950439453125E-08;0,6500244140625;2;93;1,01672954112291E-06;-1,26967865228653E-06;100 nA
0,70068359375;53,9364988638234;1,73248291015625E-08;0,69989013671875;2;94;1,01672954112291E-06;-1,26967865228653E-06;100 nA
0,750732421875;54,4369868625598;1,7498779296875E-08;0,749847412109375;2;95;1,01672954112291E-06;-1,26967865228653E-06;100 nA
0,80078125;54,9374748612962;1,73004150390625E-08;0,79986572265625;2;96;1,01672954112291E-06;-1,26967865228653E-06;100 nA
0,850830078125;55,4379628600326;1,7218017578125E-08;0,84991455078125;2;97;1,01672954112291E-06;-1,26967865228653E-06;100 nA
0,90087890625;55,938450858769;1,79718017578125E-08;0,9002685546875;2;98;1,01672954112291E-06;-1,26967865228653E-06;100 nA
0,950927734375;56,4389388575054;1,9677734375E-08;0,94970703125;2;99;1,01672954112291E-06;-1,26967865228653E-06;100 nA
1,0009765625;56,9394268562418;2,20184326171875E-08;0,99945068359375;2;100;1,01672954112291E-06;-1,26967865228653E-06;100 nA
0,950927734375;57,4399148549782;1,6448974609375E-08;0,94970703125;2;101;1,01672954112291E-06;-1,26967865228653E-06;100 nA
0,90087890625;57,9404028537145;1,41357421875E-08;0,9002685546875;2;102;1,01672954112291E-06;-1,26967865228653E-06;100 nA
0,850830078125;58,4408908524509;1,23809814453125E-08;0,849609375;2;103;1,01672954112291E-06;-1,26967865228653E-06;100 nA
0,80078125;58,9413788511873;1,109619140625E-08;0,799560546875;2;104;1,01672954112291E-06;-1,26967865228653E-06;100 nA
0,750732421875;59,4418668499237;1,0589599609375E-08;0,7498779296875;2;105;1,01672954112291E-06;-1,26967865228653E-06;100 nA
0,70068359375;59,9423548486601;1,00433349609375E-08;0,699920654296875;2;106;1,01672954112291E-06;-1,26967865228653E-06;100 nA
0,650634765625;60,4428428473965;9,5123291015625E-09;0,650054931640625;2;107;1,01672954112291E-06;-1,26967865228653E-06;100 nA
0,6005859375;60,9433308461329;9,1461181640625E-09;0,60009765625;2;108;1,01672954112291E-06;-1,26967865228653E-06;100 nA
0,550537109375;61,4438188448693;8,85009765625E-09;0,55010986328125;2;109;1,01672954112291E-06;-1,26967865228653E-06;100 nA
0,50048828125;61,9443068436057;8,65478515625E-09;0,5001220703125;2;110;1,01672954112291E-06;-1,26967865228653E-06;100 nA
0,450439453125;62,444794842342;8,2305908203125E-09;0,450164794921875;2;111;1,01672954112291E-06;-1,26967865228653E-06;100 nA
0,400390625;62,9452828410784;8,0047607421875E-09;0,400146484375;2;112;1,01672954112291E-06;-1,26967865228653E-06;100 nA
0,350341796875;63,4457708398148;7,6751708984375E-09;0,35009765625;2;113;1,01672954112291E-06;-1,26967865228653E-06;100 nA
0,30029296875;63,9462588385512;7,2998046875E-09;0,300079345703125;2;114;1,01672954112291E-06;-1,26967865228653E-06;100 nA
0,250244140625;64,4467468372876;6,793212890625E-09;0,250091552734375;2;115;1,01672954112291E-06;-1,26967865228653E-06;100 nA
0,2001953125;64,947234836024;6,2225341796875E-09;0,200103759765625;2;116;1,01672954112291E-06;-1,26967865228653E-06;100 nA
0,150146484375;65,4477228347604;5,4656982421875E-09;0,150115966796875;2;117;1,01672954112291E-06;-1,26967865228653E-06;100 nA
0,10009765625;65,9482108334968;4,522705078125E-09;0,100067138671875;2;118;1,01672954112291E-06;-1,26967865228653E-06;100 nA
0,050048828125;66,4486988322332;3,62548828125E-09;0,050140380859375;2;119;1,01672954112291E-06;-1,26967865228653E-06;100 nA
0;66,9491868309696;2,3980712890625E-09;0,000115966796875006;2;120;1,01672954112291E-06;-1,26967865228653E-06;100 nA
-0,050048828125;67,4496748297059;-1,8707275390625E-09;-0,0497161865234375;2;121;1,01672954112291E-06;-1,26967865228653E-06;100 nA
-0,10009765625;67,9501628284423;-2,81982421875E-09;-0,099639892578125;2;122;1,01672954112291E-06;-1,26967865228653E-06;100 nA
-0,150146484375;68,4506508271787;-1,02142333984375E-09;-0,149566650390625;2;123;1,01672954112291E-06;-1,26967865228653E-06;100 nA
-0,2001953125;68,9511388259151;-7,4005126953125E-10;-0,199462890625;2;124;1,01672954112291E-06;-1,26967865228653E-06;100 nA
-0,250244140625;69,4516268246515;-6,5765380859375E-10;-0,2493896484375;2;125;1,01672954112291E-06;-1,26967865228653E-06;100 nA
-0,30029296875;69,9521148233879;-9,0057373046875E-10;-0,299224853515625;2;126;1,01672954112291E-06;-1,26967865228653E-06;100 nA
-0,350341796875;70,4526028221243;-1,62017822265625E-09;-0,34918212890625;2;127;1,01672954112291E-06;-1,26967865228653E-06;100 nA
-0,400390625;70,9530908208607;-3,16192626953125E-09;-0,399078369140625;2;128;1,01672954112291E-06;-1,26967865228653E-06;100 nA
-0,450439453125;71,4535788195971;-6,23779296875E-09;-0,448944091796875;2;129;1,01672954112291E-06;-1,26967865228653E-06;100 nA
-0,50048828125;71,9540668183334;-1,31378173828125E-08;-0,49884033203125;2;130;1,01672954112291E-06;-1,26967865228653E-06;100 nA
-0,550537109375;72,4545548170698;-2,7740478515625E-08;-0,548736572265625;2;131;1,01672954112291E-06;-1,26967865228653E-06;100 nA
-0,6005859375;72,9550428158062;-5,23681640625E-08;-0,5985107421875;2;132;1,01672954112291E-06;-1,26967865228653E-06;100 nA
-0,650634765625;73,4555308145426;-9,051513671875E-08;-0,64837646484375;2;133;1,01672954112291E-06;-1,26967865228653E-06;100 nA
-0,70068359375;73,956018813279;-1,4453125E-07;-0,698272705078125;2;134;1,01672954112291E-06;-1,26967865228653E-06;100 nA
-0,750732421875;74,4565068120154;-2,05841064453125E-07;-0,7481689453125;2;135;1,01672954112291E-06;-1,26967865228653E-06;100 nA
-0,80078125;74,9569948107518;-2,4713134765625E-07;-0,79864501953125;2;136;1,01672954112291E-06;-1,26967865228653E-06;100 nA
-0,850830078125;75,4574828094882;-2,8125E-07;-0,84869384765625;2;137;1,01672954112291E-06;-1,26967865228653E-06;100 nA
-0,90087890625;75,9579708082246;-3,0914306640625E-07;-0,89874267578125;2;138;1,01672954112291E-06;-1,26967865228653E-06;100 nA
-0,950927734375;76,4584588069609;-3,39202880859375E-07;-0,948486328125;2;139;1,01672954112291E-06;-1,26967865228653E-06;1 µA
-1,0009765625;76,9589468056973;-3,603515625E-07;-0,99884033203125;2;140;1,01672954112291E-06;-1,26967865228653E-06;1 µA
-0,950927734375;77,4594348044337;-2,23663330078125E-07;-0,948486328125;2;141;1,01672954112291E-06;-1,26967865228653E-06;1 µA
-0,90087890625;77,9599228031701;-1,30950927734375E-07;-0,8990478515625;2;142;1,01672954112291E-06;-1,26967865228653E-06;1 µA
-0,850830078125;78,4604108019065;-6,72607421875E-08;-0,84808349609375;2;143;1,01672954112291E-06;-1,26967865228653E-06;1 µA
-0,80078125;78,9608988006429;-2,4761962890625E-08;-0,79864501953125;2;144;1,01672954112291E-06;-1,26967865228653E-06;1 µA
-0,750732421875;79,4613867993793;1,15234375E-08;-0,74859619140625;2;145;1,01672954112291E-06;-1,26967865228653E-06;1 µA
-0,70068359375;79,9618747981157;5,7830810546875E-08;-0,698638916015625;2;146;1,01672954112291E-06;-1,26967865228653E-06;1 µA
-0,650634765625;80,4623627968521;1,15753173828125E-07;-0,648651123046875;2;147;1,01672954112291E-06;-1,26967865228653E-06;1 µA
-0,6005859375;80,9628507955885;1,6082763671875E-07;-0,59869384765625;2;148;1,01672954112291E-06;-1,26967865228653E-06;1 µA
-0,550537109375;81,4633387943248;1,9622802734375E-07;-0,548919677734375;2;149;1,01672954112291E-06;-1,26967865228653E-06;1 µA
-0,50048828125;81,9638267930612;1,8719482421875E-07;-0,498870849609375;2;150;1,01672954112291E-06;-1,26967865228653E-06;1 µA
-0,450439453125;82,4643147917976;1,336669921875E-07;-0,449005126953125;2;151;1,01672954112291E-06;-1,26967865228653E-06;1 µA
-0,400390625;82,964802790534;9,7015380859375E-08;-0,399139404296875;2;152;1,01672954112291E-06;-1,26967865228653E-06;1 µA
-0,350341796875;83,4652907892704;8,477783203125E-08;-0,3492431640625;2;153;1,01672954112291E-06;-1,26967865228653E-06;1 µA
-0,30029296875;83,9657787880068;7,5653076171875E-08;-0,299285888671875;2;154;1,01672954112291E-06;-1,26967865228653E-06;1 µA
-0,250244140625;84,4662667867432;6,3446044921875E-08;-0,249359130859375;2;155;1,01672954112291E-06;-1,26967865228653E-06;1 µA
-0,2001953125;84,9667547854796;5,462646484375E-08;-0,199493408203125;2;156;1,01672954112291E-06;-1,26967865228653E-06;1 µA
-0,150146484375;85,467242784216;4,85443115234375E-08;-0,149749755859375;2;157;1,01672954112291E-06;-1,26967865228653E-06;100 nA
-0,10009765625;85,9677307829523;4,50225830078125E-08;-0,09979248046875;2;158;1,01672954112291E-06;-1,26967865228653E-06;100 nA
-0,050048828125;86,4682187816887;4,13360595703125E-08;-0,0499267578125;2;159;1,01672954112291E-06;-1,26967865228653E-06;100 nA
0;86,9687067804251;3,81622314453125E-08;7,62939453125E-05;2;160;1,01672954112291E-06;-1,26967865228653E-06;100 nA
0,050048828125;87,4691947791615;3,6810302734375E-08;0,0500823974609375;3;161;1,02371969819069E-06;-1,2370461076498E-06;100 nA
0,10009765625;87,9696827778979;3,428955078125E-08;0,100006103515625;3;162;1,02371969819069E-06;-1,2370461076498E-06;100 nA
0,150146484375;88,4701707766343;3,197021484375E-08;0,149993896484375;3;163;1,02371969819069E-06;-1,2370461076498E-06;100 nA
0,2001953125;88,9706587753707;2,87841796875E-08;0,199951171875;3;164;1,02371969819069E-06;-1,2370461076498E-06;100 nA
0,250244140625;89,4711467741071;2,66754150390625E-08;0,25;3;165;1,02371969819069E-06;-1,2370461076498E-06;100 nA
0,30029296875;89,9716347728435;2,48321533203125E-08;0,300079345703125;3;166;1,02371969819069E-06;-1,2370461076498E-06;100 nA
0,350341796875;90,4721227715798;2,3626708984375E-08;0,35009765625;3;167;1,02371969819069E-06;-1,2370461076498E-06;100 nA
0,400390625;90,9726107703162;2,21893310546875E-08;0,400054931640625;3;168;1,02371969819069E-06;-1,2370461076498E-06;100 nA
0,450439453125;91,4730987690526;2,103271484375E-08;0,45001220703125;3;169;1,02371969819069E-06;-1,2370461076498E-06;100 nA
0,50048828125;91,973586767789;2,0770263671875E-08;0,500030517578125;3;170;1,02371969819069E-06;-1,2370461076498E-06;100 nA
0,550537109375;92,4740747665254;1,98974609375E-08;0,550048828125;3;171;1,02371969819069E-06;-1,2370461076498E-06;100 nA
0,6005859375;92,9745627652618;1,94732666015625E-08;0,60009765625;3;172;1,02371969819069E-06;-1,2370461076498E-06;100 nA
0,650634765625;93,4750507639982;1,90277099609375E-08;0,649993896484375;3;173;1,02371969819069E-06;-1,2370461076498E-06;100 nA
0,70068359375;93,9755387627346;1,8695068359375E-08;0,699920654296875;3;174;1,02371969819069E-06;-1,2370461076498E-06;100 nA
0,750732421875;94,476026761471;1,84722900390625E-08;0,749847412109375;3;175;1,02371969819069E-06;-1,2370461076498E-06;100 nA
0,80078125;94,9765147602074;1,82403564453125E-08;0,79986572265625;3;176;1,02371969819069E-06;-1,2370461076498E-06;100 nA
0,850830078125;95,4770027589437;1,85943603515625E-08;0,84991455078125;3;177;1,02371969819069E-06;-1,2370461076498E-06;100 nA
0,90087890625;95,9774907576801;1,96075439453125E-08;0,899658203125;3;178;1,02371969819069E-06;-1,2370461076498E-06;100 nA
0,950927734375;96,4779787564165;2,1337890625E-08;0,94940185546875;3;179;1,02371969819069E-06;-1,2370461076498E-06;100 nA
1,0009765625;96,9784667551529;2,36663818359375E-08;0,99945068359375;3;180;1,02371969819069E-06;-1,2370461076498E-06;100 nA
0,950927734375;97,4789547538893;1,78375244140625E-08;0,94940185546875;3;181;1,02371969819069E-06;-1,2370461076498E-06;100 nA
0,90087890625;97,9794427526257;1,48468017578125E-08;0,89935302734375;3;182;1,02371969819069E-06;-1,2370461076498E-06;100 nA
0,850830078125;98,4799307513621;1,3104248046875E-08;0,84991455078125;3;183;1,02371969819069E-06;-1,2370461076498E-06;100 nA
0,80078125;98,9804187500985;1,22161865234375E-08;0,80047607421875;3;184;1,02371969819069E-06;-1,2370461076498E-06;100 nA
0,750732421875;99,4809067488349;1,15997314453125E-08;0,749847412109375;3;185;1,02371969819069E-06;-1,2370461076498E-06;100 nA
0,70068359375;99,9813947475712;1,1083984375E-08;0,69989013671875;3;186;1,02371969819069E-06;-1,2370461076498E-06;100 nA
0,650634765625;100,481882746308;1,0595703125E-08;0,650054931640625;3;187;1,02371969819069E-06;-1,2370461076498E-06;100 nA
0,6005859375;100,982370745044;1,01837158203125E-08;0,600067138671875;3;188;1,02371969819069E-06;-1,2370461076498E-06;100 nA
0,550537109375;101,48285874378;9,796142578125E-09;0,550140380859375;3;189;1,02371969819069E-06;-1,2370461076498E-06;100 nA
0,50048828125;101,983346742517;9,4635009765625E-09;0,500091552734375;3;190;1,02371969819069E-06;-1,2370461076498E-06;100 nA
0,450439453125;102,483834741253;9,1522216796875E-09;0,450103759765625;3;191;1,02371969819069E-06;-1,2370461076498E-06;100 nA
0,400390625;102,98432273999;8,8623046875E-09;0,400054931640625;3;192;1,02371969819069E-06;-1,2370461076498E-06;100 nA
0,350341796875;103,484810738726;8,7127685546875E-09;0,35009765625;3;193;1,02371969819069E-06;-1,2370461076498E-06;100 nA
0,30029296875;103,985298737462;8,306884765625E-09;0,300048828125;3;194;1,02371969819069E-06;-1,2370461076498E-06;100 nA
0,250244140625;104,485786736199;7,8277587890625E-09;0,250030517578125;3;195;1,02371969819069E-06;-1,2370461076498E-06;100 nA
0,2001953125;104,986274734935;7,3516845703125E-09;0,200103759765625;3;196;1,02371969819069E-06;-1,2370461076498E-06;100 nA
0,150146484375;105,486762733672;6,719970703125E-09;0,150054931640625;3;197;1,02371969819069E-06;-1,2370461076498E-06;100 nA
0,10009765625;105,987250732408;5,8013916015625E-09;0,100128173828125;3;198;1,02371969819069E-06;-1,2370461076498E-06;100 nA
0,050048828125;106,487738731144;4,9072265625E-09;0,050048828125;3;199;1,02371969819069E-06;-1,2370461076498E-06;100 nA
0;106,988226729881;3,6712646484375E-09;0,000134277343750003;3;200;1,02371969819069E-06;-1,2370461076498E-06;100 nA
-0,050048828125;107,488714728617;3,143310546875E-10;-0,0498046875;3;201;1,02371969819069E-06;-1,2370461076498E-06;100 nA
-0,10009765625;107,989202727353;-1,29608154296875E-09;-0,099700927734375;3;202;1,02371969819069E-06;-1,2370461076498E-06;100 nA
-0,150146484375;108,48969072609;3,73229980468751E-10;-0,14959716796875;3;203;1,02371969819069E-06;-1,2370461076498E-06;100 nA
-0,2001953125;108,990178724826;4,6661376953125E-10;-0,199462890625;3;204;1,02371969819069E-06;-1,2370461076498E-06;100 nA
-0,250244140625;109,490666723563;4,2694091796875E-10;-0,249359130859375;3;205;1,02371969819069E-06;-1,2370461076498E-06;100 nA
-0,30029296875;109,991154722299;7,72094726562506E-11;-0,299285888671875;3;206;1,02371969819069E-06;-1,2370461076498E-06;100 nA
-0,350341796875;110,491642721035;-6,9580078125E-10;-0,349151611328125;3;207;1,02371969819069E-06;-1,2370461076498E-06;100 nA
-0,400390625;110,992130719772;-2,22442626953125E-09;-0,399078369140625;3;208;1,02371969819069E-06;-1,2370461076498E-06;100 nA
-0,450439453125;111,492618718508;-5,2978515625E-09;-0,448883056640625;3;209;1,02371969819069E-06;-1,2370461076498E-06;100 nA
-0,50048828125;111,993106717245;-1,20086669921875E-08;-0,49884033203125;3;210;1,02371969819069E-06;-1,2370461076498E-06;100 nA
-0,550537109375;112,493594715981;-2,615966796875E-08;-0,548736572265625;3;211;1,02371969819069E-06;-1,2370461076498E-06;100 nA
-0,6005859375;112,994082714717;-5,1116943359375E-08;-0,598541259765625;3;212;1,02371969819069E-06;-1,2370461076498E-06;100 nA
-0,650634765625;113,494570713454;-9,033203125E-08;-0,648406982421875;3;213;1,02371969819069E-06;-1,2370461076498E-06;100 nA
-0,70068359375;113,99505871219;-1,42669677734375E-07;-0,6983642578125;3;214;1,02371969819069E-06;-1,2370461076498E-06;100 nA
-0,750732421875;114,495546710927;-2,0196533203125E-07;-0,748077392578125;3;215;1,02371969819069E-06;-1,2370461076498E-06;100 nA
-0,80078125;114,996034709663;-2,4383544921875E-07;-0,79864501953125;3;216;1,02371969819069E-06;-1,2370461076498E-06;100 nA
-0,850830078125;115,496522708399;-2,67730712890625E-07;-0,8477783203125;3;217;1,02371969819069E-06;-1,2370461076498E-06;100 nA
-0,90087890625;115,997010707136;-2,9718017578125E-07;-0,89813232421875;3;218;1,02371969819069E-06;-1,2370461076498E-06;100 nA
-0,950927734375;116,497498705872;-3,2708740234375E-07;-0,948486328125;3;219;1,02371969819069E-06;-1,2370461076498E-06;100 nA
-1,0009765625;116,997986704608;-3,4747314453125E-07;-0,99884033203125;3;220;1,02371969819069E-06;-1,2370461076498E-06;1 µA
-0,950927734375;117,498474703345;-2,249755859375E-07;-0,9490966796875;3;221;1,02371969819069E-06;-1,2370461076498E-06;1 µA
-0,90087890625;117,998962702081;-1,35345458984375E-07;-0,89874267578125;3;222;1,02371969819069E-06;-1,2370461076498E-06;1 µA
-0,850830078125;118,499450700818;-7,1929931640625E-08;-0,848388671875;3;223;1,02371969819069E-06;-1,2370461076498E-06;1 µA
-0,80078125;118,999938699554;-2,23541259765625E-08;-0,79864501953125;3;224;1,02371969819069E-06;-1,2370461076498E-06;1 µA
-0,750732421875;119,50042669829;1,44989013671875E-08;-0,748626708984375;3;225;1,02371969819069E-06;-1,2370461076498E-06;1 µA
-0,70068359375;120,000914697027;5,4412841796875E-08;-0,69866943359375;3;226;1,02371969819069E-06;-1,2370461076498E-06;1 µA
-0,650634765625;120,501402695763;1,025390625E-07;-0,648681640625;3;227;1,02371969819069E-06;-1,2370461076498E-06;1 µA
-0,6005859375;121,0018906945;1,46026611328125E-07;-0,59869384765625;3;228;1,02371969819069E-06;-1,2370461076498E-06;1 µA
-0,550537109375;121,502378693236;1,83685302734375E-07;-0,54888916015625;3;229;1,02371969819069E-06;-1,2370461076498E-06;1 µA
-0,50048828125;122,002866691972;1,85302734375E-07;-0,498931884765625;3;230;1,02371969819069E-06;-1,2370461076498E-06;1 µA
-0,450439453125;122,503354690709;1,32537841796875E-07;-0,44903564453125;3;231;1,02371969819069E-06;-1,2370461076498E-06;1 µA
-0,400390625;123,003842689445;9,5855712890625E-08;-0,399169921875;3;232;1,02371969819069E-06;-1,2370461076498E-06;1 µA
-0,350341796875;123,504330688182;8,7890625E-08;-0,34930419921875;3;233;1,02371969819069E-06;-1,2370461076498E-06;1 µA
-0,30029296875;124,004818686918;7,989501953125E-08;-0,29931640625;3;234;1,02371969819069E-06;-1,2370461076498E-06;1 µA
-0,250244140625;124,505306685654;6,573486328125E-08;-0,249359130859375;3;235;1,02371969819069E-06;-1,2370461076498E-06;1 µA
-0,2001953125;125,005794684391;5,70068359375E-08;-0,199462890625;3;236;1,02371969819069E-06;-1,2370461076498E-06;1 µA
-0,150146484375;125,506282683127;5,09033203125E-08;-0,149688720703125;3;237;1,02371969819069E-06;-1,2370461076498E-06;100 nA
-0,10009765625;126,006770681863;4,5831298828125E-08;-0,099884033203125;3;238;1,02371969819069E-06;-1,2370461076498E-06;100 nA
-0,050048828125;126,5072586806;4,20562744140625E-08;-0,0499267578125;3;239;1,02371969819069E-06;-1,2370461076498E-06;100 nA
0;127,007746679336;3,95721435546875E-08;6,103515625E-05;3;240;1,02371969819069E-06;-1,2370461076498E-06;100 nA
0,050048828125;127,508234678073;3,73992919921875E-08;0,04998779296875;4;241;1,02786772698164E-06;-1,18443878367543E-06;100 nA
0,10009765625;128,008722676809;3,47991943359375E-08;0,100006103515625;4;242;1,02786772698164E-06;-1,18443878367543E-06;100 nA
0,150146484375;128,509210675545;3,20587158203125E-08;0,149993896484375;4;243;1,02786772698164E-06;-1,18443878367543E-06;100 nA
0,2001953125;129,009698674282;2,95745849609375E-08;0,199981689453125;4;244;1,02786772698164E-06;-1,18443878367543E-06;100 nA
0,250244140625;129,510186673018;2,72430419921875E-08;0,25;4;245;1,02786772698164E-06;-1,18443878367543E-06;100 nA
0,30029296875;130,010674671755;2,54669189453125E-08;0,300018310546875;4;246;1,02786772698164E-06;-1,18443878367543E-06;100 nA
0,350341796875;130,511162670491;2,43072509765625E-08;0,350067138671875;4;247;1,02786772698164E-06;-1,18443878367543E-06;100 nA
0,400390625;131,011650669227;2,30438232421875E-08;0,4000244140625;4;248;1,02786772698164E-06;-1,18443878367543E-06;100 nA
0,450439453125;131,512138667964;2,20123291015625E-08;0,450042724609375;4;249;1,02786772698164E-06;-1,18443878367543E-06;100 nA
0,50048828125;132,0126266667;2,1051025390625E-08;0,500030517578125;4;250;1,02786772698164E-06;-1,18443878367543E-06;100 nA
0,550537109375;132,513114665437;2,03948974609375E-08;0,55010986328125;4;251;1,02786772698164E-06;-1,18443878367543E-06;100 nA
0,6005859375;133,013602664173;1,9873046875E-08;0,60009765625;4;252;1,02786772698164E-06;-1,18443878367543E-06;100 nA
0,650634765625;133,514090662909;1,954345703125E-08;0,6500244140625;4;253;1,02786772698164E-06;-1,18443878367543E-06;100 nA
0,70068359375;134,014578661646;1,93756103515625E-08;0,69989013671875;4;254;1,02786772698164E-06;-1,18443878367543E-06;100 nA
0,750732421875;134,515066660382;1,910400390625E-08;0,74981689453125;4;255;1,02786772698164E-06;-1,18443878367543E-06;100 nA
0,80078125;135,015554659118;1,910400390625E-08;0,8001708984375;4;256;1,02786772698164E-06;-1,18443878367543E-06;100 nA
0,850830078125;135,516042657855;1,94427490234375E-08;0,84930419921875;4;257;1,02786772698164E-06;-1,18443878367543E-06;100 nA
0,90087890625;136,016530656591;2,000732421875E-08;0,899658203125;4;258;1,02786772698164E-06;-1,18443878367543E-06;100 nA
0,950927734375;136,517018655328;2,2369384765625E-08;0,94970703125;4;259;1,02786772698164E-06;-1,18443878367543E-06;100 nA
1,0009765625;137,017506654064;2,67059326171875E-08;0,999755859375;4;260;1,02786772698164E-06;-1,18443878367543E-06;100 nA
0,950927734375;137,5179946528;1,89788818359375E-08;0,94940185546875;4;261;1,02786772698164E-06;-1,18443878367543E-06;100 nA
0,90087890625;138,018482651537;1,58477783203125E-08;0,89996337890625;4;262;1,02786772698164E-06;-1,18443878367543E-06;100 nA
0,850830078125;138,518970650273;1,40655517578125E-08;0,849609375;4;263;1,02786772698164E-06;-1,18443878367543E-06;100 nA
0,80078125;139,01945864901;1,30645751953125E-08;0,79986572265625;4;264;1,02786772698164E-06;-1,18443878367543E-06;100 nA
0,750732421875;139,519946647746;1,2310791015625E-08;0,749908447265625;4;265;1,02786772698164E-06;-1,18443878367543E-06;100 nA
0,70068359375;140,020434646482;1,17340087890625E-08;0,699920654296875;4;266;1,02786772698164E-06;-1,18443878367543E-06;100 nA
0,650634765625;140,520922645219;1,12701416015625E-08;0,650054931640625;4;267;1,02786772698164E-06;-1,18443878367543E-06;100 nA
0,6005859375;141,021410643955;1,08184814453125E-08;0,60009765625;4;268;1,02786772698164E-06;-1,18443878367543E-06;100 nA
0,550537109375;141,521898642692;1,04339599609375E-08;0,55010986328125;4;269;1,02786772698164E-06;-1,18443878367543E-06;100 nA
0,50048828125;142,022386641428;1,009521484375E-08;0,500091552734375;4;270;1,02786772698164E-06;-1,18443878367543E-06;100 nA
0,450439453125;142,522874640164;9,80224609375E-09;0,4500732421875;4;271;1,02786772698164E-06;-1,18443878367543E-06;100 nA
0,400390625;143,023362638901;9,3902587890625E-09;0,400115966796875;4;272;1,02786772698164E-06;-1,18443878367543E-06;100 nA
0,350341796875;143,523850637637;9,1705322265625E-09;0,35009765625;4;273;1,02786772698164E-06;-1,18443878367543E-06;100 nA
0,30029296875;144,024338636374;8,7860107421875E-09;0,300048828125;4;274;1,02786772698164E-06;-1,18443878367543E-06;100 nA
0,250244140625;144,52482663511;8,5113525390625E-09;0,250030517578125;4;275;1,02786772698164E-06;-1,18443878367543E-06;100 nA
0,2001953125;145,025314633846;8,0535888671875E-09;0,2000732421875;4;276;1,02786772698164E-06;-1,18443878367543E-06;100 nA
0,150146484375;145,525802632583;7,38525390625E-09;0,149993896484375;4;277;1,02786772698164E-06;-1,18443878367543E-06;100 nA
0,10009765625;146,026290631319;6,585693359375E-09;0,100067138671875;4;278;1,02786772698164E-06;-1,18443878367543E-06;100 nA
0,050048828125;146,526778630055;5,6854248046875E-09;0,050048828125;4;279;1,02786772698164E-06;-1,18443878367543E-06;100 nA
0;147,027266628792;4,510498046875E-09;0,000109863281249997;4;280;1,02786772698164E-06;-1,18443878367543E-06;100 nA
-0,050048828125;147,527754627528;1,5350341796875E-09;-0,049835205078125;4;281;1,02786772698164E-06;-1,18443878367543E-06;100 nA
-0,10009765625;148,028242626265;-7,75146484375003E-11;-0,099639892578125;4;282;1,02786772698164E-06;-1,18443878367543E-06;100 nA
-0,150146484375;148,528730625001;1,3018798828125E-09;-0,1495361328125;4;283;1,02786772698164E-06;-1,18443878367543E-06;100 nA
-0,2001953125;149,029218623737;1,2396240234375E-09;-0,199493408203125;4;284;1,02786772698164E-06;-1,18443878367543E-06;100 nA
-0,250244140625;149,529706622474;1,07696533203125E-09;-0,24932861328125;4;285;1,02786772698164E-06;-1,18443878367543E-06;100 nA
-0,30029296875;150,03019462121;6,4239501953125E-10;-0,299224853515625;4;286;1,02786772698164E-06;-1,18443878367543E-06;100 nA
-0,350341796875;150,530682619947;-2,37121582031249E-10;-0,349212646484375;4;287;1,02786772698164E-06;-1,18443878367543E-06;100 nA
-0,400390625;151,031170618683;-1,8170166015625E-09;-0,39910888671875;4;288;1,02786772698164E-06;-1,18443878367543E-06;100 nA
-0,450439453125;151,531658617419;-4,833984375E-09;-0,449005126953125;4;289;1,02786772698164E-06;-1,18443878367543E-06;100 nA
-0,50048828125;152,032146616156;-1,136474609375E-08;-0,498870849609375;4;290;1,02786772698164E-06;-1,18443878367543E-06;100 nA
-0,550537109375;152,532634614892;-2,5140380859375E-08;-0,548675537109375;4;291;1,02786772698164E-06;-1,18443878367543E-06;100 nA
-0,6005859375;153,033122613629;-4,9774169921875E-08;-0,5985107421875;4;292;1,02786772698164E-06;-1,18443878367543E-06;100 nA
-0,650634765625;153,533610612365;-8,8043212890625E-08;-0,6484375;4;293;1,02786772698164E-06;-1,18443878367543E-06;100 nA
-0,70068359375;154,034098611101;-1,3983154296875E-07;-0,698272705078125;4;294;1,02786772698164E-06;-1,18443878367543E-06;100 nA
-0,750732421875;154,534586609838;-1,95220947265625E-07;-0,7481689453125;4;295;1,02786772698164E-06;-1,18443878367543E-06;100 nA
-0,80078125;155,035074608574;-2,33856201171875E-07;-0,79864501953125;4;296;1,02786772698164E-06;-1,18443878367543E-06;100 nA
-0,850830078125;155,53556260731;-2,59735107421875E-07;-0,848388671875;4;297;1,02786772698164E-06;-1,18443878367543E-06;100 nA
-0,90087890625;156,036050606047;-2,85308837890625E-07;-0,8984375;4;298;1,02786772698164E-06;-1,18443878367543E-06;100 nA
-0,950927734375;156,536538604783;-3,1597900390625E-07;-0,94879150390625;4;299;1,02786772698164E-06;-1,18443878367543E-06;100 nA
-1,0009765625;157,03702660352;-3,326416015625E-07;-0,9991455078125;4;300;1,02786772698164E-06;-1,18443878367543E-06;1 µA
-0,950927734375;157,537514602256;-2,04986572265625E-07;-0,94879150390625;4;301;1,02786772698164E-06;-1,18443878367543E-06;1 µA
-0,90087890625;158,038002600992;-1,27105712890625E-07;-0,8984375;4;302;1,02786772698164E-06;-1,18443878367543E-06;1 µA
-0,850830078125;158,538490599729;-6,640625E-08;-0,84869384765625;4;303;1,02786772698164E-06;-1,18443878367543E-06;1 µA
-0,80078125;159,038978598465;-2,420654296875E-08;-0,79864501953125;4;304;1,02786772698164E-06;-1,18443878367543E-06;1 µA
-0,750732421875;159,539466597202;9,7686767578125E-09;-0,748687744140625;4;305;1,02786772698164E-06;-1,18443878367543E-06;1 µA
-0,70068359375;160,039954595938;4,9896240234375E-08;-0,698638916015625;4;306;1,02786772698164E-06;-1,18443878367543E-06;1 µA
-0,650634765625;160,540442594674;9,9151611328125E-08;-0,648651123046875;4;307;1,02786772698164E-06;-1,18443878367543E-06;1 µA
-0,6005859375;161,040930593411;1,42059326171875E-07;-0,5989990234375;4;308;1,02786772698164E-06;-1,18443878367543E-06;100 nA
-0,550537109375;161,541418592147;1,77276611328125E-07;-0,549163818359375;4;309;1,02786772698164E-06;-1,18443878367543E-06;100 nA
-0,50048828125;162,041906590884;1,79290771484375E-07;-0,499298095703125;4;310;1,02786772698164E-06;-1,18443878367543E-06;100 nA
-0,450439453125;162,54239458962;1,34796142578125E-07;-0,44927978515625;4;311;1,02786772698164E-06;-1,18443878367543E-06;100 nA
-0,400390625;163,042882588356;9,771728515625E-08;-0,399383544921875;4;312;1,02786772698164E-06;-1,18443878367543E-06;100 nA
-0,350341796875;163,543370587093;8,868408203125E-08;-0,349517822265625;4;313;1,02786772698164E-06;-1,18443878367543E-06;100 nA
-0,30029296875;164,043858585829;8,3282470703125E-08;-0,299407958984375;4;314;1,02786772698164E-06;-1,18443878367543E-06;100 nA
-0,250244140625;164,544346584565;6,5399169921875E-08;-0,249542236328125;4;315;1,02786772698164E-06;-1,18443878367543E-06;100 nA
-0,2001953125;165,044834583302;5,5877685546875E-08;-0,19964599609375;4;316;1,02786772698164E-06;-1,18443878367543E-06;100 nA
-0,150146484375;165,545322582038;4,931640625E-08;-0,14971923828125;4;317;1,02786772698164E-06;-1,18443878367543E-06;100 nA
-0,10009765625;166,045810580775;4,51751708984375E-08;-0,099853515625;4;318;1,02786772698164E-06;-1,18443878367543E-06;100 nA
-0,050048828125;166,546298579511;4,17388916015625E-08;-0,0499267578125;4;319;1,02786772698164E-06;-1,18443878367543E-06;100 nA
0;167,046786578247;3,91265869140625E-08;6,103515625E-05;4;320;1,02786772698164E-06;-1,18443878367543E-06;100 nA
0,050048828125;167,547274576984;3,64593505859375E-08;0,04998779296875;5;321;1,02648652717471E-06;-1,16717722266912E-06;100 nA
0,10009765625;168,04776257572;3,392333984375E-08;0,100006103515625;5;322;1,02648652717471E-06;-1,16717722266912E-06;100 nA
0,150146484375;168,548250574457;3,13079833984375E-08;0,149993896484375;5;323;1,02648652717471E-06;-1,16717722266912E-06;100 nA
0,2001953125;169,048738573193;2,85247802734375E-08;0,199981689453125;5;324;1,02648652717471E-06;-1,16717722266912E-06;100 nA
0,250244140625;169,549226571929;2,679443359375E-08;0,249969482421875;5;325;1,02648652717471E-06;-1,16717722266912E-06;100 nA
0,30029296875;170,049714570666;2,5048828125E-08;0,29998779296875;5;326;1,02648652717471E-06;-1,16717722266912E-06;100 nA
0,350341796875;170,550202569402;2,38922119140625E-08;0,350067138671875;5;327;1,02648652717471E-06;-1,16717722266912E-06;100 nA
0,400390625;171,050690568139;2,2979736328125E-08;0,400054931640625;5;328;1,02648652717471E-06;-1,16717722266912E-06;100 nA
0,450439453125;171,551178566875;2,19818115234375E-08;0,45001220703125;5;329;1,02648652717471E-06;-1,16717722266912E-06;100 nA
0,50048828125;172,051666565611;2,119140625E-08;0,500030517578125;5;330;1,02648652717471E-06;-1,16717722266912E-06;100 nA
0,550537109375;172,552154564348;2,02056884765625E-08;0,550079345703125;5;331;1,02648652717471E-06;-1,16717722266912E-06;100 nA
0,6005859375;173,052642563084;2,0208740234375E-08;0,60009765625;5;332;1,02648652717471E-06;-1,16717722266912E-06;100 nA
0,650634765625;173,55313056182;1,993408203125E-08;0,649993896484375;5;333;1,02648652717471E-06;-1,16717722266912E-06;100 nA
0,70068359375;174,053618560557;1,9927978515625E-08;0,699920654296875;5;334;1,02648652717471E-06;-1,16717722266912E-06;100 nA
0,750732421875;174,554106559293;1,9512939453125E-08;0,749786376953125;5;335;1,02648652717471E-06;-1,16717722266912E-06;100 nA
0,80078125;175,05459455803;1,95098876953125E-08;0,8001708984375;5;336;1,02648652717471E-06;-1,16717722266912E-06;100 nA
0,850830078125;175,555082556766;2,015380859375E-08;0,8502197265625;5;337;1,02648652717471E-06;-1,16717722266912E-06;100 nA
0,90087890625;176,055570555502;2,20001220703125E-08;0,89935302734375;5;338;1,02648652717471E-06;-1,16717722266912E-06;100 nA
0,950927734375;176,556058554239;2,44232177734375E-08;0,94940185546875;5;339;1,02648652717471E-06;-1,16717722266912E-06;100 nA
1,0009765625;177,056546552975;2,76123046875E-08;0,999755859375;5;340;1,02648652717471E-06;-1,16717722266912E-06;100 nA
0,950927734375;177,557034551712;1,9683837890625E-08;0,95001220703125;5;341;1,02648652717471E-06;-1,16717722266912E-06;100 nA
0,90087890625;178,057522550448;1,6021728515625E-08;0,899658203125;5;342;1,02648652717471E-06;-1,16717722266912E-06;100 nA
0,850830078125;178,558010549184;1,39984130859375E-08;0,8502197265625;5;343;1,02648652717471E-06;-1,16717722266912E-06;100 nA
0,80078125;179,058498547921;1,28997802734375E-08;0,799560546875;5;344;1,02648652717471E-06;-1,16717722266912E-06;100 nA
0,750732421875;179,558986546657;1,23016357421875E-08;0,7498779296875;5;345;1,02648652717471E-06;-1,16717722266912E-06;100 nA
0,70068359375;180,059474545394;1,180419921875E-08;0,699920654296875;5;346;1,02648652717471E-06;-1,16717722266912E-06;100 nA
0,650634765625;180,55996254413;1,1328125E-08;0,6500244140625;5;347;1,02648652717471E-06;-1,16717722266912E-06;100 nA
0,6005859375;181,060450542866;1,0882568359375E-08;0,60009765625;5;348;1,02648652717471E-06;-1,16717722266912E-06;100 nA
0,550537109375;181,560938541603;1,04949951171875E-08;0,550079345703125;5;349;1,02648652717471E-06;-1,16717722266912E-06;100 nA
0,50048828125;182,061426540339;1,01470947265625E-08;0,50006103515625;5;350;1,02648652717471E-06;-1,16717722266912E-06;100 nA
0,450439453125;182,561914539075;9,857177734375E-09;0,45013427734375;5;351;1,02648652717471E-06;-1,16717722266912E-06;100 nA
0,400390625;183,062402537812;9,4970703125E-09;0,40008544921875;5;352;1,02648652717471E-06;-1,16717722266912E-06;100 nA
0,350341796875;183,562890536548;9,246826171875E-09;0,35009765625;5;353;1,02648652717471E-06;-1,16717722266912E-06;100 nA
0,30029296875;184,063378535285;8,9813232421875E-09;0,30010986328125;5;354;1,02648652717471E-06;-1,16717722266912E-06;100 nA
0,250244140625;184,563866534021;8,6395263671875E-09;0,25006103515625;5;355;1,02648652717471E-06;-1,16717722266912E-06;100 nA
0,2001953125;185,064354532757;8,1939697265625E-09;0,2000732421875;5;356;1,02648652717471E-06;-1,16717722266912E-06;100 nA
0,150146484375;185,564842531494;7,55615234375E-09;0,150054931640625;5;357;1,02648652717471E-06;-1,16717722266912E-06;100 nA
0,10009765625;186,06533053023;6,842041015625E-09;0,100128173828125;5;358;1,02648652717471E-06;-1,16717722266912E-06;100 nA
0,050048828125;186,565818528967;6,0394287109375E-09;0,05010986328125;5;359;1,02648652717471E-06;-1,16717722266912E-06;100 nA
0;187,066306527703;4,9072265625E-09;0,000119018554687503;5;360;1,02648652717471E-06;-1,16717722266912E-06;100 nA
-0,050048828125;187,566794526439;2,07427978515625E-09;-0,0498046875;5;361;1,02648652717471E-06;-1,16717722266912E-06;100 nA
-0,10009765625;188,067282525176;6,00280761718749E-10;-0,099700927734375;5;362;1,02648652717471E-06;-1,16717722266912E-06;100 nA
-0,150146484375;188,567770523912;1,64703369140625E-09;-0,14959716796875;5;363;1,02648652717471E-06;-1,16717722266912E-06;100 nA
-0,2001953125;189,068258522649;1,5032958984375E-09;-0,199493408203125;5;364;1,02648652717471E-06;-1,16717722266912E-06;100 nA
-0,250244140625;189,568746521385;1,23443603515625E-09;-0,2493896484375;5;365;1,02648652717471E-06;-1,16717722266912E-06;100 nA
-0,30029296875;190,069234520121;7,65075683593749E-10;-0,299224853515625;5;366;1,02648652717471E-06;-1,16717722266912E-06;100 nA
-0,350341796875;190,569722518858;-1,00097656250001E-10;-0,349212646484375;5;367;1,02648652717471E-06;-1,16717722266912E-06;100 nA
-0,400390625;191,070210517594;-1,676025390625E-09;-0,399078369140625;5;368;1,02648652717471E-06;-1,16717722266912E-06;100 nA
-0,450439453125;191,57069851633;-4,67529296875E-09;-0,448974609375;5;369;1,02648652717471E-06;-1,16717722266912E-06;100 nA
-0,50048828125;192,071186515067;-1,0943603515625E-08;-0,498870849609375;5;370;1,02648652717471E-06;-1,16717722266912E-06;100 nA
-0,550537109375;192,571674513803;-2,440185546875E-08;-0,548736572265625;5;371;1,02648652717471E-06;-1,16717722266912E-06;100 nA
-0,6005859375;193,07216251254;-4,87518310546875E-08;-0,598541259765625;5;372;1,02648652717471E-06;-1,16717722266912E-06;100 nA
-0,650634765625;193,572650511276;-8,5906982421875E-08;-0,64837646484375;5;373;1,02648652717471E-06;-1,16717722266912E-06;100 nA
-0,70068359375;194,073138510012;-1,3299560546875E-07;-0,6983642578125;5;374;1,02648652717471E-06;-1,16717722266912E-06;100 nA
-0,750732421875;194,573626508749;-1,88720703125E-07;-0,748199462890625;5;375;1,02648652717471E-06;-1,16717722266912E-06;100 nA
-0,80078125;195,074114507485;-2,26287841796875E-07;-0,79864501953125;5;376;1,02648652717471E-06;-1,16717722266912E-06;100 nA
-0,850830078125;195,574602506222;-2,60894775390625E-07;-0,84869384765625;5;377;1,02648652717471E-06;-1,16717722266912E-06;100 nA
-0,90087890625;196,075090504958;-2,908935546875E-07;-0,89874267578125;5;378;1,02648652717471E-06;-1,16717722266912E-06;100 nA
-0,950927734375;196,575578503694;-3,0767822265625E-07;-0,94818115234375;5;379;1,02648652717471E-06;-1,16717722266912E-06;100 nA
-1,0009765625;197,076066502431;-3,28582763671875E-07;-0,99945068359375;5;380;1,02648652717471E-06;-1,16717722266912E-06;1 µA
-0,950927734375;197,576554501167;-2,0947265625E-07;-0,94879150390625;5;381;1,02648652717471E-06;-1,16717722266912E-06;1 µA
-0,90087890625;198,077042499904;-1,251220703125E-07;-0,89874267578125;5;382;1,02648652717471E-06;-1,16717722266912E-06;1 µA
-0,850830078125;198,57753049864;-6,4361572265625E-08;-0,8489990234375;5;383;1,02648652717471E-06;-1,16717722266912E-06;1 µA
-0,80078125;199,078018497376;-2,0611572265625E-08;-0,7989501953125;5;384;1,02648652717471E-06;-1,16717722266912E-06;1 µA
-0,750732421875;199,578506496113;1,0711669921875E-08;-0,7486572265625;5;385;1,02648652717471E-06;-1,16717722266912E-06;1 µA
-0,70068359375;200,078994494849;4,7515869140625E-08;-0,69866943359375;5;386;1,02648652717471E-06;-1,16717722266912E-06;1 µA
-0,650634765625;200,579482493585;9,5001220703125E-08;-0,648651123046875;5;387;1,02648652717471E-06;-1,16717722266912E-06;1 µA
-0,6005859375;201,079970492322;1,36077880859375E-07;-0,599029541015625;5;388;1,02648652717471E-06;-1,16717722266912E-06;100 nA
-0,550537109375;201,580458491058;1,68487548828125E-07;-0,549102783203125;5;389;1,02648652717471E-06;-1,16717722266912E-06;100 nA
-0,50048828125;202,080946489795;1,75750732421875E-07;-0,499267578125;5;390;1,02648652717471E-06;-1,16717722266912E-06;100 nA
-0,450439453125;202,581434488531;1,31683349609375E-07;-0,449249267578125;5;391;1,02648652717471E-06;-1,16717722266912E-06;100 nA
-0,400390625;203,081922487267;1,00830078125E-07;-0,399383544921875;5;392;1,02648652717471E-06;-1,16717722266912E-06;100 nA
-0,350341796875;203,582410486004;9,89990234375E-08;-0,349456787109375;5;393;1,02648652717471E-06;-1,16717722266912E-06;100 nA
-0,30029296875;204,08289848474;8,2183837890625E-08;-0,29949951171875;5;394;1,02648652717471E-06;-1,16717722266912E-06;100 nA
-0,250244140625;204,583386483477;6,7413330078125E-08;-0,249603271484375;5;395;1,02648652717471E-06;-1,16717722266912E-06;100 nA
-0,2001953125;205,083874482213;5,755615234375E-08;-0,1995849609375;5;396;1,02648652717471E-06;-1,16717722266912E-06;100 nA
-0,150146484375;205,584362480949;5,0506591796875E-08;-0,1497802734375;5;397;1,02648652717471E-06;-1,16717722266912E-06;100 nA
-0,10009765625;206,084850479686;4,54193115234375E-08;-0,099853515625;5;398;1,02648652717471E-06;-1,16717722266912E-06;100 nA
-0,050048828125;206,585338478422;4,1668701171875E-08;-0,049896240234375;5;399;1,02648652717471E-06;-1,16717722266912E-06;100 nA
0;207,085826477159;3,84246826171875E-08;8,23974609374944E-05;5;400;1,02648652717471E-06;-1,16717722266912E-06;100 nA
0,050048828125;207,586314475895;3,54766845703125E-08;0,04998779296875;6;401;9,48870215564966E-07;-1,01283581927419E-06;100 nA
0,10009765625;208,086802474631;3,26873779296875E-08;0,0999755859375;6;402;9,48870215564966E-07;-1,01283581927419E-06;100 nA
0,150146484375;208,587290473368;3,0035400390625E-08;0,1500244140625;6;403;9,48870215564966E-07;-1,01283581927419E-06;100 nA
0,2001953125;209,087778472104;2,82501220703125E-08;0,200042724609375;6;404;9,48870215564966E-07;-1,01283581927419E-06;100 nA
0,250244140625;209,58826647084;2,59002685546875E-08;0,25;6;405;9,48870215564966E-07;-1,01283581927419E-06;100 nA
0,30029296875;210,088754469577;2,48748779296875E-08;0,299957275390625;6;406;9,48870215564966E-07;-1,01283581927419E-06;100 nA
0,350341796875;210,589242468313;2,39410400390625E-08;0,35003662109375;6;407;9,48870215564966E-07;-1,01283581927419E-06;100 nA
0,400390625;211,08973046705;2,28424072265625E-08;0,40008544921875;6;408;9,48870215564966E-07;-1,01283581927419E-06;100 nA
0,450439453125;211,590218465786;2,19757080078125E-08;0,450042724609375;6;409;9,48870215564966E-07;-1,01283581927419E-06;100 nA
0,50048828125;212,090706464522;2,1337890625E-08;0,500091552734375;6;410;9,48870215564966E-07;-1,01283581927419E-06;100 nA
0,550537109375;212,591194463259;2,0458984375E-08;0,550079345703125;6;411;9,48870215564966E-07;-1,01283581927419E-06;100 nA
0,6005859375;213,091682461995;2,01568603515625E-08;0,60003662109375;6;412;9,48870215564966E-07;-1,01283581927419E-06;100 nA
0,650634765625;213,592170460732;1,98822021484375E-08;0,64996337890625;6;413;9,48870215564966E-07;-1,01283581927419E-06;100 nA
0,70068359375;214,092658459468;1,95526123046875E-08;0,69989013671875;6;414;9,48870215564966E-07;-1,01283581927419E-06;100 nA
0,750732421875;214,593146458204;1,92230224609375E-08;0,74981689453125;6;415;9,48870215564966E-07;-1,01283581927419E-06;100 nA
0,80078125;215,093634456941;1,94549560546875E-08;0,8001708984375;6;416;9,48870215564966E-07;-1,01283581927419E-06;100 nA
0,850830078125;215,594122455677;1,94427490234375E-08;0,849609375;6;417;9,48870215564966E-07;-1,01283581927419E-06;100 nA
0,90087890625;216,094610454414;2,0660400390625E-08;0,899658203125;6;418;9,48870215564966E-07;-1,01283581927419E-06;100 nA
0,950927734375;216,59509845315;2,3419189453125E-08;0,95001220703125;6;419;9,48870215564966E-07;-1,01283581927419E-06;100 nA
1,0009765625;217,095586451886;2,601318359375E-08;0,9991455078125;6;420;9,48870215564966E-07;-1,01283581927419E-06;100 nA
0,950927734375;217,596074450623;1,92596435546875E-08;0,94940185546875;6;421;9,48870215564966E-07;-1,01283581927419E-06;100 nA
0,90087890625;218,096562449359;1,6998291015625E-08;0,89996337890625;6;422;9,48870215564966E-07;-1,01283581927419E-06;100 nA
0,850830078125;218,597050448096;1,4385986328125E-08;0,849609375;6;423;9,48870215564966E-07;-1,01283581927419E-06;100 nA
0,80078125;219,097538446832;1,32659912109375E-08;0,79986572265625;6;424;9,48870215564966E-07;-1,01283581927419E-06;100 nA
0,750732421875;219,598026445568;1,25823974609375E-08;0,74981689453125;6;425;9,48870215564966E-07;-1,01283581927419E-06;100 nA
0,70068359375;220,098514444305;1,19873046875E-08;0,699951171875;6;426;9,48870215564966E-07;-1,01283581927419E-06;100 nA
0,650634765625;220,599002443041;1,14013671875E-08;0,650054931640625;6;427;9,48870215564966E-07;-1,01283581927419E-06;100 nA
0,6005859375;221,099490441777;1,10137939453125E-08;0,600128173828125;6;428;9,48870215564966E-07;-1,01283581927419E-06;100 nA
0,550537109375;221,599978440514;1,064453125E-08;0,550140380859375;6;429;9,48870215564966E-07;-1,01283581927419E-06;100 nA
0,50048828125;222,10046643925;1,0504150390625E-08;0,5001220703125;6;430;9,48870215564966E-07;-1,01283581927419E-06;100 nA
0,450439453125;222,600954437987;1,00189208984375E-08;0,4500732421875;6;431;9,48870215564966E-07;-1,01283581927419E-06;100 nA
0,400390625;223,101442436723;9,8114013671875E-09;0,400115966796875;6;432;9,48870215564966E-07;-1,01283581927419E-06;100 nA
0,350341796875;223,601930435459;9,552001953125E-09;0,350128173828125;6;433;9,48870215564966E-07;-1,01283581927419E-06;100 nA
0,30029296875;224,102418434196;9,3292236328125E-09;0,300048828125;6;434;9,48870215564966E-07;-1,01283581927419E-06;100 nA
0,250244140625;224,602906432932;9,002685546875E-09;0,250091552734375;6;435;9,48870215564966E-07;-1,01283581927419E-06;100 nA
0,2001953125;225,103394431669;8,428955078125E-09;0,200042724609375;6;436;9,48870215564966E-07;-1,01283581927419E-06;100 nA
0,150146484375;225,603882430405;7,99560546875E-09;0,15008544921875;6;437;9,48870215564966E-07;-1,01283581927419E-06;100 nA
0,10009765625;226,104370429141;7,1990966796875E-09;0,100128173828125;6;438;9,48870215564966E-07;-1,01283581927419E-06;100 nA
0,050048828125;226,604858427878;6,451416015625E-09;0,050079345703125;6;439;9,48870215564966E-07;-1,01283581927419E-06;100 nA
0;227,105346426614;5,33447265625E-09;0,000119018554687503;6;440;9,48870215564966E-07;-1,01283581927419E-06;100 nA
-0,050048828125;227,605834425351;2,606201171875E-09;-0,049774169921875;6;441;9,48870215564966E-07;-1,01283581927419E-06;100 nA
-0,10009765625;228,106322424087;1,351318359375E-09;-0,099639892578125;6;442;9,48870215564966E-07;-1,01283581927419E-06;100 nA
-0,150146484375;228,606810422823;2,080078125E-09;-0,14959716796875;6;443;9,48870215564966E-07;-1,01283581927419E-06;100 nA
-0,2001953125;229,10729842156;1,90093994140625E-09;-0,199432373046875;6;444;9,48870215564966E-07;-1,01283581927419E-06;100 nA
-0,250244140625;229,607786420296;1,49383544921875E-09;-0,249359130859375;6;445;9,48870215564966E-07;-1,01283581927419E-06;100 nA
-0,30029296875;230,108274419032;9,48181152343749E-10;-0,29925537109375;6;446;9,48870215564966E-07;-1,01283581927419E-06;100 nA
-0,350341796875;230,608762417769;4,57763671875E-11;-0,34918212890625;6;447;9,48870215564966E-07;-1,01283581927419E-06;100 nA
-0,400390625;231,109250416505;-1,58843994140625E-09;-0,39910888671875;6;448;9,48870215564966E-07;-1,01283581927419E-06;100 nA
-0,450439453125;231,609738415242;-4,58984375E-09;-0,449005126953125;6;449;9,48870215564966E-07;-1,01283581927419E-06;100 nA
-0,50048828125;232,110226413978;-1,06292724609375E-08;-0,498809814453125;6;450;9,48870215564966E-07;-1,01283581927419E-06;100 nA
-0,550537109375;232,610714412714;-2,34588623046875E-08;-0,548675537109375;6;451;9,48870215564966E-07;-1,01283581927419E-06;100 nA
-0,6005859375;233,111202411451;-4,65911865234375E-08;-0,598541259765625;6;452;9,48870215564966E-07;-1,01283581927419E-06;100 nA
-0,650634765625;233,611690410187;-8,1451416015625E-08;-0,648406982421875;6;453;9,48870215564966E-07;-1,01283581927419E-06;100 nA
-0,70068359375;234,112178408924;-1,28631591796875E-07;-0,69830322265625;6;454;9,48870215564966E-07;-1,01283581927419E-06;100 nA
-0,750732421875;234,61266640766;-1,82830810546875E-07;-0,748138427734375;6;455;9,48870215564966E-07;-1,01283581927419E-06;100 nA
-0,80078125;235,113154406396;-2,18505859375E-07;-0,79864501953125;6;456;9,48870215564966E-07;-1,01283581927419E-06;100 nA
-0,850830078125;235,613642405133;-2,40692138671875E-07;-0,848388671875;6;457;9,48870215564966E-07;-1,01283581927419E-06;100 nA
-0,90087890625;236,114130403869;-2,71728515625E-07;-0,8990478515625;6;458;9,48870215564966E-07;-1,01283581927419E-06;100 nA
-0,950927734375;236,614618402606;-2,57080078125E-07;-0,9490966796875;6;459;9,48870215564966E-07;-1,01283581927419E-06;100 nA
-1,0009765625;237,115106401342;-2,5653076171875E-07;-0,9991455078125;6;460;9,48870215564966E-07;-1,01283581927419E-06;100 nA
-0,950927734375;237,615594400078;-1,5692138671875E-07;-0,948486328125;6;461;9,48870215564966E-07;-1,01283581927419E-06;100 nA
-0,90087890625;238,116082398815;-8,4014892578125E-08;-0,89874267578125;6;462;9,48870215564966E-07;-1,01283581927419E-06;100 nA
-0,850830078125;238,616570397551;-4,10369873046875E-08;-0,84869384765625;6;463;9,48870215564966E-07;-1,01283581927419E-06;100 nA
-0,80078125;239,117058396287;-1,7413330078125E-08;-0,79864501953125;6;464;9,48870215564966E-07;-1,01283581927419E-06;100 nA
-0,750732421875;239,617546395024;2,5341796875E-09;-0,748626708984375;6;465;9,48870215564966E-07;-1,01283581927419E-06;100 nA
-0,70068359375;240,11803439376;2,62969970703125E-08;-0,69879150390625;6;466;9,48870215564966E-07;-1,01283581927419E-06;100 nA
-0,650634765625;240,618522392497;5,7830810546875E-08;-0,648773193359375;6;467;9,48870215564966E-07;-1,01283581927419E-06;100 nA
-0,6005859375;241,119010391233;8,673095703125E-08;-0,598907470703125;6;468;9,48870215564966E-07;-1,01283581927419E-06;100 nA
-0,550537109375;241,619498389969;1,141357421875E-07;-0,549041748046875;6;469;9,48870215564966E-07;-1,01283581927419E-06;100 nA
-0,50048828125;242,119986388706;1,6156005859375E-07;-0,499267578125;6;470;9,48870215564966E-07;-1,01283581927419E-06;100 nA
-0,450439453125;242,620474387442;1,65985107421875E-07;-0,449371337890625;6;471;9,48870215564966E-07;-1,01283581927419E-06;100 nA
-0,400390625;243,120962386179;1,1456298828125E-07;-0,399322509765625;6;472;9,48870215564966E-07;-1,01283581927419E-06;100 nA
-0,350341796875;243,621450384915;9,4085693359375E-08;-0,349517822265625;6;473;9,48870215564966E-07;-1,01283581927419E-06;100 nA
-0,30029296875;244,121938383651;8,123779296875E-08;-0,2994384765625;6;474;9,48870215564966E-07;-1,01283581927419E-06;100 nA
-0,250244140625;244,622426382388;6,5155029296875E-08;-0,249603271484375;6;475;9,48870215564966E-07;-1,01283581927419E-06;100 nA
-0,2001953125;245,122914381124;5,5908203125E-08;-0,19964599609375;6;476;9,48870215564966E-07;-1,01283581927419E-06;100 nA
-0,150146484375;245,623402379861;4,974365234375E-08;-0,149810791015625;6;477;9,48870215564966E-07;-1,01283581927419E-06;100 nA
-0,10009765625;246,123890378597;4,33502197265625E-08;-0,099853515625;6;478;9,48870215564966E-07;-1,01283581927419E-06;100 nA
-0,050048828125;246,624378377333;3,9312744140625E-08;-0,0499267578125;6;479;9,48870215564966E-07;-1,01283581927419E-06;100 nA
0;247,12486637607;3,6279296875E-08;8,23974609374944E-05;6;480;9,48870215564966E-07;-1,01283581927419E-06;100 nA
0,050048828125;247,625354374806;3,46649169921875E-08;0,050018310546875;7;481;8,92645318061113E-07;-9,45984557271004E-07;100 nA
0,10009765625;248,125842373542;3,19549560546875E-08;0,100006103515625;7;482;8,92645318061113E-07;-9,45984557271004E-07;100 nA
0,150146484375;248,626330372279;2,901611328125E-08;0,150054931640625;7;483;8,92645318061113E-07;-9,45984557271004E-07;100 nA
0,2001953125;249,126818371015;2,71697998046875E-08;0,199981689453125;7;484;8,92645318061113E-07;-9,45984557271004E-07;100 nA
0,250244140625;249,627306369752;2,53753662109375E-08;0,250030517578125;7;485;8,92645318061113E-07;-9,45984557271004E-07;100 nA
0,30029296875;250,127794368488;2,39501953125E-08;0,300018310546875;7;486;8,92645318061113E-07;-9,45984557271004E-07;100 nA
0,350341796875;250,628282367224;2,3095703125E-08;0,35003662109375;7;487;8,92645318061113E-07;-9,45984557271004E-07;100 nA
0,400390625;251,128770365961;2,2100830078125E-08;0,40008544921875;7;488;8,92645318061113E-07;-9,45984557271004E-07;100 nA
0,450439453125;251,629258364697;2,171630859375E-08;0,450103759765625;7;489;8,92645318061113E-07;-9,45984557271004E-07;100 nA
0,50048828125;252,129746363434;2,13775634765625E-08;0,50006103515625;7;490;8,92645318061113E-07;-9,45984557271004E-07;100 nA
0,550537109375;252,63023436217;2,103271484375E-08;0,5501708984375;7;491;8,92645318061113E-07;-9,45984557271004E-07;100 nA
0,6005859375;253,130722360906;2,0111083984375E-08;0,60003662109375;7;492;8,92645318061113E-07;-9,45984557271004E-07;100 nA
0,650634765625;253,631210359643;1,9744873046875E-08;0,649993896484375;7;493;8,92645318061113E-07;-9,45984557271004E-07;100 nA
0,70068359375;254,131698358379;1,96044921875E-08;0,699920654296875;7;494;8,92645318061113E-07;-9,45984557271004E-07;100 nA
0,750732421875;254,632186357116;1,9378662109375E-08;0,749786376953125;7;495;8,92645318061113E-07;-9,45984557271004E-07;100 nA
0,80078125;255,132674355852;1,93084716796875E-08;0,79986572265625;7;496;8,92645318061113E-07;-9,45984557271004E-07;100 nA
0,850830078125;255,633162354588;1,95587158203125E-08;0,84930419921875;7;497;8,92645318061113E-07;-9,45984557271004E-07;100 nA
0,90087890625;256,133650353325;2,10418701171875E-08;0,899658203125;7;498;8,92645318061113E-07;-9,45984557271004E-07;100 nA
0,950927734375;256,634138352061;2,30621337890625E-08;0,95001220703125;7;499;8,92645318061113E-07;-9,45984557271004E-07;100 nA
1,0009765625;257,134626350797;2,6287841796875E-08;0,9991455078125;7;500;8,92645318061113E-07;-9,45984557271004E-07;100 nA
0,950927734375;257,635114349534;1,95953369140625E-08;0,94970703125;7;501;8,92645318061113E-07;-9,45984557271004E-07;100 nA
0,90087890625;258,13560234827;1,63970947265625E-08;0,899658203125;7;502;8,92645318061113E-07;-9,45984557271004E-07;100 nA
0,850830078125;258,636090347007;1,45904541015625E-08;0,84930419921875;7;503;8,92645318061113E-07;-9,45984557271004E-07;100 nA
0,80078125;259,136578345743;1,32171630859375E-08;0,79986572265625;7;504;8,92645318061113E-07;-9,45984557271004E-07;100 nA
0,750732421875;259,637066344479;1,2347412109375E-08;0,749847412109375;7;505;8,92645318061113E-07;-9,45984557271004E-07;100 nA
0,70068359375;260,137554343216;1,185302734375E-08;0,699920654296875;7;506;8,92645318061113E-07;-9,45984557271004E-07;100 nA
0,650634765625;260,638042341952;1,13922119140625E-08;0,650054931640625;7;507;8,92645318061113E-07;-9,45984557271004E-07;100 nA
0,6005859375;261,138530340689;1,0992431640625E-08;0,60009765625;7;508;8,92645318061113E-07;-9,45984557271004E-07;100 nA
0,550537109375;261,639018339425;1,051025390625E-08;0,55010986328125;7;509;8,92645318061113E-07;-9,45984557271004E-07;100 nA
0,50048828125;262,139506338161;1,0137939453125E-08;0,500091552734375;7;510;8,92645318061113E-07;-9,45984557271004E-07;100 nA
0,450439453125;262,639994336898;9,7381591796875E-09;0,450164794921875;7;511;8,92645318061113E-07;-9,45984557271004E-07;100 nA
0,400390625;263,140482335634;9,466552734375E-09;0,400115966796875;7;512;8,92645318061113E-07;-9,45984557271004E-07;100 nA
0,350341796875;263,640970334371;9,1094970703125E-09;0,35009765625;7;513;8,92645318061113E-07;-9,45984557271004E-07;100 nA
0,30029296875;264,141458333107;8,782958984375E-09;0,300079345703125;7;514;8,92645318061113E-07;-9,45984557271004E-07;100 nA
0,250244140625;264,641946331843;8,4716796875E-09;0,25006103515625;7;515;8,92645318061113E-07;-9,45984557271004E-07;100 nA
0,2001953125;265,14243433058;8,111572265625E-09;0,200042724609375;7;516;8,92645318061113E-07;-9,45984557271004E-07;100 nA
0,150146484375;265,642922329316;7,5408935546875E-09;0,15008544921875;7;517;8,92645318061113E-07;-9,45984557271004E-07;100 nA
0,10009765625;266,143410328052;6,89697265625E-09;0,10009765625;7;518;8,92645318061113E-07;-9,45984557271004E-07;100 nA
0,050048828125;266,643898326789;6,1920166015625E-09;0,050079345703125;7;519;8,92645318061113E-07;-9,45984557271004E-07;100 nA
0;267,144386325525;5,133056640625E-09;0,0001373291015625;7;520;8,92645318061113E-07;-9,45984557271004E-07;100 nA
-0,050048828125;267,644874324262;2,66357421875E-09;-0,04986572265625;7;521;8,92645318061113E-07;-9,45984557271004E-07;100 nA
-0,10009765625;268,145362322998;1,3433837890625E-09;-0,099700927734375;7;522;8,92645318061113E-07;-9,45984557271004E-07;100 nA
-0,150146484375;268,645850321734;1,94183349609375E-09;-0,149566650390625;7;523;8,92645318061113E-07;-9,45984557271004E-07;100 nA
-0,2001953125;269,146338320471;1,5069580078125E-09;-0,199462890625;7;524;8,92645318061113E-07;-9,45984557271004E-07;100 nA
-0,250244140625;269,646826319207;1,20697021484375E-09;-0,249359130859375;7;525;8,92645318061113E-07;-9,45984557271004E-07;100 nA
-0,30029296875;270,147314317944;7,4493408203125E-10;-0,299285888671875;7;526;8,92645318061113E-07;-9,45984557271004E-07;100 nA
-0,350341796875;270,64780231668;-7,38525390624994E-11;-0,349212646484375;7;527;8,92645318061113E-07;-9,45984557271004E-07;100 nA
-0,400390625;271,148290315416;-1,5545654296875E-09;-0,399139404296875;7;528;8,92645318061113E-07;-9,45984557271004E-07;100 nA
-0,450439453125;271,648778314153;-4,4342041015625E-09;-0,449005126953125;7;529;8,92645318061113E-07;-9,45984557271004E-07;100 nA
-0,50048828125;272,149266312889;-1,03515625E-08;-0,498870849609375;7;530;8,92645318061113E-07;-9,45984557271004E-07;100 nA
-0,550537109375;272,649754311626;-2,29461669921875E-08;-0,548675537109375;7;531;8,92645318061113E-07;-9,45984557271004E-07;100 nA
-0,6005859375;273,150242310362;-4,59716796875E-08;-0,59857177734375;7;532;8,92645318061113E-07;-9,45984557271004E-07;100 nA
-0,650634765625;273,650730309098;-7,9437255859375E-08;-0,648406982421875;7;533;8,92645318061113E-07;-9,45984557271004E-07;100 nA
-0,70068359375;274,151218307835;-1,19659423828125E-07;-0,69830322265625;7;534;8,92645318061113E-07;-9,45984557271004E-07;100 nA
-0,750732421875;274,651706306571;-1,69891357421875E-07;-0,748199462890625;7;535;8,92645318061113E-07;-9,45984557271004E-07;100 nA
-0,80078125;275,152194305307;-2,04254150390625E-07;-0,7989501953125;7;536;8,92645318061113E-07;-9,45984557271004E-07;100 nA
-0,850830078125;275,652682304044;-2,1807861328125E-07;-0,848388671875;7;537;8,92645318061113E-07;-9,45984557271004E-07;100 nA
-0,90087890625;276,15317030278;-2,37274169921875E-07;-0,8990478515625;7;538;8,92645318061113E-07;-9,45984557271004E-07;100 nA
-0,950927734375;276,653658301517;-2,36724853515625E-07;-0,9490966796875;7;539;8,92645318061113E-07;-9,45984557271004E-07;100 nA
-1,0009765625;277,154146300253;-2,484130859375E-07;-0,99884033203125;7;540;8,92645318061113E-07;-9,45984557271004E-07;100 nA
-0,950927734375;277,654634298989;-1,56829833984375E-07;-0,948486328125;7;541;8,92645318061113E-07;-9,45984557271004E-07;100 nA
-0,90087890625;278,155122297726;-7,8125E-08;-0,89874267578125;7;542;8,92645318061113E-07;-9,45984557271004E-07;100 nA
-0,850830078125;278,655610296462;-4,02069091796875E-08;-0,84869384765625;7;543;8,92645318061113E-07;-9,45984557271004E-07;100 nA
-0,80078125;279,156098295199;-1,58966064453125E-08;-0,7989501953125;7;544;8,92645318061113E-07;-9,45984557271004E-07;100 nA
-0,750732421875;279,656586293935;3,7005615234375E-09;-0,748687744140625;7;545;8,92645318061113E-07;-9,45984557271004E-07;100 nA
-0,70068359375;280,157074292671;2,27813720703125E-08;-0,69873046875;7;546;8,92645318061113E-07;-9,45984557271004E-07;100 nA
-0,650634765625;280,657562291408;5,194091796875E-08;-0,64874267578125;7;547;8,92645318061113E-07;-9,45984557271004E-07;100 nA
-0,6005859375;281,158050290144;7,8460693359375E-08;-0,598907470703125;7;548;8,92645318061113E-07;-9,45984557271004E-07;100 nA
-0,550537109375;281,658538288881;1,03851318359375E-07;-0,549041748046875;7;549;8,92645318061113E-07;-9,45984557271004E-07;100 nA
-0,50048828125;282,159026287617;1,18377685546875E-07;-0,4991455078125;7;550;8,92645318061113E-07;-9,45984557271004E-07;100 nA
-0,450439453125;282,659514286353;1,15142822265625E-07;-0,44927978515625;7;551;8,92645318061113E-07;-9,45984557271004E-07;100 nA
-0,400390625;283,16000228509;1,0260009765625E-07;-0,39935302734375;7;552;8,92645318061113E-07;-9,45984557271004E-07;100 nA
-0,350341796875;283,660490283826;1,2066650390625E-07;-0,3494873046875;7;553;8,92645318061113E-07;-9,45984557271004E-07;100 nA
-0,30029296875;284,160978282563;8,8958740234375E-08;-0,299530029296875;7;554;8,92645318061113E-07;-9,45984557271004E-07;100 nA
-0,250244140625;284,661466281299;6,8450927734375E-08;-0,24957275390625;7;555;8,92645318061113E-07;-9,45984557271004E-07;100 nA
-0,2001953125;285,161954280035;5,4107666015625E-08;-0,199615478515625;7;556;8,92645318061113E-07;-9,45984557271004E-07;100 nA
-0,150146484375;285,662442278772;4,7430419921875E-08;-0,1497802734375;7;557;8,92645318061113E-07;-9,45984557271004E-07;100 nA
-0,10009765625;286,162930277508;4,32525634765625E-08;-0,099761962890625;7;558;8,92645318061113E-07;-9,45984557271004E-07;100 nA
-0,050048828125;286,663418276244;3,875732421875E-08;-0,0499267578125;7;559;8,92645318061113E-07;-9,45984557271004E-07;100 nA
0;287,163906274981;3,563232421875E-08;9,46044921874972E-05;7;560;8,92645318061113E-07;-9,45984557271004E-07;100 nA
0,050048828125;287,664394273717;3,343505859375E-08;0,04998779296875;8;561;8,24079889804125E-07;-8,29109668731689E-07;100 nA
0,10009765625;288,164882272454;3,0718994140625E-08;0,100006103515625;8;562;8,24079889804125E-07;-8,29109668731689E-07;100 nA
0,150146484375;288,66537027119;2,8839111328125E-08;0,14996337890625;8;563;8,24079889804125E-07;-8,29109668731689E-07;100 nA
0,2001953125;289,165858269926;2,71331787109375E-08;0,20001220703125;8;564;8,24079889804125E-07;-8,29109668731689E-07;100 nA
0,250244140625;289,666346268663;2,55096435546875E-08;0,250030517578125;8;565;8,24079889804125E-07;-8,29109668731689E-07;100 nA
0,30029296875;290,166834267399;2,42340087890625E-08;0,29998779296875;8;566;8,24079889804125E-07;-8,29109668731689E-07;100 nA
0,350341796875;290,667322266136;2,2906494140625E-08;0,350067138671875;8;567;8,24079889804125E-07;-8,29109668731689E-07;100 nA
0,400390625;291,167810264872;2,1722412109375E-08;0,40008544921875;8;568;8,24079889804125E-07;-8,29109668731689E-07;100 nA
0,450439453125;291,668298263608;2,11456298828125E-08;0,450042724609375;8;569;8,24079889804125E-07;-8,29109668731689E-07;100 nA
0,50048828125;292,168786262345;2,03826904296875E-08;0,5;8;570;8,24079889804125E-07;-8,29109668731689E-07;100 nA
0,550537109375;292,669274261081;1,9915771484375E-08;0,550048828125;8;571;8,24079889804125E-07;-8,29109668731689E-07;100 nA
0,6005859375;293,169762259818;1,95220947265625E-08;0,600067138671875;8;572;8,24079889804125E-07;-8,29109668731689E-07;100 nA
0,650634765625;293,670250258554;1,953125E-08;0,649993896484375;8;573;8,24079889804125E-07;-8,29109668731689E-07;100 nA
0,70068359375;294,17073825729;1,95343017578125E-08;0,699920654296875;8;574;8,24079889804125E-07;-8,29109668731689E-07;100 nA
0,750732421875;294,671226256027;1,90582275390625E-08;0,749786376953125;8;575;8,24079889804125E-07;-8,29109668731689E-07;100 nA
0,80078125;295,171714254763;1,925048828125E-08;0,8001708984375;8;576;8,24079889804125E-07;-8,29109668731689E-07;100 nA
0,850830078125;295,672202253499;1,9580078125E-08;0,849609375;8;577;8,24079889804125E-07;-8,29109668731689E-07;100 nA
0,90087890625;296,172690252236;2,1441650390625E-08;0,89996337890625;8;578;8,24079889804125E-07;-8,29109668731689E-07;100 nA
0,950927734375;296,673178250972;2,3236083984375E-08;0,95001220703125;8;579;8,24079889804125E-07;-8,29109668731689E-07;100 nA
1,0009765625;297,173666249709;2,63885498046875E-08;0,999755859375;8;580;8,24079889804125E-07;-8,29109668731689E-07;100 nA
0,950927734375;297,674154248445;1,988525390625E-08;0,94970703125;8;581;8,24079889804125E-07;-8,29109668731689E-07;100 nA
0,90087890625;298,174642247181;1,70745849609375E-08;0,899658203125;8;582;8,24079889804125E-07;-8,29109668731689E-07;100 nA
0,850830078125;298,675130245918;1,45263671875E-08;0,849609375;8;583;8,24079889804125E-07;-8,29109668731689E-07;100 nA
0,80078125;299,175618244654;1,33880615234375E-08;0,799560546875;8;584;8,24079889804125E-07;-8,29109668731689E-07;100 nA
0,750732421875;299,676106243391;1,22467041015625E-08;0,74981689453125;8;585;8,24079889804125E-07;-8,29109668731689E-07;100 nA
0,70068359375;300,176594242127;1,15875244140625E-08;0,699920654296875;8;586;8,24079889804125E-07;-8,29109668731689E-07;100 nA
0,650634765625;300,677082240863;1,11907958984375E-08;0,650054931640625;8;587;8,24079889804125E-07;-8,29109668731689E-07;100 nA
0,6005859375;301,1775702396;1,06201171875E-08;0,600006103515625;8;588;8,24079889804125E-07;-8,29109668731689E-07;100 nA
0,550537109375;301,678058238336;1,01409912109375E-08;0,55010986328125;8;589;8,24079889804125E-07;-8,29109668731689E-07;100 nA
0,50048828125;302,178546237073;9,82666015625E-09;0,5001220703125;8;590;8,24079889804125E-07;-8,29109668731689E-07;100 nA
0,450439453125;302,679034235809;9,637451171875E-09;0,450042724609375;8;591;8,24079889804125E-07;-8,29109668731689E-07;100 nA
0,400390625;303,179522234545;9,1461181640625E-09;0,400115966796875;8;592;8,24079889804125E-07;-8,29109668731689E-07;100 nA
0,350341796875;303,680010233282;8,843994140625E-09;0,35009765625;8;593;8,24079889804125E-07;-8,29109668731689E-07;100 nA
0,30029296875;304,180498232018;8,5968017578125E-09;0,300079345703125;8;594;8,24079889804125E-07;-8,29109668731689E-07;100 nA
0,250244140625;304,680986230754;8,154296875E-09;0,25006103515625;8;595;8,24079889804125E-07;-8,29109668731689E-07;100 nA
0,2001953125;305,181474229491;7,8521728515625E-09;0,200103759765625;8;596;8,24079889804125E-07;-8,29109668731689E-07;100 nA
0,150146484375;305,681962228227;7,3822021484375E-09;0,15008544921875;8;597;8,24079889804125E-07;-8,29109668731689E-07;100 nA
0,10009765625;306,182450226964;6,7230224609375E-09;0,10003662109375;8;598;8,24079889804125E-07;-8,29109668731689E-07;100 nA
0,050048828125;306,6829382257;6,134033203125E-09;0,050079345703125;8;599;8,24079889804125E-07;-8,29109668731689E-07;100 nA
0;307,183426224436;5,0811767578125E-09;0,000134277343750003;8;600;8,24079889804125E-07;-8,29109668731689E-07;100 nA
-0,050048828125;307,683914223173;2,58575439453125E-09;-0,049835205078125;8;601;8,24079889804125E-07;-8,29109668731689E-07;100 nA
-0,10009765625;308,184402221909;1,3653564453125E-09;-0,099639892578125;8;602;8,24079889804125E-07;-8,29109668731689E-07;100 nA
-0,150146484375;308,684890220646;1,74224853515625E-09;-0,14959716796875;8;603;8,24079889804125E-07;-8,29109668731689E-07;100 nA
-0,2001953125;309,185378219382;1,38671875E-09;-0,199462890625;8;604;8,24079889804125E-07;-8,29109668731689E-07;100 nA
-0,250244140625;309,685866218118;1,34063720703125E-09;-0,249359130859375;8;605;8,24079889804125E-07;-8,29109668731689E-07;100 nA
-0,30029296875;310,186354216855;8,477783203125E-10;-0,299285888671875;8;606;8,24079889804125E-07;-8,29109668731689E-07;100 nA
-0,350341796875;310,686842215591;-1,86157226562497E-11;-0,349212646484375;8;607;8,24079889804125E-07;-8,29109668731689E-07;100 nA
-0,400390625;311,187330214328;-1,54632568359375E-09;-0,3990478515625;8;608;8,24079889804125E-07;-8,29109668731689E-07;100 nA
-0,450439453125;311,687818213064;-4,376220703125E-09;-0,44891357421875;8;609;8,24079889804125E-07;-8,29109668731689E-07;100 nA
-0,50048828125;312,1883062118;-1,019287109375E-08;-0,498779296875;8;610;8,24079889804125E-07;-8,29109668731689E-07;100 nA
-0,550537109375;312,688794210537;-2,25006103515625E-08;-0,548736572265625;8;611;8,24079889804125E-07;-8,29109668731689E-07;100 nA
-0,6005859375;313,189282209273;-4,47265625E-08;-0,598541259765625;8;612;8,24079889804125E-07;-8,29109668731689E-07;100 nA
-0,650634765625;313,689770208009;-7,6812744140625E-08;-0,648406982421875;8;613;8,24079889804125E-07;-8,29109668731689E-07;100 nA
-0,70068359375;314,190258206746;-1,1712646484375E-07;-0,6983642578125;8;614;8,24079889804125E-07;-8,29109668731689E-07;100 nA
-0,750732421875;314,690746205482;-1,43951416015625E-07;-0,74835205078125;8;615;8,24079889804125E-07;-8,29109668731689E-07;100 nA
-0,80078125;315,191234204219;-1,59881591796875E-07;-0,7989501953125;8;616;8,24079889804125E-07;-8,29109668731689E-07;100 nA
-0,850830078125;315,691722202955;-1,83807373046875E-07;-0,84869384765625;8;617;8,24079889804125E-07;-8,29109668731689E-07;100 nA
-0,90087890625;316,192210201691;-1,917724609375E-07;-0,89874267578125;8;618;8,24079889804125E-07;-8,29109668731689E-07;100 nA
-0,950927734375;316,692698200428;-2,11212158203125E-07;-0,9490966796875;8;619;8,24079889804125E-07;-8,29109668731689E-07;100 nA
-1,0009765625;317,193186199164;-2,41851806640625E-07;-0,99884033203125;8;620;8,24079889804125E-07;-8,29109668731689E-07;100 nA
-0,950927734375;317,693674197901;-1,26129150390625E-07;-0,9490966796875;8;621;8,24079889804125E-07;-8,29109668731689E-07;100 nA
-0,90087890625;318,194162196637;-6,256103515625E-08;-0,89874267578125;8;622;8,24079889804125E-07;-8,29109668731689E-07;100 nA
-0,850830078125;318,694650195373;-3,5028076171875E-08;-0,8489990234375;8;623;8,24079889804125E-07;-8,29109668731689E-07;100 nA
-0,80078125;319,19513819411;-2,113037109375E-08;-0,79864501953125;8;624;8,24079889804125E-07;-8,29109668731689E-07;100 nA
-0,750732421875;319,695626192846;-1,9757080078125E-09;-0,748626708984375;8;625;8,24079889804125E-07;-8,29109668731689E-07;100 nA
-0,70068359375;320,196114191583;1,69647216796875E-08;-0,698699951171875;8;626;8,24079889804125E-07;-8,29109668731689E-07;100 nA
-0,650634765625;320,696602190319;4,51385498046875E-08;-0,6488037109375;8;627;8,24079889804125E-07;-8,29109668731689E-07;100 nA
-0,6005859375;321,197090189055;7,177734375E-08;-0,598846435546875;8;628;8,24079889804125E-07;-8,29109668731689E-07;100 nA
-0,550537109375;321,697578187792;9,210205078125E-08;-0,549041748046875;8;629;8,24079889804125E-07;-8,29109668731689E-07;100 nA
-0,50048828125;322,198066186528;1,03973388671875E-07;-0,4991455078125;8;630;8,24079889804125E-07;-8,29109668731689E-07;100 nA
-0,450439453125;322,698554185264;1,02142333984375E-07;-0,449249267578125;8;631;8,24079889804125E-07;-8,29109668731689E-07;100 nA
-0,400390625;323,199042184001;8,349609375E-08;-0,39935302734375;8;632;8,24079889804125E-07;-8,29109668731689E-07;100 nA
-0,350341796875;323,699530182737;9,26513671875E-08;-0,349395751953125;8;633;8,24079889804125E-07;-8,29109668731689E-07;100 nA
-0,30029296875;324,200018181474;8,9019775390625E-08;-0,299560546875;8;634;8,24079889804125E-07;-8,29109668731689E-07;100 nA
-0,250244140625;324,70050618021;6,4422607421875E-08;-0,249603271484375;8;635;8,24079889804125E-07;-8,29109668731689E-07;100 nA
-0,2001953125;325,200994178946;5,1788330078125E-08;-0,1995849609375;8;636;8,24079889804125E-07;-8,29109668731689E-07;100 nA
-0,150146484375;325,701482177683;4,4781494140625E-08;-0,1497802734375;8;637;8,24079889804125E-07;-8,29109668731689E-07;100 nA
-0,10009765625;326,201970176419;3,9166259765625E-08;-0,099761962890625;8;638;8,24079889804125E-07;-8,29109668731689E-07;100 nA
-0,050048828125;326,702458175156;3,55865478515625E-08;-0,0499267578125;8;639;8,24079889804125E-07;-8,29109668731689E-07;100 nA
0;327,202946173892;3,27484130859375E-08;7,62939453125E-05;8;640;8,24079889804125E-07;-8,29109668731689E-07;100 nA
0,050048828125;327,703434172628;3,07159423828125E-08;0,04998779296875;9;641;7,84096270799637E-07;-8,09665344655514E-07;100 nA
0,10009765625;328,203922171365;2,864990234375E-08;0,100006103515625;9;642;7,84096270799637E-07;-8,09665344655514E-07;100 nA
0,150146484375;328,704410170101;2,67791748046875E-08;0,1500244140625;9;643;7,84096270799637E-07;-8,09665344655514E-07;100 nA
0,2001953125;329,204898168838;2,4609375E-08;0,2000732421875;9;644;7,84096270799637E-07;-8,09665344655514E-07;100 nA
0,250244140625;329,705386167574;2,3382568359375E-08;0,250030517578125;9;645;7,84096270799637E-07;-8,09665344655514E-07;100 nA
0,30029296875;330,20587416631;2,203369140625E-08;0,300048828125;9;646;7,84096270799637E-07;-8,09665344655514E-07;100 nA
0,350341796875;330,706362165047;2,09747314453125E-08;0,350067138671875;9;647;7,84096270799637E-07;-8,09665344655514E-07;100 nA
0,400390625;331,206850163783;2,03369140625E-08;0,40008544921875;9;648;7,84096270799637E-07;-8,09665344655514E-07;100 nA
0,450439453125;331,707338162519;1,9677734375E-08;0,4500732421875;9;649;7,84096270799637E-07;-8,09665344655514E-07;100 nA
0,50048828125;332,207826161256;1,884765625E-08;0,50006103515625;9;650;7,84096270799637E-07;-8,09665344655514E-07;100 nA
0,550537109375;332,708314159992;1,84722900390625E-08;0,55010986328125;9;651;7,84096270799637E-07;-8,09665344655514E-07;100 nA
0,6005859375;333,208802158729;1,81396484375E-08;0,60009765625;9;652;7,84096270799637E-07;-8,09665344655514E-07;100 nA
0,650634765625;333,709290157465;1,79595947265625E-08;0,6500244140625;9;653;7,84096270799637E-07;-8,09665344655514E-07;100 nA
0,70068359375;334,209778156201;1,76788330078125E-08;0,699920654296875;9;654;7,84096270799637E-07;-8,09665344655514E-07;100 nA
0,750732421875;334,710266154938;1,76025390625E-08;0,749847412109375;9;655;7,84096270799637E-07;-8,09665344655514E-07;100 nA
0,80078125;335,210754153674;1,79595947265625E-08;0,8001708984375;9;656;7,84096270799637E-07;-8,09665344655514E-07;100 nA
0,850830078125;335,711242152411;1,91741943359375E-08;0,8502197265625;9;657;7,84096270799637E-07;-8,09665344655514E-07;100 nA
0,90087890625;336,211730151147;1,97296142578125E-08;0,899658203125;9;658;7,84096270799637E-07;-8,09665344655514E-07;100 nA
0,950927734375;336,712218149883;2,181396484375E-08;0,95001220703125;9;659;7,84096270799637E-07;-8,09665344655514E-07;100 nA
1,0009765625;337,21270614862;2,53173828125E-08;0,999755859375;9;660;7,84096270799637E-07;-8,09665344655514E-07;100 nA
0,950927734375;337,713194147356;1,81854248046875E-08;0,94970703125;9;661;7,84096270799637E-07;-8,09665344655514E-07;100 nA
0,90087890625;338,213682146093;1,48651123046875E-08;0,899658203125;9;662;7,84096270799637E-07;-8,09665344655514E-07;100 nA
0,850830078125;338,714170144829;1,30859375E-08;0,84991455078125;9;663;7,84096270799637E-07;-8,09665344655514E-07;100 nA
0,80078125;339,214658143565;1,22222900390625E-08;0,8001708984375;9;664;7,84096270799637E-07;-8,09665344655514E-07;100 nA
0,750732421875;339,715146142302;1,15875244140625E-08;0,7498779296875;9;665;7,84096270799637E-07;-8,09665344655514E-07;100 nA
0,70068359375;340,215634141038;1,1029052734375E-08;0,699951171875;9;666;7,84096270799637E-07;-8,09665344655514E-07;100 nA
0,650634765625;340,716122139774;1,05926513671875E-08;0,650115966796875;9;667;7,84096270799637E-07;-8,09665344655514E-07;100 nA
0,6005859375;341,216610138511;1,016845703125E-08;0,60009765625;9;668;7,84096270799637E-07;-8,09665344655514E-07;100 nA
0,550537109375;341,717098137247;9,8480224609375E-09;0,550140380859375;9;669;7,84096270799637E-07;-8,09665344655514E-07;100 nA
0,50048828125;342,217586135984;9,47265625E-09;0,500091552734375;9;670;7,84096270799637E-07;-8,09665344655514E-07;100 nA
0,450439453125;342,71807413472;9,2041015625E-09;0,450103759765625;9;671;7,84096270799637E-07;-8,09665344655514E-07;100 nA
0,400390625;343,218562133456;8,9599609375E-09;0,400146484375;9;672;7,84096270799637E-07;-8,09665344655514E-07;100 nA
0,350341796875;343,719050132193;8,45947265625E-09;0,350067138671875;9;673;7,84096270799637E-07;-8,09665344655514E-07;100 nA
0,30029296875;344,219538130929;8,21533203125E-09;0,300079345703125;9;674;7,84096270799637E-07;-8,09665344655514E-07;100 nA
0,250244140625;344,720026129666;7,9376220703125E-09;0,250030517578125;9;675;7,84096270799637E-07;-8,09665344655514E-07;100 nA
0,2001953125;345,220514128402;7,67822265625E-09;0,2000732421875;9;676;7,84096270799637E-07;-8,09665344655514E-07;100 nA
0,150146484375;345,721002127138;7,049560546875E-09;0,15008544921875;9;677;7,84096270799637E-07;-8,09665344655514E-07;100 nA
0,10009765625;346,221490125875;6,4910888671875E-09;0,100067138671875;9;678;7,84096270799637E-07;-8,09665344655514E-07;100 nA
0,050048828125;346,721978124611;5,804443359375E-09;0,05010986328125;9;679;7,84096270799637E-07;-8,09665344655514E-07;100 nA
0;347,222466123348;4,8309326171875E-09;0,000155639648437497;9;680;7,84096270799637E-07;-8,09665344655514E-07;100 nA
-0,050048828125;347,722954122084;2,393798828125E-09;-0,049835205078125;9;681;7,84096270799637E-07;-8,09665344655514E-07;100 nA
-0,10009765625;348,22344212082;1,029052734375E-09;-0,099700927734375;9;682;7,84096270799637E-07;-8,09665344655514E-07;100 nA
-0,150146484375;348,723930119557;1,43157958984375E-09;-0,149627685546875;9;683;7,84096270799637E-07;-8,09665344655514E-07;100 nA
-0,2001953125;349,224418118293;1,3385009765625E-09;-0,199462890625;9;684;7,84096270799637E-07;-8,09665344655514E-07;100 nA
-0,250244140625;349,724906117029;1,02203369140625E-09;-0,249359130859375;9;685;7,84096270799637E-07;-8,09665344655514E-07;100 nA
-0,30029296875;350,225394115766;5,078125E-10;-0,29925537109375;9;686;7,84096270799637E-07;-8,09665344655514E-07;100 nA
-0,350341796875;350,725882114502;-3,62243652343749E-10;-0,349151611328125;9;687;7,84096270799637E-07;-8,09665344655514E-07;100 nA
-0,400390625;351,226370113239;-1,87957763671875E-09;-0,399078369140625;9;688;7,84096270799637E-07;-8,09665344655514E-07;100 nA
-0,450439453125;351,726858111975;-4,6478271484375E-09;-0,449005126953125;9;689;7,84096270799637E-07;-8,09665344655514E-07;100 nA
-0,50048828125;352,227346110711;-1,02264404296875E-08;-0,498809814453125;9;690;7,84096270799637E-07;-8,09665344655514E-07;100 nA
-0,550537109375;352,727834109448;-2,18902587890625E-08;-0,5487060546875;9;691;7,84096270799637E-07;-8,09665344655514E-07;100 nA
-0,6005859375;353,228322108184;-4,25018310546875E-08;-0,598541259765625;9;692;7,84096270799637E-07;-8,09665344655514E-07;100 nA
-0,650634765625;353,728810106921;-7,122802734375E-08;-0,648406982421875;9;693;7,84096270799637E-07;-8,09665344655514E-07;100 nA
-0,70068359375;354,229298105657;-1,0504150390625E-07;-0,698333740234375;9;694;7,84096270799637E-07;-8,09665344655514E-07;100 nA
-0,750732421875;354,729786104393;-1,42425537109375E-07;-0,74835205078125;9;695;7,84096270799637E-07;-8,09665344655514E-07;100 nA
-0,80078125;355,23027410313;-1,549072265625E-07;-0,79833984375;9;696;7,84096270799637E-07;-8,09665344655514E-07;100 nA
-0,850830078125;355,730762101866;-1,7498779296875E-07;-0,84869384765625;9;697;7,84096270799637E-07;-8,09665344655514E-07;100 nA
-0,90087890625;356,231250100603;-1,87957763671875E-07;-0,8984375;9;698;7,84096270799637E-07;-8,09665344655514E-07;100 nA
-0,950927734375;356,731738099339;-2,1209716796875E-07;-0,948486328125;9;699;7,84096270799637E-07;-8,09665344655514E-07;100 nA
-1,0009765625;357,232226098075;-2,22747802734375E-07;-0,99853515625;9;700;7,84096270799637E-07;-8,09665344655514E-07;100 nA
-0,950927734375;357,732714096812;-1,2860107421875E-07;-0,948486328125;9;701;7,84096270799637E-07;-8,09665344655514E-07;100 nA
-0,90087890625;358,233202095548;-7,5439453125E-08;-0,89874267578125;9;702;7,84096270799637E-07;-8,09665344655514E-07;100 nA
-0,850830078125;358,733690094285;-4,33135986328125E-08;-0,84869384765625;9;703;7,84096270799637E-07;-8,09665344655514E-07;100 nA
-0,80078125;359,234178093021;-1,74957275390625E-08;-0,79864501953125;9;704;7,84096270799637E-07;-8,09665344655514E-07;100 nA
-0,750732421875;359,734666091757;2,7587890625E-10;-0,748565673828125;9;705;7,84096270799637E-07;-8,09665344655514E-07;100 nA
-0,70068359375;360,235154090494;1,781005859375E-08;-0,69866943359375;9;706;7,84096270799637E-07;-8,09665344655514E-07;100 nA
-0,650634765625;360,73564208923;4,674072265625E-08;-0,648773193359375;9;707;7,84096270799637E-07;-8,09665344655514E-07;100 nA
-0,6005859375;361,236130087966;7,415771484375E-08;-0,598846435546875;9;708;7,84096270799637E-07;-8,09665344655514E-07;100 nA
-0,550537109375;361,736618086703;8,984375E-08;-0,549041748046875;9;709;7,84096270799637E-07;-8,09665344655514E-07;100 nA
-0,50048828125;362,237106085439;9,9822998046875E-08;-0,499176025390625;9;710;7,84096270799637E-07;-8,09665344655514E-07;100 nA
-0,450439453125;362,737594084176;1,0015869140625E-07;-0,44921875;9;711;7,84096270799637E-07;-8,09665344655514E-07;100 nA
-0,400390625;363,238082082912;9,5306396484375E-08;-0,39935302734375;9;712;7,84096270799637E-07;-8,09665344655514E-07;100 nA
-0,350341796875;363,738570081648;9,2376708984375E-08;-0,349456787109375;9;713;7,84096270799637E-07;-8,09665344655514E-07;100 nA
-0,30029296875;364,239058080385;7,037353515625E-08;-0,299468994140625;9;714;7,84096270799637E-07;-8,09665344655514E-07;100 nA
-0,250244140625;364,739546079121;5,5267333984375E-08;-0,24957275390625;9;715;7,84096270799637E-07;-8,09665344655514E-07;100 nA
-0,2001953125;365,240034077858;4,6051025390625E-08;-0,199615478515625;9;716;7,84096270799637E-07;-8,09665344655514E-07;100 nA
-0,150146484375;365,740522076594;4,11895751953125E-08;-0,14971923828125;9;717;7,84096270799637E-07;-8,09665344655514E-07;100 nA
-0,10009765625;366,24101007533;3,72772216796875E-08;-0,09979248046875;9;718;7,84096270799637E-07;-8,09665344655514E-07;100 nA
-0,050048828125;366,741498074067;3,4478759765625E-08;-0,04986572265625;9;719;7,84096270799637E-07;-8,09665344655514E-07;100 nA
0;367,241986072803;3,22662353515625E-08;8,23974609374944E-05;9;720;7,84096270799637E-07;-8,09665344655514E-07;100 nA
0,050048828125;367,74247407154;2,97760009765625E-08;0,050018310546875;10;721;7,59408641606569E-07;-7,71019548177719E-07;100 nA
0,10009765625;368,242962070276;2,69561767578125E-08;0,0999755859375;10;722;7,59408641606569E-07;-7,71019548177719E-07;100 nA
0,150146484375;368,743450069012;2,5372314453125E-08;0,14996337890625;10;723;7,59408641606569E-07;-7,71019548177719E-07;100 nA
0,2001953125;369,243938067749;2,38677978515625E-08;0,199981689453125;10;724;7,59408641606569E-07;-7,71019548177719E-07;100 nA
0,250244140625;369,744426066485;2,25982666015625E-08;0,250030517578125;10;725;7,59408641606569E-07;-7,71019548177719E-07;100 nA
0,30029296875;370,244914065221;2,16705322265625E-08;0,300048828125;10;726;7,59408641606569E-07;-7,71019548177719E-07;100 nA
0,350341796875;370,745402063958;2,05078125E-08;0,35009765625;10;727;7,59408641606569E-07;-7,71019548177719E-07;100 nA
0,400390625;371,245890062694;1,915283203125E-08;0,400115966796875;10;728;7,59408641606569E-07;-7,71019548177719E-07;100 nA
0,450439453125;371,746378061431;1,89483642578125E-08;0,450103759765625;10;729;7,59408641606569E-07;-7,71019548177719E-07;100 nA
0,50048828125;372,246866060167;1,8475341796875E-08;0,500091552734375;10;730;7,59408641606569E-07;-7,71019548177719E-07;100 nA
0,550537109375;372,747354058903;1,80999755859375E-08;0,55010986328125;10;731;7,59408641606569E-07;-7,71019548177719E-07;100 nA
0,6005859375;373,24784205764;1,77825927734375E-08;0,600067138671875;10;732;7,59408641606569E-07;-7,71019548177719E-07;100 nA
0,650634765625;373,748330056376;1,7620849609375E-08;0,649993896484375;10;733;7,59408641606569E-07;-7,71019548177719E-07;100 nA
0,70068359375;374,248818055113;1,73797607421875E-08;0,699859619140625;10;734;7,59408641606569E-07;-7,71019548177719E-07;100 nA
0,750732421875;374,749306053849;1,7144775390625E-08;0,749786376953125;10;735;7,59408641606569E-07;-7,71019548177719E-07;100 nA
0,80078125;375,249794052585;1,70989990234375E-08;0,79986572265625;10;736;7,59408641606569E-07;-7,71019548177719E-07;100 nA
0,850830078125;375,750282051322;1,78253173828125E-08;0,849609375;10;737;7,59408641606569E-07;-7,71019548177719E-07;100 nA
0,90087890625;376,250770050058;1,95098876953125E-08;0,89996337890625;10;738;7,59408641606569E-07;-7,71019548177719E-07;100 nA
0,950927734375;376,751258048795;2,20001220703125E-08;0,95001220703125;10;739;7,59408641606569E-07;-7,71019548177719E-07;100 nA
1,0009765625;377,251746047531;2,49420166015625E-08;0,999755859375;10;740;7,59408641606569E-07;-7,71019548177719E-07;100 nA
0,950927734375;377,752234046267;1,84112548828125E-08;0,94970703125;10;741;7,59408641606569E-07;-7,71019548177719E-07;100 nA
0,90087890625;378,252722045004;1,49139404296875E-08;0,899658203125;10;742;7,59408641606569E-07;-7,71019548177719E-07;100 nA
0,850830078125;378,75321004374;1,3018798828125E-08;0,849609375;10;743;7,59408641606569E-07;-7,71019548177719E-07;100 nA
0,80078125;379,253698042476;1,18560791015625E-08;0,79986572265625;10;744;7,59408641606569E-07;-7,71019548177719E-07;100 nA
0,750732421875;379,754186041213;1,131591796875E-08;0,7498779296875;10;745;7,59408641606569E-07;-7,71019548177719E-07;100 nA
0,70068359375;380,254674039949;1,07757568359375E-08;0,699981689453125;10;746;7,59408641606569E-07;-7,71019548177719E-07;100 nA
0,650634765625;380,755162038686;1,03546142578125E-08;0,650054931640625;10;747;7,59408641606569E-07;-7,71019548177719E-07;100 nA
0,6005859375;381,255650037422;1,00555419921875E-08;0,60015869140625;10;748;7,59408641606569E-07;-7,71019548177719E-07;100 nA
0,550537109375;381,756138036158;9,716796875E-09;0,550079345703125;10;749;7,59408641606569E-07;-7,71019548177719E-07;100 nA
0,50048828125;382,256626034895;9,3414306640625E-09;0,50006103515625;10;750;7,59408641606569E-07;-7,71019548177719E-07;100 nA
0,450439453125;382,757114033631;9,0118408203125E-09;0,45013427734375;10;751;7,59408641606569E-07;-7,71019548177719E-07;100 nA
0,400390625;383,257602032368;8,8134765625E-09;0,400146484375;10;752;7,59408641606569E-07;-7,71019548177719E-07;100 nA
0,350341796875;383,758090031104;8,3404541015625E-09;0,35009765625;10;753;7,59408641606569E-07;-7,71019548177719E-07;100 nA
0,30029296875;384,25857802984;8,154296875E-09;0,300079345703125;10;754;7,59408641606569E-07;-7,71019548177719E-07;100 nA
0,250244140625;384,759066028577;7,843017578125E-09;0,250030517578125;10;755;7,59408641606569E-07;-7,71019548177719E-07;100 nA
0,2001953125;385,259554027313;7,4951171875E-09;0,2000732421875;10;756;7,59408641606569E-07;-7,71019548177719E-07;100 nA
0,150146484375;385,76004202605;7,049560546875E-09;0,150054931640625;10;757;7,59408641606569E-07;-7,71019548177719E-07;100 nA
0,10009765625;386,260530024786;6,4483642578125E-09;0,100067138671875;10;758;7,59408641606569E-07;-7,71019548177719E-07;100 nA
0,050048828125;386,761018023522;5,694580078125E-09;0,050018310546875;10;759;7,59408641606569E-07;-7,71019548177719E-07;100 nA
0;387,261506022259;4,827880859375E-09;0,000125122070312497;10;760;7,59408641606569E-07;-7,71019548177719E-07;100 nA
-0,050048828125;387,761994020995;2,38677978515625E-09;-0,049896240234375;10;761;7,59408641606569E-07;-7,71019548177719E-07;100 nA
-0,10009765625;388,262482019731;8,544921875E-10;-0,099578857421875;10;762;7,59408641606569E-07;-7,71019548177719E-07;100 nA
-0,150146484375;388,762970018468;1,46514892578125E-09;-0,149566650390625;10;763;7,59408641606569E-07;-7,71019548177719E-07;100 nA
-0,2001953125;389,263458017204;1,3458251953125E-09;-0,19952392578125;10;764;7,59408641606569E-07;-7,71019548177719E-07;100 nA
-0,250244140625;389,763946015941;1,007080078125E-09;-0,249359130859375;10;765;7,59408641606569E-07;-7,71019548177719E-07;100 nA
-0,30029296875;390,264434014677;4,351806640625E-10;-0,299285888671875;10;766;7,59408641606569E-07;-7,71019548177719E-07;100 nA
-0,350341796875;390,764922013413;-4,8492431640625E-10;-0,349212646484375;10;767;7,59408641606569E-07;-7,71019548177719E-07;100 nA
-0,400390625;391,26541001215;-1,99737548828125E-09;-0,399078369140625;10;768;7,59408641606569E-07;-7,71019548177719E-07;100 nA
-0,450439453125;391,765898010886;-4,7027587890625E-09;-0,448944091796875;10;769;7,59408641606569E-07;-7,71019548177719E-07;100 nA
-0,50048828125;392,266386009623;-1,00067138671875E-08;-0,498870849609375;10;770;7,59408641606569E-07;-7,71019548177719E-07;100 nA
-0,550537109375;392,766874008359;-2,12371826171875E-08;-0,548736572265625;10;771;7,59408641606569E-07;-7,71019548177719E-07;100 nA
-0,6005859375;393,267362007095;-4,07989501953125E-08;-0,5985107421875;10;772;7,59408641606569E-07;-7,71019548177719E-07;100 nA
-0,650634765625;393,767850005832;-6,7169189453125E-08;-0,648406982421875;10;773;7,59408641606569E-07;-7,71019548177719E-07;100 nA
-0,70068359375;394,268338004568;-1,04095458984375E-07;-0,6983642578125;10;774;7,59408641606569E-07;-7,71019548177719E-07;100 nA
-0,750732421875;394,768826003305;-1,41510009765625E-07;-0,748321533203125;10;775;7,59408641606569E-07;-7,71019548177719E-07;100 nA
-0,80078125;395,269314002041;-1,544189453125E-07;-0,7989501953125;10;776;7,59408641606569E-07;-7,71019548177719E-07;100 nA
-0,850830078125;395,769802000777;-1,63330078125E-07;-0,84869384765625;10;777;7,59408641606569E-07;-7,71019548177719E-07;100 nA
-0,90087890625;396,270289999514;-1,87255859375E-07;-0,8984375;10;778;7,59408641606569E-07;-7,71019548177719E-07;100 nA
-0,950927734375;396,77077799825;-2,08221435546875E-07;-0,94879150390625;10;779;7,59408641606569E-07;-7,71019548177719E-07;100 nA
-1,0009765625;397,271265996986;-2,0556640625E-07;-0,99884033203125;10;780;7,59408641606569E-07;-7,71019548177719E-07;100 nA
-0,950927734375;397,771753995723;-1,1590576171875E-07;-0,948486328125;10;781;7,59408641606569E-07;-7,71019548177719E-07;100 nA
-0,90087890625;398,272241994459;-6,4361572265625E-08;-0,89874267578125;10;782;7,59408641606569E-07;-7,71019548177719E-07;100 nA
-0,850830078125;398,772729993196;-3,47412109375E-08;-0,84869384765625;10;783;7,59408641606569E-07;-7,71019548177719E-07;100 nA
-0,80078125;399,273217991932;-1,47308349609375E-08;-0,7989501953125;10;784;7,59408641606569E-07;-7,71019548177719E-07;100 nA
-0,750732421875;399,773705990668;1,36322021484375E-09;-0,748565673828125;10;785;7,59408641606569E-07;-7,71019548177719E-07;100 nA
-0,70068359375;400,274193989405;1,84112548828125E-08;-0,698699951171875;10;786;7,59408641606569E-07;-7,71019548177719E-07;100 nA
-0,650634765625;400,774681988141;4,38140869140625E-08;-0,64874267578125;10;787;7,59408641606569E-07;-7,71019548177719E-07;100 nA
-0,6005859375;401,275169986878;6,0150146484375E-08;-0,59881591796875;10;788;7,59408641606569E-07;-7,71019548177719E-07;100 nA
-0,550537109375;401,775657985614;8,502197265625E-08;-0,549072265625;10;789;7,59408641606569E-07;-7,71019548177719E-07;100 nA
-0,50048828125;402,27614598435;9,674072265625E-08;-0,499114990234375;10;790;7,59408641606569E-07;-7,71019548177719E-07;100 nA
-0,450439453125;402,776633983087;9,173583984375E-08;-0,449249267578125;10;791;7,59408641606569E-07;-7,71019548177719E-07;100 nA
-0,400390625;403,277121981823;9,722900390625E-08;-0,399383544921875;10;792;7,59408641606569E-07;-7,71019548177719E-07;100 nA
-0,350341796875;403,77760998056;9,0087890625E-08;-0,34942626953125;10;793;7,59408641606569E-07;-7,71019548177719E-07;100 nA
-0,30029296875;404,278097979296;7,0098876953125E-08;-0,299468994140625;10;794;7,59408641606569E-07;-7,71019548177719E-07;100 nA
-0,250244140625;404,778585978032;5,6915283203125E-08;-0,24957275390625;10;795;7,59408641606569E-07;-7,71019548177719E-07;100 nA
-0,2001953125;405,279073976769;4,7027587890625E-08;-0,199676513671875;10;796;7,59408641606569E-07;-7,71019548177719E-07;100 nA
-0,150146484375;405,779561975505;4,03900146484375E-08;-0,149749755859375;10;797;7,59408641606569E-07;-7,71019548177719E-07;100 nA
-0,10009765625;406,280049974241;3,631591796875E-08;-0,099761962890625;10;798;7,59408641606569E-07;-7,71019548177719E-07;100 nA
-0,050048828125;406,780537972978;3,38897705078125E-08;-0,0499267578125;10;799;7,59408641606569E-07;-7,71019548177719E-07;100 nA
0;407,281025971714;3,048095703125E-08;9,46044921874972E-05;10;800;7,59408641606569E-07;-7,71019548177719E-07;100 nA
