Potential applied (V);Time (s);WE(1).Current (A);WE(1).Potential (V);Scan;Index;Q+;Q-;Current range
0,050048828125;8,81061497775534;3,9794921875E-09;0,050079345703125;1;1;1,69025223702192E-07;-2,33833324164152E-07;100 nA
0,10009765625;9,31110297649172;6,4117431640625E-09;0,100067138671875;1;2;1,69025223702192E-07;-2,33833324164152E-07;100 nA
0,150146484375;9,81159097522811;8,10546875E-09;0,150115966796875;1;3;1,69025223702192E-07;-2,33833324164152E-07;100 nA
0,2001953125;10,3120789739645;6,988525390625E-09;0,200103759765625;1;4;1,69025223702192E-07;-2,33833324164152E-07;100 nA
0,250244140625;10,8125669727009;7,537841796875E-09;0,250030517578125;1;5;1,69025223702192E-07;-2,33833324164152E-07;100 nA
0,30029296875;11,3130549714373;8,4808349609375E-09;0,30010986328125;1;6;1,69025223702192E-07;-2,33833324164152E-07;100 nA
0,350341796875;11,8135429701737;9,2498779296875E-09;0,35015869140625;1;7;1,69025223702192E-07;-2,33833324164152E-07;100 nA
0,400390625;12,3140309689101;9,6588134765625E-09;0,400115966796875;1;8;1,69025223702192E-07;-2,33833324164152E-07;100 nA
0,450439453125;12,8145189676465;9,613037109375E-09;0,450103759765625;1;9;1,69025223702192E-07;-2,33833324164152E-07;100 nA
0,50048828125;13,3150069663828;9,3658447265625E-09;0,500152587890625;1;10;1,69025223702192E-07;-2,33833324164152E-07;100 nA
0,550537109375;13,8154949651192;9,2254638671875E-09;0,55010986328125;1;11;1,69025223702192E-07;-2,33833324164152E-07;100 nA
0,6005859375;14,3159829638556;9,2987060546875E-09;0,600067138671875;1;12;1,69025223702192E-07;-2,33833324164152E-07;100 nA
0,650634765625;14,816470962592;9,527587890625E-09;0,65008544921875;1;13;1,69025223702192E-07;-2,33833324164152E-07;100 nA
0,70068359375;15,3169589613284;9,85107421875E-09;0,699920654296875;1;14;1,69025223702192E-07;-2,33833324164152E-07;100 nA
0,750732421875;15,8174469600648;1,021728515625E-08;0,749847412109375;1;15;1,69025223702192E-07;-2,33833324164152E-07;100 nA
0,80078125;16,3179349588012;1,05804443359375E-08;0,799560546875;1;16;1,69025223702192E-07;-2,33833324164152E-07;100 nA
0,850830078125;16,8184229575376;1,09283447265625E-08;0,849609375;1;17;1,69025223702192E-07;-2,33833324164152E-07;100 nA
0,90087890625;17,318910956274;1,1297607421875E-08;0,89935302734375;1;18;1,69025223702192E-07;-2,33833324164152E-07;100 nA
0,950927734375;17,8193989550103;1,1688232421875E-08;0,94970703125;1;19;1,69025223702192E-07;-2,33833324164152E-07;100 nA
1,0009765625;18,3198869537467;1,21307373046875E-08;0,999755859375;1;20;1,69025223702192E-07;-2,33833324164152E-07;100 nA
0,950927734375;18,8203749524831;7,4981689453125E-09;0,94940185546875;1;21;1,69025223702192E-07;-2,33833324164152E-07;100 nA
0,90087890625;19,3208629512195;4,852294921875E-09;0,899658203125;1;22;1,69025223702192E-07;-2,33833324164152E-07;100 nA
0,850830078125;19,8213509499559;3,1036376953125E-09;0,849609375;1;23;1,69025223702192E-07;-2,33833324164152E-07;100 nA
0,80078125;20,3218389486923;1,8414306640625E-09;0,79986572265625;1;24;1,69025223702192E-07;-2,33833324164152E-07;100 nA
0,750732421875;20,8223269474287;8,2061767578125E-10;0,74993896484375;1;25;1,69025223702192E-07;-2,33833324164152E-07;100 nA
0,70068359375;21,3228149461651;-6,83593750000003E-11;0,699981689453125;1;26;1,69025223702192E-07;-2,33833324164152E-07;100 nA
0,650634765625;21,8233029449015;-8,2427978515625E-10;0,65008544921875;1;27;1,69025223702192E-07;-2,33833324164152E-07;100 nA
0,6005859375;22,3237909436378;-1,6729736328125E-09;0,600189208984375;1;28;1,69025223702192E-07;-2,33833324164152E-07;100 nA
0,550537109375;22,8242789423742;-2,45361328125E-09;0,550262451171875;1;29;1,69025223702192E-07;-2,33833324164152E-07;100 nA
0,50048828125;23,3247669411106;-3,2379150390625E-09;0,500091552734375;1;30;1,69025223702192E-07;-2,33833324164152E-07;100 nA
0,450439453125;23,825254939847;-4,0313720703125E-09;0,4500732421875;1;31;1,69025223702192E-07;-2,33833324164152E-07;100 nA
0,400390625;24,3257429385834;-4,8126220703125E-09;0,400146484375;1;32;1,69025223702192E-07;-2,33833324164152E-07;100 nA
0,350341796875;24,8262309373198;-5,6182861328125E-09;0,35009765625;1;33;1,69025223702192E-07;-2,33833324164152E-07;100 nA
0,30029296875;25,3267189360562;-6,463623046875E-09;0,300079345703125;1;34;1,69025223702192E-07;-2,33833324164152E-07;100 nA
0,250244140625;25,8272069347926;-7,3760986328125E-09;0,250091552734375;1;35;1,69025223702192E-07;-2,33833324164152E-07;100 nA
0,2001953125;26,327694933529;-8,45947265625E-09;0,2000732421875;1;36;1,69025223702192E-07;-2,33833324164152E-07;100 nA
0,150146484375;26,8281829322653;-1,0174560546875E-08;0,150115966796875;1;37;1,69025223702192E-07;-2,33833324164152E-07;100 nA
0,10009765625;27,3286709310017;-1,3201904296875E-08;0,100128173828125;1;38;1,69025223702192E-07;-2,33833324164152E-07;100 nA
0,050048828125;27,8291589297381;-1,54144287109375E-08;0,05010986328125;1;39;1,69025223702192E-07;-2,33833324164152E-07;100 nA
0;28,3296469284745;-1,56341552734375E-08;0,0001373291015625;1;40;1,69025223702192E-07;-2,33833324164152E-07;100 nA
-0,050048828125;28,8301349272109;-1,549072265625E-08;-0,049835205078125;1;41;1,69025223702192E-07;-2,33833324164152E-07;100 nA
-0,10009765625;29,3306229259473;-1,5789794921875E-08;-0,09967041015625;1;42;1,69025223702192E-07;-2,33833324164152E-07;100 nA
-0,150146484375;29,8311109246837;-1,6339111328125E-08;-0,149566650390625;1;43;1,69025223702192E-07;-2,33833324164152E-07;100 nA
-0,2001953125;30,3315989234201;-1,70318603515625E-08;-0,19940185546875;1;44;1,69025223702192E-07;-2,33833324164152E-07;100 nA
-0,250244140625;30,8320869221565;-1,78466796875E-08;-0,249298095703125;1;45;1,69025223702192E-07;-2,33833324164152E-07;100 nA
-0,30029296875;31,3325749208929;-1,88629150390625E-08;-0,29925537109375;1;46;1,69025223702192E-07;-2,33833324164152E-07;100 nA
-0,350341796875;31,8330629196292;-2,0355224609375E-08;-0,34918212890625;1;47;1,69025223702192E-07;-2,33833324164152E-07;100 nA
-0,400390625;32,3335509183656;-2,16033935546875E-08;-0,3990478515625;1;48;1,69025223702192E-07;-2,33833324164152E-07;100 nA
-0,450439453125;32,834038917102;-2,13134765625E-08;-0,448883056640625;1;49;1,69025223702192E-07;-2,33833324164152E-07;100 nA
-0,50048828125;33,3345269158384;-1,7718505859375E-08;-0,498779296875;1;50;1,69025223702192E-07;-2,33833324164152E-07;100 nA
-0,550537109375;33,8350149145748;-1,66168212890625E-08;-0,54876708984375;1;51;1,69025223702192E-07;-2,33833324164152E-07;100 nA
-0,6005859375;34,3355029133112;-1,69403076171875E-08;-0,598541259765625;1;52;1,69025223702192E-07;-2,33833324164152E-07;100 nA
-0,650634765625;34,8359909120476;-1,700439453125E-08;-0,648529052734375;1;53;1,69025223702192E-07;-2,33833324164152E-07;100 nA
-0,70068359375;35,336478910784;-1,66351318359375E-08;-0,698516845703125;1;54;1,69025223702192E-07;-2,33833324164152E-07;100 nA
-0,750732421875;35,8369669095204;-1,617431640625E-08;-0,748565673828125;1;55;1,69025223702192E-07;-2,33833324164152E-07;100 nA
-0,80078125;36,3374549082567;-1,5948486328125E-08;-0,79864501953125;1;56;1,69025223702192E-07;-2,33833324164152E-07;100 nA
-0,850830078125;36,8379429069931;-1,590576171875E-08;-0,84869384765625;1;57;1,69025223702192E-07;-2,33833324164152E-07;100 nA
-0,90087890625;37,3384309057295;-1,59576416015625E-08;-0,8990478515625;1;58;1,69025223702192E-07;-2,33833324164152E-07;100 nA
-0,950927734375;37,8389189044659;-1,61163330078125E-08;-0,94879150390625;1;59;1,69025223702192E-07;-2,33833324164152E-07;100 nA
-1,0009765625;38,3394069032023;-1,64306640625E-08;-0,99884033203125;1;60;1,69025223702192E-07;-2,33833324164152E-07;100 nA
-0,950927734375;38,8398949019387;-1,01226806640625E-08;-0,94879150390625;1;61;1,69025223702192E-07;-2,33833324164152E-07;100 nA
-0,90087890625;39,3403829006751;-6,31103515625E-09;-0,89874267578125;1;62;1,69025223702192E-07;-2,33833324164152E-07;100 nA
-0,850830078125;39,8408708994115;-3,6346435546875E-09;-0,848388671875;1;63;1,69025223702192E-07;-2,33833324164152E-07;100 nA
-0,80078125;40,3413588981479;-1,6168212890625E-09;-0,79833984375;1;64;1,69025223702192E-07;-2,33833324164152E-07;100 nA
-0,750732421875;40,8418468968842;4,57763671875E-12;-0,74859619140625;1;65;1,69025223702192E-07;-2,33833324164152E-07;100 nA
-0,70068359375;41,3423348956206;1,42974853515625E-09;-0,698577880859375;1;66;1,69025223702192E-07;-2,33833324164152E-07;100 nA
-0,650634765625;41,842822894357;2,8106689453125E-09;-0,648590087890625;1;67;1,69025223702192E-07;-2,33833324164152E-07;100 nA
-0,6005859375;42,3433108930934;4,0802001953125E-09;-0,598602294921875;1;68;1,69025223702192E-07;-2,33833324164152E-07;100 nA
-0,550537109375;42,8437988918298;5,0750732421875E-09;-0,548736572265625;1;69;1,69025223702192E-07;-2,33833324164152E-07;100 nA
-0,50048828125;43,3442868905662;5,902099609375E-09;-0,49884033203125;1;70;1,69025223702192E-07;-2,33833324164152E-07;100 nA
-0,450439453125;43,8447748893026;6,6802978515625E-09;-0,448974609375;1;71;1,69025223702192E-07;-2,33833324164152E-07;100 nA
-0,400390625;44,345262888039;7,373046875E-09;-0,399078369140625;1;72;1,69025223702192E-07;-2,33833324164152E-07;100 nA
-0,350341796875;44,8457508867754;8,2122802734375E-09;-0,34912109375;1;73;1,69025223702192E-07;-2,33833324164152E-07;100 nA
-0,30029296875;45,3462388855118;9,14306640625E-09;-0,29925537109375;1;74;1,69025223702192E-07;-2,33833324164152E-07;100 nA
-0,250244140625;45,8467268842481;1,03271484375E-08;-0,249359130859375;1;75;1,69025223702192E-07;-2,33833324164152E-07;100 nA
-0,2001953125;46,3472148829845;1,1767578125E-08;-0,199462890625;1;76;1,69025223702192E-07;-2,33833324164152E-07;100 nA
-0,150146484375;46,8477028817209;1,33087158203125E-08;-0,14959716796875;1;77;1,69025223702192E-07;-2,33833324164152E-07;100 nA
-0,10009765625;47,3481908804573;1,48681640625E-08;-0,0997314453125;1;78;1,69025223702192E-07;-2,33833324164152E-07;100 nA
-0,050048828125;47,8486788791937;1,64337158203125E-08;-0,049896240234375;1;79;1,69025223702192E-07;-2,33833324164152E-07;100 nA
0;48,3491668779301;1,80511474609375E-08;0,0001220703125;1;80;1,69025223702192E-07;-2,33833324164152E-07;100 nA
0,050048828125;48,8496548766665;1,982421875E-08;0,050048828125;2;81;2,33581766486168E-07;-2,30163361877203E-07;100 nA
0,10009765625;49,3501428754029;2,07489013671875E-08;0,100006103515625;2;82;2,33581766486168E-07;-2,30163361877203E-07;100 nA
0,150146484375;49,8506308741393;1,8377685546875E-08;0,1500244140625;2;83;2,33581766486168E-07;-2,30163361877203E-07;100 nA
0,2001953125;50,3511188728756;1,78070068359375E-08;0,20001220703125;2;84;2,33581766486168E-07;-2,30163361877203E-07;100 nA
0,250244140625;50,851606871612;1,77520751953125E-08;0,250030517578125;2;85;2,33581766486168E-07;-2,30163361877203E-07;100 nA
0,30029296875;51,3520948703484;1,7706298828125E-08;0,300079345703125;2;86;2,33581766486168E-07;-2,30163361877203E-07;100 nA
0,350341796875;51,8525828690848;1,74285888671875E-08;0,350067138671875;2;87;2,33581766486168E-07;-2,30163361877203E-07;100 nA
0,400390625;52,3530708678212;1,67083740234375E-08;0,400115966796875;2;88;2,33581766486168E-07;-2,30163361877203E-07;100 nA
0,450439453125;52,8535588665576;1,56036376953125E-08;0,4500732421875;2;89;2,33581766486168E-07;-2,30163361877203E-07;100 nA
0,50048828125;53,354046865294;1,45050048828125E-08;0,500091552734375;2;90;2,33581766486168E-07;-2,30163361877203E-07;100 nA
0,550537109375;53,8545348640304;1,37176513671875E-08;0,55010986328125;2;91;2,33581766486168E-07;-2,30163361877203E-07;100 nA
0,6005859375;54,3550228627668;1,32568359375E-08;0,60009765625;2;92;2,33581766486168E-07;-2,30163361877203E-07;100 nA
0,650634765625;54,8555108615031;1,3006591796875E-08;0,6500244140625;2;93;2,33581766486168E-07;-2,30163361877203E-07;100 nA
0,70068359375;55,3559988602395;1,2884521484375E-08;0,699920654296875;2;94;2,33581766486168E-07;-2,30163361877203E-07;100 nA
0,750732421875;55,8564868589759;1,28265380859375E-08;0,749847412109375;2;95;2,33581766486168E-07;-2,30163361877203E-07;100 nA
0,80078125;56,3569748577123;1,27960205078125E-08;0,79986572265625;2;96;2,33581766486168E-07;-2,30163361877203E-07;100 nA
0,850830078125;56,8574628564487;1,2799072265625E-08;0,84930419921875;2;97;2,33581766486168E-07;-2,30163361877203E-07;100 nA
0,90087890625;57,3579508551851;1,2841796875E-08;0,89935302734375;2;98;2,33581766486168E-07;-2,30163361877203E-07;100 nA
0,950927734375;57,8584388539215;1,29669189453125E-08;0,94940185546875;2;99;2,33581766486168E-07;-2,30163361877203E-07;100 nA
1,0009765625;58,3589268526579;1,3238525390625E-08;0,9991455078125;2;100;2,33581766486168E-07;-2,30163361877203E-07;100 nA
0,950927734375;58,8594148513943;8,5601806640625E-09;0,94970703125;2;101;2,33581766486168E-07;-2,30163361877203E-07;100 nA
0,90087890625;59,3599028501307;5,865478515625E-09;0,89996337890625;2;102;2,33581766486168E-07;-2,30163361877203E-07;100 nA
0,850830078125;59,860390848867;4,0283203125E-09;0,84991455078125;2;103;2,33581766486168E-07;-2,30163361877203E-07;100 nA
0,80078125;60,3608788476034;2,6580810546875E-09;0,799560546875;2;104;2,33581766486168E-07;-2,30163361877203E-07;100 nA
0,750732421875;60,8613668463398;1,54571533203125E-09;0,749847412109375;2;105;2,33581766486168E-07;-2,30163361877203E-07;100 nA
0,70068359375;61,3618548450762;5,67016601562501E-10;0,70001220703125;2;106;2,33581766486168E-07;-2,30163361877203E-07;100 nA
0,650634765625;61,8623428438126;-3,4027099609375E-10;0,650054931640625;2;107;2,33581766486168E-07;-2,30163361877203E-07;100 nA
0,6005859375;62,362830842549;-1,21002197265625E-09;0,60015869140625;2;108;2,33581766486168E-07;-2,30163361877203E-07;100 nA
0,550537109375;62,8633188412854;-2,0703125E-09;0,55023193359375;2;109;2,33581766486168E-07;-2,30163361877203E-07;100 nA
0,50048828125;63,3638068400218;-2,911376953125E-09;0,5001220703125;2;110;2,33581766486168E-07;-2,30163361877203E-07;100 nA
0,450439453125;63,8642948387582;-3,7567138671875E-09;0,450103759765625;2;111;2,33581766486168E-07;-2,30163361877203E-07;100 nA
0,400390625;64,3647828374945;-4,5989990234375E-09;0,400146484375;2;112;2,33581766486168E-07;-2,30163361877203E-07;100 nA
0,350341796875;64,8652708362309;-5,4473876953125E-09;0,350067138671875;2;113;2,33581766486168E-07;-2,30163361877203E-07;100 nA
0,30029296875;65,3657588349673;-6,3446044921875E-09;0,300079345703125;2;114;2,33581766486168E-07;-2,30163361877203E-07;100 nA
0,250244140625;65,8662468337037;-7,305908203125E-09;0,250091552734375;2;115;2,33581766486168E-07;-2,30163361877203E-07;100 nA
0,2001953125;66,3667348324401;-8,4381103515625E-09;0,200042724609375;2;116;2,33581766486168E-07;-2,30163361877203E-07;100 nA
0,150146484375;66,8672228311765;-1,01898193359375E-08;0,150146484375;2;117;2,33581766486168E-07;-2,30163361877203E-07;100 nA
0,10009765625;67,3677108299129;-1,32965087890625E-08;0,100128173828125;2;118;2,33581766486168E-07;-2,30163361877203E-07;100 nA
0,050048828125;67,8681988286493;-1,5924072265625E-08;0,050048828125;2;119;2,33581766486168E-07;-2,30163361877203E-07;100 nA
0;68,3686868273857;-1,6473388671875E-08;0,000125122070312497;2;120;2,33581766486168E-07;-2,30163361877203E-07;100 nA
-0,050048828125;68,869174826122;-1,64581298828125E-08;-0,049725341796875;2;121;2,33581766486168E-07;-2,30163361877203E-07;100 nA
-0,10009765625;69,3696628248584;-1,68914794921875E-08;-0,09967041015625;2;122;2,33581766486168E-07;-2,30163361877203E-07;100 nA
-0,150146484375;69,8701508235948;-1,7510986328125E-08;-0,149566650390625;2;123;2,33581766486168E-07;-2,30163361877203E-07;100 nA
-0,2001953125;70,3706388223312;-1,8157958984375E-08;-0,199371337890625;2;124;2,33581766486168E-07;-2,30163361877203E-07;100 nA
-0,250244140625;70,8711268210676;-1,885986328125E-08;-0,2493896484375;2;125;2,33581766486168E-07;-2,30163361877203E-07;100 nA
-0,30029296875;71,371614819804;-1,98089599609375E-08;-0,29925537109375;2;126;2,33581766486168E-07;-2,30163361877203E-07;100 nA
-0,350341796875;71,8721028185404;-2,0941162109375E-08;-0,349151611328125;2;127;2,33581766486168E-07;-2,30163361877203E-07;100 nA
-0,400390625;72,3725908172768;-2,12493896484375E-08;-0,3990478515625;2;128;2,33581766486168E-07;-2,30163361877203E-07;100 nA
-0,450439453125;72,8730788160132;-1,9622802734375E-08;-0,448944091796875;2;129;2,33581766486168E-07;-2,30163361877203E-07;100 nA
-0,50048828125;73,3735668147496;-1,63543701171875E-08;-0,498870849609375;2;130;2,33581766486168E-07;-2,30163361877203E-07;100 nA
-0,550537109375;73,8740548134859;-1,6278076171875E-08;-0,5487060546875;2;131;2,33581766486168E-07;-2,30163361877203E-07;100 nA
-0,6005859375;74,3745428122223;-1,63543701171875E-08;-0,598663330078125;2;132;2,33581766486168E-07;-2,30163361877203E-07;100 nA
-0,650634765625;74,8750308109587;-1,6143798828125E-08;-0,6485595703125;2;133;2,33581766486168E-07;-2,30163361877203E-07;100 nA
-0,70068359375;75,3755188096951;-1,572265625E-08;-0,69854736328125;2;134;2,33581766486168E-07;-2,30163361877203E-07;100 nA
-0,750732421875;75,8760068084315;-1,533203125E-08;-0,74859619140625;2;135;2,33581766486168E-07;-2,30163361877203E-07;100 nA
-0,80078125;76,3764948071679;-1,51092529296875E-08;-0,79864501953125;2;136;2,33581766486168E-07;-2,30163361877203E-07;100 nA
-0,850830078125;76,8769828059043;-1,5008544921875E-08;-0,84869384765625;2;137;2,33581766486168E-07;-2,30163361877203E-07;100 nA
-0,90087890625;77,3774708046407;-1,50299072265625E-08;-0,8984375;2;138;2,33581766486168E-07;-2,30163361877203E-07;100 nA
-0,950927734375;77,8779588033771;-1,5216064453125E-08;-0,94970703125;2;139;2,33581766486168E-07;-2,30163361877203E-07;100 nA
-1,0009765625;78,3784468021134;-1,55975341796875E-08;-0,99853515625;2;140;2,33581766486168E-07;-2,30163361877203E-07;100 nA
-0,950927734375;78,8789348008498;-9,5123291015625E-09;-0,94879150390625;2;141;2,33581766486168E-07;-2,30163361877203E-07;100 nA
-0,90087890625;79,3794227995862;-5,8380126953125E-09;-0,8984375;2;142;2,33581766486168E-07;-2,30163361877203E-07;100 nA
-0,850830078125;79,8799107983226;-3,2623291015625E-09;-0,84869384765625;2;143;2,33581766486168E-07;-2,30163361877203E-07;100 nA
-0,80078125;80,380398797059;-1,31011962890625E-09;-0,79864501953125;2;144;2,33581766486168E-07;-2,30163361877203E-07;100 nA
-0,750732421875;80,8808867957954;2,545166015625E-10;-0,748626708984375;2;145;2,33581766486168E-07;-2,30163361877203E-07;100 nA
-0,70068359375;81,3813747945318;1,62994384765625E-09;-0,69854736328125;2;146;2,33581766486168E-07;-2,30163361877203E-07;100 nA
-0,650634765625;81,8818627932682;2,96630859375E-09;-0,648590087890625;2;147;2,33581766486168E-07;-2,30163361877203E-07;100 nA
-0,6005859375;82,3823507920046;4,2205810546875E-09;-0,59869384765625;2;148;2,33581766486168E-07;-2,30163361877203E-07;100 nA
-0,550537109375;82,8828387907409;5,194091796875E-09;-0,548797607421875;2;149;2,33581766486168E-07;-2,30163361877203E-07;100 nA
-0,50048828125;83,3833267894773;6,0028076171875E-09;-0,49884033203125;2;150;2,33581766486168E-07;-2,30163361877203E-07;100 nA
-0,450439453125;83,8838147882137;6,756591796875E-09;-0,448974609375;2;151;2,33581766486168E-07;-2,30163361877203E-07;100 nA
-0,400390625;84,3843027869501;7,4920654296875E-09;-0,3990478515625;2;152;2,33581766486168E-07;-2,30163361877203E-07;100 nA
-0,350341796875;84,8847907856865;8,26416015625E-09;-0,349212646484375;2;153;2,33581766486168E-07;-2,30163361877203E-07;100 nA
-0,30029296875;85,3852787844229;9,173583984375E-09;-0,29931640625;2;154;2,33581766486168E-07;-2,30163361877203E-07;100 nA
-0,250244140625;85,8857667831593;1,03302001953125E-08;-0,249359130859375;2;155;2,33581766486168E-07;-2,30163361877203E-07;100 nA
-0,2001953125;86,3862547818957;1,1737060546875E-08;-0,199432373046875;2;156;2,33581766486168E-07;-2,30163361877203E-07;100 nA
-0,150146484375;86,8867427806321;1,32781982421875E-08;-0,149566650390625;2;157;2,33581766486168E-07;-2,30163361877203E-07;100 nA
-0,10009765625;87,3872307793685;1,48406982421875E-08;-0,099700927734375;2;158;2,33581766486168E-07;-2,30163361877203E-07;100 nA
-0,050048828125;87,8877187781048;1,64764404296875E-08;-0,04974365234375;2;159;2,33581766486168E-07;-2,30163361877203E-07;100 nA
0;88,3882067768412;1,80694580078125E-08;0,000128173828124994;2;160;2,33581766486168E-07;-2,30163361877203E-07;100 nA
0,050048828125;88,8886947755776;1,990966796875E-08;0,050048828125;3;161;2,35081184655428E-07;-2,29307271540165E-07;100 nA
0,10009765625;89,389182774314;2,0831298828125E-08;0,10003662109375;3;162;2,35081184655428E-07;-2,29307271540165E-07;100 nA
0,150146484375;89,8896707730504;1,84234619140625E-08;0,1500244140625;3;163;2,35081184655428E-07;-2,29307271540165E-07;100 nA
0,2001953125;90,3901587717868;1,79046630859375E-08;0,2000732421875;3;164;2,35081184655428E-07;-2,29307271540165E-07;100 nA
0,250244140625;90,8906467705232;1,78802490234375E-08;0,250030517578125;3;165;2,35081184655428E-07;-2,29307271540165E-07;100 nA
0,30029296875;91,3911347692596;1,78436279296875E-08;0,300018310546875;3;166;2,35081184655428E-07;-2,29307271540165E-07;100 nA
0,350341796875;91,891622767996;1,75689697265625E-08;0,350067138671875;3;167;2,35081184655428E-07;-2,29307271540165E-07;100 nA
0,400390625;92,3921107667323;1,6845703125E-08;0,40008544921875;3;168;2,35081184655428E-07;-2,29307271540165E-07;100 nA
0,450439453125;92,8925987654687;1,57440185546875E-08;0,45001220703125;3;169;2,35081184655428E-07;-2,29307271540165E-07;100 nA
0,50048828125;93,3930867642051;1,46697998046875E-08;0,50006103515625;3;170;2,35081184655428E-07;-2,29307271540165E-07;100 nA
0,550537109375;93,8935747629415;1,39068603515625E-08;0,550048828125;3;171;2,35081184655428E-07;-2,29307271540165E-07;100 nA
0,6005859375;94,3940627616779;1,34490966796875E-08;0,60003662109375;3;172;2,35081184655428E-07;-2,29307271540165E-07;100 nA
0,650634765625;94,8945507604143;1,32049560546875E-08;0,650054931640625;3;173;2,35081184655428E-07;-2,29307271540165E-07;100 nA
0,70068359375;95,3950387591507;1,307373046875E-08;0,69989013671875;3;174;2,35081184655428E-07;-2,29307271540165E-07;100 nA
0,750732421875;95,8955267578871;1,300048828125E-08;0,749786376953125;3;175;2,35081184655428E-07;-2,29307271540165E-07;100 nA
0,80078125;96,3960147566235;1,2945556640625E-08;0,8001708984375;3;176;2,35081184655428E-07;-2,29307271540165E-07;100 nA
0,850830078125;96,8965027553598;1,292724609375E-08;0,8489990234375;3;177;2,35081184655428E-07;-2,29307271540165E-07;100 nA
0,90087890625;97,3969907540962;1,29547119140625E-08;0,899658203125;3;178;2,35081184655428E-07;-2,29307271540165E-07;100 nA
0,950927734375;97,8974787528326;1,30645751953125E-08;0,9490966796875;3;179;2,35081184655428E-07;-2,29307271540165E-07;100 nA
1,0009765625;98,397966751569;1,32598876953125E-08;0,99945068359375;3;180;2,35081184655428E-07;-2,29307271540165E-07;100 nA
0,950927734375;98,8984547503054;8,642578125E-09;0,94940185546875;3;181;2,35081184655428E-07;-2,29307271540165E-07;100 nA
0,90087890625;99,3989427490418;5,9356689453125E-09;0,899658203125;3;182;2,35081184655428E-07;-2,29307271540165E-07;100 nA
0,850830078125;99,8994307477782;4,107666015625E-09;0,8502197265625;3;183;2,35081184655428E-07;-2,29307271540165E-07;100 nA
0,80078125;100,399918746515;2,72216796875E-09;0,8001708984375;3;184;2,35081184655428E-07;-2,29307271540165E-07;100 nA
0,750732421875;100,900406745251;1,61041259765625E-09;0,749786376953125;3;185;2,35081184655428E-07;-2,29307271540165E-07;100 nA
0,70068359375;101,400894743987;6,24694824218749E-10;0,700042724609375;3;186;2,35081184655428E-07;-2,29307271540165E-07;100 nA
0,650634765625;101,901382742724;-2,8076171875E-10;0,650146484375;3;187;2,35081184655428E-07;-2,29307271540165E-07;100 nA
0,6005859375;102,40187074146;-1,1669921875E-09;0,600189208984375;3;188;2,35081184655428E-07;-2,29307271540165E-07;100 nA
0,550537109375;102,902358740197;-2,03460693359375E-09;0,550140380859375;3;189;2,35081184655428E-07;-2,29307271540165E-07;100 nA
0,50048828125;103,402846738933;-2,886962890625E-09;0,500152587890625;3;190;2,35081184655428E-07;-2,29307271540165E-07;100 nA
0,450439453125;103,903334737669;-3,7384033203125E-09;0,4500732421875;3;191;2,35081184655428E-07;-2,29307271540165E-07;100 nA
0,400390625;104,403822736406;-4,57763671875E-09;0,400146484375;3;192;2,35081184655428E-07;-2,29307271540165E-07;100 nA
0,350341796875;104,904310735142;-5,4290771484375E-09;0,350128173828125;3;193;2,35081184655428E-07;-2,29307271540165E-07;100 nA
0,30029296875;105,404798733878;-6,33544921875E-09;0,300048828125;3;194;2,35081184655428E-07;-2,29307271540165E-07;100 nA
0,250244140625;105,905286732615;-7,28759765625E-09;0,2501220703125;3;195;2,35081184655428E-07;-2,29307271540165E-07;100 nA
0,2001953125;106,405774731351;-8,4259033203125E-09;0,200042724609375;3;196;2,35081184655428E-07;-2,29307271540165E-07;100 nA
0,150146484375;106,906262730088;-1,01287841796875E-08;0,15008544921875;3;197;2,35081184655428E-07;-2,29307271540165E-07;100 nA
0,10009765625;107,406750728824;-1,317138671875E-08;0,100128173828125;3;198;2,35081184655428E-07;-2,29307271540165E-07;100 nA
0,050048828125;107,90723872756;-1,59515380859375E-08;0,050140380859375;3;199;2,35081184655428E-07;-2,29307271540165E-07;100 nA
0;108,407726726297;-1,663818359375E-08;0,000128173828124994;3;200;2,35081184655428E-07;-2,29307271540165E-07;100 nA
-0,050048828125;108,908214725033;-1,6607666015625E-08;-0,0498046875;3;201;2,35081184655428E-07;-2,29307271540165E-07;100 nA
-0,10009765625;109,40870272377;-1,70196533203125E-08;-0,09967041015625;3;202;2,35081184655428E-07;-2,29307271540165E-07;100 nA
-0,150146484375;109,909190722506;-1,7633056640625E-08;-0,149566650390625;3;203;2,35081184655428E-07;-2,29307271540165E-07;100 nA
-0,2001953125;110,409678721242;-1,8280029296875E-08;-0,199432373046875;3;204;2,35081184655428E-07;-2,29307271540165E-07;100 nA
-0,250244140625;110,910166719979;-1,89910888671875E-08;-0,249298095703125;3;205;2,35081184655428E-07;-2,29307271540165E-07;100 nA
-0,30029296875;111,410654718715;-1,99615478515625E-08;-0,299224853515625;3;206;2,35081184655428E-07;-2,29307271540165E-07;100 nA
-0,350341796875;111,911142717452;-2,09991455078125E-08;-0,349151611328125;3;207;2,35081184655428E-07;-2,29307271540165E-07;100 nA
-0,400390625;112,411630716188;-2,11334228515625E-08;-0,3990478515625;3;208;2,35081184655428E-07;-2,29307271540165E-07;100 nA
-0,450439453125;112,912118714924;-1,9244384765625E-08;-0,448883056640625;3;209;2,35081184655428E-07;-2,29307271540165E-07;100 nA
-0,50048828125;113,412606713661;-1,6217041015625E-08;-0,498809814453125;3;210;2,35081184655428E-07;-2,29307271540165E-07;100 nA
-0,550537109375;113,913094712397;-1,61895751953125E-08;-0,548736572265625;3;211;2,35081184655428E-07;-2,29307271540165E-07;100 nA
-0,6005859375;114,413582711133;-1,6259765625E-08;-0,598541259765625;3;212;2,35081184655428E-07;-2,29307271540165E-07;100 nA
-0,650634765625;114,91407070987;-1,60064697265625E-08;-0,6485595703125;3;213;2,35081184655428E-07;-2,29307271540165E-07;100 nA
-0,70068359375;115,414558708606;-1,55975341796875E-08;-0,69854736328125;3;214;2,35081184655428E-07;-2,29307271540165E-07;100 nA
-0,750732421875;115,915046707343;-1,52130126953125E-08;-0,74853515625;3;215;2,35081184655428E-07;-2,29307271540165E-07;100 nA
-0,80078125;116,415534706079;-1,49810791015625E-08;-0,79864501953125;3;216;2,35081184655428E-07;-2,29307271540165E-07;100 nA
-0,850830078125;116,916022704815;-1,48712158203125E-08;-0,8489990234375;3;217;2,35081184655428E-07;-2,29307271540165E-07;100 nA
-0,90087890625;117,416510703552;-1,4892578125E-08;-0,8990478515625;3;218;2,35081184655428E-07;-2,29307271540165E-07;100 nA
-0,950927734375;117,916998702288;-1,50634765625E-08;-0,948486328125;3;219;2,35081184655428E-07;-2,29307271540165E-07;100 nA
-1,0009765625;118,417486701025;-1,5423583984375E-08;-0,99884033203125;3;220;2,35081184655428E-07;-2,29307271540165E-07;100 nA
-0,950927734375;118,917974699761;-9,3841552734375E-09;-0,94879150390625;3;221;2,35081184655428E-07;-2,29307271540165E-07;100 nA
-0,90087890625;119,418462698497;-5,7342529296875E-09;-0,89874267578125;3;222;2,35081184655428E-07;-2,29307271540165E-07;100 nA
-0,850830078125;119,918950697234;-3,173828125E-09;-0,84869384765625;3;223;2,35081184655428E-07;-2,29307271540165E-07;100 nA
-0,80078125;120,41943869597;-1,23626708984375E-09;-0,79864501953125;3;224;2,35081184655428E-07;-2,29307271540165E-07;100 nA
-0,750732421875;120,919926694707;3,2196044921875E-10;-0,74859619140625;3;225;2,35081184655428E-07;-2,29307271540165E-07;100 nA
-0,70068359375;121,420414693443;1,67724609375E-09;-0,6986083984375;3;226;2,35081184655428E-07;-2,29307271540165E-07;100 nA
-0,650634765625;121,920902692179;2,9998779296875E-09;-0,648590087890625;3;227;2,35081184655428E-07;-2,29307271540165E-07;100 nA
-0,6005859375;122,421390690916;4,2572021484375E-09;-0,598663330078125;3;228;2,35081184655428E-07;-2,29307271540165E-07;100 nA
-0,550537109375;122,921878689652;5,2276611328125E-09;-0,54876708984375;3;229;2,35081184655428E-07;-2,29307271540165E-07;100 nA
-0,50048828125;123,422366688388;6,0333251953125E-09;-0,49884033203125;3;230;2,35081184655428E-07;-2,29307271540165E-07;100 nA
-0,450439453125;123,922854687125;6,7779541015625E-09;-0,448974609375;3;231;2,35081184655428E-07;-2,29307271540165E-07;100 nA
-0,400390625;124,423342685861;7,513427734375E-09;-0,399078369140625;3;232;2,35081184655428E-07;-2,29307271540165E-07;100 nA
-0,350341796875;124,923830684598;8,2794189453125E-09;-0,349151611328125;3;233;2,35081184655428E-07;-2,29307271540165E-07;100 nA
-0,30029296875;125,424318683334;9,1766357421875E-09;-0,299224853515625;3;234;2,35081184655428E-07;-2,29307271540165E-07;100 nA
-0,250244140625;125,92480668207;1,02630615234375E-08;-0,2493896484375;3;235;2,35081184655428E-07;-2,29307271540165E-07;100 nA
-0,2001953125;126,425294680807;1,17095947265625E-08;-0,199432373046875;3;236;2,35081184655428E-07;-2,29307271540165E-07;100 nA
-0,150146484375;126,925782679543;1,3238525390625E-08;-0,149566650390625;3;237;2,35081184655428E-07;-2,29307271540165E-07;100 nA
-0,10009765625;127,42627067828;1,4794921875E-08;-0,0997314453125;3;238;2,35081184655428E-07;-2,29307271540165E-07;100 nA
-0,050048828125;127,926758677016;1,6363525390625E-08;-0,049835205078125;3;239;2,35081184655428E-07;-2,29307271540165E-07;100 nA
0;128,427246675752;1,8017578125E-08;0,000103759765625003;3;240;2,35081184655428E-07;-2,29307271540165E-07;100 nA
0,050048828125;128,927734674489;1,98883056640625E-08;0,050079345703125;4;241;2,35155873000622E-07;-2,28727787733078E-07;100 nA
0,10009765625;129,428222673225;2,07916259765625E-08;0,10003662109375;4;242;2,35155873000622E-07;-2,28727787733078E-07;100 nA
0,150146484375;129,928710671962;1,83563232421875E-08;0,149993896484375;4;243;2,35155873000622E-07;-2,28727787733078E-07;100 nA
0,2001953125;130,429198670698;1,7864990234375E-08;0,2000732421875;4;244;2,35155873000622E-07;-2,28727787733078E-07;100 nA
0,250244140625;130,929686669434;1,7864990234375E-08;0,25006103515625;4;245;2,35155873000622E-07;-2,28727787733078E-07;100 nA
0,30029296875;131,430174668171;1,7840576171875E-08;0,300048828125;4;246;2,35155873000622E-07;-2,28727787733078E-07;100 nA
0,350341796875;131,930662666907;1,7572021484375E-08;0,350067138671875;4;247;2,35155873000622E-07;-2,28727787733078E-07;100 nA
0,400390625;132,431150665643;1,6845703125E-08;0,400054931640625;4;248;2,35155873000622E-07;-2,28727787733078E-07;100 nA
0,450439453125;132,93163866438;1,5753173828125E-08;0,4500732421875;4;249;2,35155873000622E-07;-2,28727787733078E-07;100 nA
0,50048828125;133,432126663116;1,47003173828125E-08;0,500091552734375;4;250;2,35155873000622E-07;-2,28727787733078E-07;100 nA
0,550537109375;133,932614661853;1,39495849609375E-08;0,550079345703125;4;251;2,35155873000622E-07;-2,28727787733078E-07;100 nA
0,6005859375;134,433102660589;1,34979248046875E-08;0,60009765625;4;252;2,35155873000622E-07;-2,28727787733078E-07;100 nA
0,650634765625;134,933590659325;1,32537841796875E-08;0,650054931640625;4;253;2,35155873000622E-07;-2,28727787733078E-07;100 nA
0,70068359375;135,434078658062;1,31256103515625E-08;0,69989013671875;4;254;2,35155873000622E-07;-2,28727787733078E-07;100 nA
0,750732421875;135,934566656798;1,30462646484375E-08;0,749847412109375;4;255;2,35155873000622E-07;-2,28727787733078E-07;100 nA
0,80078125;136,435054655535;1,29791259765625E-08;0,79986572265625;4;256;2,35155873000622E-07;-2,28727787733078E-07;100 nA
0,850830078125;136,935542654271;1,29547119140625E-08;0,84991455078125;4;257;2,35155873000622E-07;-2,28727787733078E-07;100 nA
0,90087890625;137,436030653007;1,29669189453125E-08;0,8990478515625;4;258;2,35155873000622E-07;-2,28727787733078E-07;100 nA
0,950927734375;137,936518651744;1,30615234375E-08;0,94970703125;4;259;2,35155873000622E-07;-2,28727787733078E-07;100 nA
1,0009765625;138,43700665048;1,32568359375E-08;0,999755859375;4;260;2,35155873000622E-07;-2,28727787733078E-07;100 nA
0,950927734375;138,937494649217;8,6517333984375E-09;0,94970703125;4;261;2,35155873000622E-07;-2,28727787733078E-07;100 nA
0,90087890625;139,437982647953;5,95703125E-09;0,899658203125;4;262;2,35155873000622E-07;-2,28727787733078E-07;100 nA
0,850830078125;139,938470646689;4,1778564453125E-09;0,8502197265625;4;263;2,35155873000622E-07;-2,28727787733078E-07;100 nA
0,80078125;140,438958645426;2,7435302734375E-09;0,799560546875;4;264;2,35155873000622E-07;-2,28727787733078E-07;100 nA
0,750732421875;140,939446644162;1,6253662109375E-09;0,74981689453125;4;265;2,35155873000622E-07;-2,28727787733078E-07;100 nA
0,70068359375;141,439934642898;6,427001953125E-10;0,70001220703125;4;266;2,35155873000622E-07;-2,28727787733078E-07;100 nA
0,650634765625;141,940422641635;-2,72521972656251E-10;0,65008544921875;4;267;2,35155873000622E-07;-2,28727787733078E-07;100 nA
0,6005859375;142,440910640371;-1,15875244140625E-09;0,600189208984375;4;268;2,35155873000622E-07;-2,28727787733078E-07;100 nA
0,550537109375;142,941398639108;-2,02362060546875E-09;0,5501708984375;4;269;2,35155873000622E-07;-2,28727787733078E-07;100 nA
0,50048828125;143,441886637844;-2,8717041015625E-09;0,500213623046875;4;270;2,35155873000622E-07;-2,28727787733078E-07;100 nA
0,450439453125;143,94237463658;-3,729248046875E-09;0,450103759765625;4;271;2,35155873000622E-07;-2,28727787733078E-07;100 nA
0,400390625;144,442862635317;-4,57763671875E-09;0,400115966796875;4;272;2,35155873000622E-07;-2,28727787733078E-07;100 nA
0,350341796875;144,943350634053;-5,4351806640625E-09;0,35015869140625;4;273;2,35155873000622E-07;-2,28727787733078E-07;100 nA
0,30029296875;145,44383863279;-6,3262939453125E-09;0,30010986328125;4;274;2,35155873000622E-07;-2,28727787733078E-07;100 nA
0,250244140625;145,944326631526;-7,2845458984375E-09;0,250091552734375;4;275;2,35155873000622E-07;-2,28727787733078E-07;100 nA
0,2001953125;146,444814630262;-8,41064453125E-09;0,2000732421875;4;276;2,35155873000622E-07;-2,28727787733078E-07;100 nA
0,150146484375;146,945302628999;-1,007080078125E-08;0,15008544921875;4;277;2,35155873000622E-07;-2,28727787733078E-07;100 nA
0,10009765625;147,445790627735;-1,30615234375E-08;0,10003662109375;4;278;2,35155873000622E-07;-2,28727787733078E-07;100 nA
0,050048828125;147,946278626472;-1,5936279296875E-08;0,05010986328125;4;279;2,35155873000622E-07;-2,28727787733078E-07;100 nA
0;148,446766625208;-1,6729736328125E-08;0,000115966796875006;4;280;2,35155873000622E-07;-2,28727787733078E-07;100 nA
-0,050048828125;148,947254623944;-1,66839599609375E-08;-0,049774169921875;4;281;2,35155873000622E-07;-2,28727787733078E-07;100 nA
-0,10009765625;149,447742622681;-1,70867919921875E-08;-0,09967041015625;4;282;2,35155873000622E-07;-2,28727787733078E-07;100 nA
-0,150146484375;149,948230621417;-1,76910400390625E-08;-0,149566650390625;4;283;2,35155873000622E-07;-2,28727787733078E-07;100 nA
-0,2001953125;150,448718620154;-1,83319091796875E-08;-0,19940185546875;4;284;2,35155873000622E-07;-2,28727787733078E-07;100 nA
-0,250244140625;150,94920661889;-1,9049072265625E-08;-0,249267578125;4;285;2,35155873000622E-07;-2,28727787733078E-07;100 nA
-0,30029296875;151,449694617626;-2,00225830078125E-08;-0,2991943359375;4;286;2,35155873000622E-07;-2,28727787733078E-07;100 nA
-0,350341796875;151,950182616363;-2,099609375E-08;-0,349212646484375;4;287;2,35155873000622E-07;-2,28727787733078E-07;100 nA
-0,400390625;152,450670615099;-2,099609375E-08;-0,399078369140625;4;288;2,35155873000622E-07;-2,28727787733078E-07;100 nA
-0,450439453125;152,951158613835;-1,8914794921875E-08;-0,448883056640625;4;289;2,35155873000622E-07;-2,28727787733078E-07;100 nA
-0,50048828125;153,451646612572;-1,6119384765625E-08;-0,498809814453125;4;290;2,35155873000622E-07;-2,28727787733078E-07;100 nA
-0,550537109375;153,952134611308;-1,61529541015625E-08;-0,548736572265625;4;291;2,35155873000622E-07;-2,28727787733078E-07;100 nA
-0,6005859375;154,452622610045;-1,62017822265625E-08;-0,5986328125;4;292;2,35155873000622E-07;-2,28727787733078E-07;100 nA
-0,650634765625;154,953110608781;-1,59454345703125E-08;-0,648590087890625;4;293;2,35155873000622E-07;-2,28727787733078E-07;100 nA
-0,70068359375;155,453598607517;-1,55853271484375E-08;-0,698516845703125;4;294;2,35155873000622E-07;-2,28727787733078E-07;100 nA
-0,750732421875;155,954086606254;-1,51519775390625E-08;-0,748565673828125;4;295;2,35155873000622E-07;-2,28727787733078E-07;100 nA
-0,80078125;156,45457460499;-1,4910888671875E-08;-0,79833984375;4;296;2,35155873000622E-07;-2,28727787733078E-07;100 nA
-0,850830078125;156,955062603727;-1,48040771484375E-08;-0,84869384765625;4;297;2,35155873000622E-07;-2,28727787733078E-07;100 nA
-0,90087890625;157,455550602463;-1,4813232421875E-08;-0,8984375;4;298;2,35155873000622E-07;-2,28727787733078E-07;100 nA
-0,950927734375;157,956038601199;-1,4984130859375E-08;-0,94879150390625;4;299;2,35155873000622E-07;-2,28727787733078E-07;100 nA
-1,0009765625;158,456526599936;-1,534423828125E-08;-0,9991455078125;4;300;2,35155873000622E-07;-2,28727787733078E-07;100 nA
-0,950927734375;158,957014598672;-9,3170166015625E-09;-0,948486328125;4;301;2,35155873000622E-07;-2,28727787733078E-07;100 nA
-0,90087890625;159,457502597409;-5,6854248046875E-09;-0,89874267578125;4;302;2,35155873000622E-07;-2,28727787733078E-07;100 nA
-0,850830078125;159,957990596145;-3,131103515625E-09;-0,84930419921875;4;303;2,35155873000622E-07;-2,28727787733078E-07;100 nA
-0,80078125;160,458478594881;-1,20147705078125E-09;-0,7989501953125;4;304;2,35155873000622E-07;-2,28727787733078E-07;100 nA
-0,750732421875;160,958966593618;3,50341796875001E-10;-0,748565673828125;4;305;2,35155873000622E-07;-2,28727787733078E-07;100 nA
-0,70068359375;161,459454592354;1,697998046875E-09;-0,698577880859375;4;306;2,35155873000622E-07;-2,28727787733078E-07;100 nA
-0,650634765625;161,95994259109;3,0120849609375E-09;-0,648590087890625;4;307;2,35155873000622E-07;-2,28727787733078E-07;100 nA
-0,6005859375;162,460430589827;4,2633056640625E-09;-0,598663330078125;4;308;2,35155873000622E-07;-2,28727787733078E-07;100 nA
-0,550537109375;162,960918588563;5,2398681640625E-09;-0,54876708984375;4;309;2,35155873000622E-07;-2,28727787733078E-07;100 nA
-0,50048828125;163,4614065873;6,0394287109375E-09;-0,498809814453125;4;310;2,35155873000622E-07;-2,28727787733078E-07;100 nA
-0,450439453125;163,961894586036;6,7840576171875E-09;-0,448944091796875;4;311;2,35155873000622E-07;-2,28727787733078E-07;100 nA
-0,400390625;164,462382584772;7,5164794921875E-09;-0,399078369140625;4;312;2,35155873000622E-07;-2,28727787733078E-07;100 nA
-0,350341796875;164,962870583509;8,282470703125E-09;-0,349212646484375;4;313;2,35155873000622E-07;-2,28727787733078E-07;100 nA
-0,30029296875;165,463358582245;9,161376953125E-09;-0,299224853515625;4;314;2,35155873000622E-07;-2,28727787733078E-07;100 nA
-0,250244140625;165,963846580982;1,02874755859375E-08;-0,249420166015625;4;315;2,35155873000622E-07;-2,28727787733078E-07;100 nA
-0,2001953125;166,464334579718;1,1663818359375E-08;-0,199493408203125;4;316;2,35155873000622E-07;-2,28727787733078E-07;100 nA
-0,150146484375;166,964822578454;1,318359375E-08;-0,14959716796875;4;317;2,35155873000622E-07;-2,28727787733078E-07;100 nA
-0,10009765625;167,465310577191;1,47369384765625E-08;-0,09967041015625;4;318;2,35155873000622E-07;-2,28727787733078E-07;100 nA
-0,050048828125;167,965798575927;1,6302490234375E-08;-0,049774169921875;4;319;2,35155873000622E-07;-2,28727787733078E-07;100 nA
0;168,466286574664;1,7962646484375E-08;0,000119018554687503;4;320;2,35155873000622E-07;-2,28727787733078E-07;100 nA
0,050048828125;168,9667745734;1,9854736328125E-08;0,050048828125;5;321;2,34977170825005E-07;-2,28111799806356E-07;100 nA
0,10009765625;169,467262572136;2,08038330078125E-08;0,100006103515625;5;322;2,34977170825005E-07;-2,28111799806356E-07;100 nA
0,150146484375;169,967750570873;1,829833984375E-08;0,150054931640625;5;323;2,34977170825005E-07;-2,28111799806356E-07;100 nA
0,2001953125;170,468238569609;1,78314208984375E-08;0,200042724609375;5;324;2,34977170825005E-07;-2,28111799806356E-07;100 nA
0,250244140625;170,968726568345;1,78436279296875E-08;0,250091552734375;5;325;2,34977170825005E-07;-2,28111799806356E-07;100 nA
0,30029296875;171,469214567082;1,7822265625E-08;0,300018310546875;5;326;2,34977170825005E-07;-2,28111799806356E-07;100 nA
0,350341796875;171,969702565818;1,75384521484375E-08;0,350067138671875;5;327;2,34977170825005E-07;-2,28111799806356E-07;100 nA
0,400390625;172,470190564555;1,67999267578125E-08;0,400115966796875;5;328;2,34977170825005E-07;-2,28111799806356E-07;100 nA
0,450439453125;172,970678563291;1,57135009765625E-08;0,449981689453125;5;329;2,34977170825005E-07;-2,28111799806356E-07;100 nA
0,50048828125;173,471166562027;1,46820068359375E-08;0,50006103515625;5;330;2,34977170825005E-07;-2,28111799806356E-07;100 nA
0,550537109375;173,971654560764;1,39434814453125E-08;0,55010986328125;5;331;2,34977170825005E-07;-2,28111799806356E-07;100 nA
0,6005859375;174,4721425595;1,35040283203125E-08;0,600128173828125;5;332;2,34977170825005E-07;-2,28111799806356E-07;100 nA
0,650634765625;174,972630558237;1,326904296875E-08;0,650054931640625;5;333;2,34977170825005E-07;-2,28111799806356E-07;100 nA
0,70068359375;175,473118556973;1,3140869140625E-08;0,69989013671875;5;334;2,34977170825005E-07;-2,28111799806356E-07;100 nA
0,750732421875;175,973606555709;1,30584716796875E-08;0,7498779296875;5;335;2,34977170825005E-07;-2,28111799806356E-07;100 nA
0,80078125;176,474094554446;1,29974365234375E-08;0,79986572265625;5;336;2,34977170825005E-07;-2,28111799806356E-07;100 nA
0,850830078125;176,974582553182;1,29669189453125E-08;0,849609375;5;337;2,34977170825005E-07;-2,28111799806356E-07;100 nA
0,90087890625;177,475070551919;1,29852294921875E-08;0,899658203125;5;338;2,34977170825005E-07;-2,28111799806356E-07;100 nA
0,950927734375;177,975558550655;1,30645751953125E-08;0,95001220703125;5;339;2,34977170825005E-07;-2,28111799806356E-07;100 nA
1,0009765625;178,476046549391;1,32568359375E-08;0,99945068359375;5;340;2,34977170825005E-07;-2,28111799806356E-07;100 nA
0,950927734375;178,976534548128;8,6578369140625E-09;0,94970703125;5;341;2,34977170825005E-07;-2,28111799806356E-07;100 nA
0,90087890625;179,477022546864;5,95703125E-09;0,89935302734375;5;342;2,34977170825005E-07;-2,28111799806356E-07;100 nA
0,850830078125;179,9775105456;4,1290283203125E-09;0,849609375;5;343;2,34977170825005E-07;-2,28111799806356E-07;100 nA
0,80078125;180,477998544337;2,7496337890625E-09;0,799560546875;5;344;2,34977170825005E-07;-2,28111799806356E-07;100 nA
0,750732421875;180,978486543073;1,6357421875E-09;0,749908447265625;5;345;2,34977170825005E-07;-2,28111799806356E-07;100 nA
0,70068359375;181,47897454181;6,4727783203125E-10;0,7000732421875;5;346;2,34977170825005E-07;-2,28111799806356E-07;100 nA
0,650634765625;181,979462540546;-2,64587402343749E-10;0,650146484375;5;347;2,34977170825005E-07;-2,28111799806356E-07;100 nA
0,6005859375;182,479950539282;-1,1468505859375E-09;0,600189208984375;5;348;2,34977170825005E-07;-2,28111799806356E-07;100 nA
0,550537109375;182,980438538019;-2,01446533203125E-09;0,55010986328125;5;349;2,34977170825005E-07;-2,28111799806356E-07;100 nA
0,50048828125;183,480926536755;-2,8656005859375E-09;0,500152587890625;5;350;2,34977170825005E-07;-2,28111799806356E-07;100 nA
0,450439453125;183,981414535492;-3,72314453125E-09;0,450103759765625;5;351;2,34977170825005E-07;-2,28111799806356E-07;100 nA
0,400390625;184,481902534228;-4,571533203125E-09;0,400115966796875;5;352;2,34977170825005E-07;-2,28111799806356E-07;100 nA
0,350341796875;184,982390532964;-5,48095703125E-09;0,350067138671875;5;353;2,34977170825005E-07;-2,28111799806356E-07;100 nA
0,30029296875;185,482878531701;-6,3140869140625E-09;0,300140380859375;5;354;2,34977170825005E-07;-2,28111799806356E-07;100 nA
0,250244140625;185,983366530437;-7,2723388671875E-09;0,25006103515625;5;355;2,34977170825005E-07;-2,28111799806356E-07;100 nA
0,2001953125;186,483854529174;-8,3892822265625E-09;0,2000732421875;5;356;2,34977170825005E-07;-2,28111799806356E-07;100 nA
0,150146484375;186,98434252791;-1,002197265625E-08;0,15008544921875;5;357;2,34977170825005E-07;-2,28111799806356E-07;100 nA
0,10009765625;187,484830526646;-1,29608154296875E-08;0,100067138671875;5;358;2,34977170825005E-07;-2,28111799806356E-07;100 nA
0,050048828125;187,985318525383;-1,5911865234375E-08;0,05010986328125;5;359;2,34977170825005E-07;-2,28111799806356E-07;100 nA
0;188,485806524119;-1,67999267578125E-08;0,000125122070312497;5;360;2,34977170825005E-07;-2,28111799806356E-07;100 nA
-0,050048828125;188,986294522855;-1,67388916015625E-08;-0,0498046875;5;361;2,34977170825005E-07;-2,28111799806356E-07;100 nA
-0,10009765625;189,486782521592;-1,71234130859375E-08;-0,09967041015625;5;362;2,34977170825005E-07;-2,28111799806356E-07;100 nA
-0,150146484375;189,987270520328;-1,77276611328125E-08;-0,1495361328125;5;363;2,34977170825005E-07;-2,28111799806356E-07;100 nA
-0,2001953125;190,487758519065;-1,83685302734375E-08;-0,19940185546875;5;364;2,34977170825005E-07;-2,28111799806356E-07;100 nA
-0,250244140625;190,988246517801;-1,90887451171875E-08;-0,249298095703125;5;365;2,34977170825005E-07;-2,28111799806356E-07;100 nA
-0,30029296875;191,488734516537;-2,0062255859375E-08;-0,2991943359375;5;366;2,34977170825005E-07;-2,28111799806356E-07;100 nA
-0,350341796875;191,989222515274;-2,09686279296875E-08;-0,349151611328125;5;367;2,34977170825005E-07;-2,28111799806356E-07;100 nA
-0,400390625;192,48971051401;-2,0855712890625E-08;-0,3990478515625;5;368;2,34977170825005E-07;-2,28111799806356E-07;100 nA
-0,450439453125;192,990198512747;-1,86248779296875E-08;-0,448944091796875;5;369;2,34977170825005E-07;-2,28111799806356E-07;100 nA
-0,50048828125;193,490686511483;-1,6033935546875E-08;-0,498809814453125;5;370;2,34977170825005E-07;-2,28111799806356E-07;100 nA
-0,550537109375;193,991174510219;-1,61041259765625E-08;-0,54876708984375;5;371;2,34977170825005E-07;-2,28111799806356E-07;100 nA
-0,6005859375;194,491662508956;-1,6143798828125E-08;-0,598663330078125;5;372;2,34977170825005E-07;-2,28111799806356E-07;100 nA
-0,650634765625;194,992150507692;-1,58843994140625E-08;-0,648590087890625;5;373;2,34977170825005E-07;-2,28111799806356E-07;100 nA
-0,70068359375;195,492638506429;-1,5478515625E-08;-0,69854736328125;5;374;2,34977170825005E-07;-2,28111799806356E-07;100 nA
-0,750732421875;195,993126505165;-1,51031494140625E-08;-0,748565673828125;5;375;2,34977170825005E-07;-2,28111799806356E-07;100 nA
-0,80078125;196,493614503901;-1,48651123046875E-08;-0,79864501953125;5;376;2,34977170825005E-07;-2,28111799806356E-07;100 nA
-0,850830078125;196,994102502638;-1,4752197265625E-08;-0,84869384765625;5;377;2,34977170825005E-07;-2,28111799806356E-07;100 nA
-0,90087890625;197,494590501374;-1,47674560546875E-08;-0,89874267578125;5;378;2,34977170825005E-07;-2,28111799806356E-07;100 nA
-0,950927734375;197,99507850011;-1,49322509765625E-08;-0,94940185546875;5;379;2,34977170825005E-07;-2,28111799806356E-07;100 nA
-1,0009765625;198,495566498847;-1,52801513671875E-08;-0,99853515625;5;380;2,34977170825005E-07;-2,28111799806356E-07;100 nA
-0,950927734375;198,996054497583;-9,21630859375E-09;-0,94879150390625;5;381;2,34977170825005E-07;-2,28111799806356E-07;100 nA
-0,90087890625;199,49654249632;-5,65185546875E-09;-0,89874267578125;5;382;2,34977170825005E-07;-2,28111799806356E-07;100 nA
-0,850830078125;199,997030495056;-3,094482421875E-09;-0,848388671875;5;383;2,34977170825005E-07;-2,28111799806356E-07;100 nA
-0,80078125;200,497518493792;-1,17462158203125E-09;-0,79833984375;5;384;2,34977170825005E-07;-2,28111799806356E-07;100 nA
-0,750732421875;200,998006492529;3,7200927734375E-10;-0,74859619140625;5;385;2,34977170825005E-07;-2,28111799806356E-07;100 nA
-0,70068359375;201,498494491265;1,71630859375E-09;-0,698638916015625;5;386;2,34977170825005E-07;-2,28111799806356E-07;100 nA
-0,650634765625;201,998982490002;3,0242919921875E-09;-0,648590087890625;5;387;2,34977170825005E-07;-2,28111799806356E-07;100 nA
-0,6005859375;202,499470488738;4,278564453125E-09;-0,598602294921875;5;388;2,34977170825005E-07;-2,28111799806356E-07;100 nA
-0,550537109375;202,999958487474;5,2520751953125E-09;-0,54876708984375;5;389;2,34977170825005E-07;-2,28111799806356E-07;100 nA
-0,50048828125;203,500446486211;6,04248046875E-09;-0,498870849609375;5;390;2,34977170825005E-07;-2,28111799806356E-07;100 nA
-0,450439453125;204,000934484947;6,7901611328125E-09;-0,448974609375;5;391;2,34977170825005E-07;-2,28111799806356E-07;100 nA
-0,400390625;204,501422483684;7,51953125E-09;-0,399139404296875;5;392;2,34977170825005E-07;-2,28111799806356E-07;100 nA
-0,350341796875;205,00191048242;8,2855224609375E-09;-0,349212646484375;5;393;2,34977170825005E-07;-2,28111799806356E-07;100 nA
-0,30029296875;205,502398481156;9,1552734375E-09;-0,29925537109375;5;394;2,34977170825005E-07;-2,28111799806356E-07;100 nA
-0,250244140625;206,002886479893;1,026611328125E-08;-0,24932861328125;5;395;2,34977170825005E-07;-2,28111799806356E-07;100 nA
-0,2001953125;206,503374478629;1,1639404296875E-08;-0,199432373046875;5;396;2,34977170825005E-07;-2,28111799806356E-07;100 nA
-0,150146484375;207,003862477365;1,314697265625E-08;-0,149627685546875;5;397;2,34977170825005E-07;-2,28111799806356E-07;100 nA
-0,10009765625;207,504350476102;1,46942138671875E-08;-0,0997314453125;5;398;2,34977170825005E-07;-2,28111799806356E-07;100 nA
-0,050048828125;208,004838474838;1,6253662109375E-08;-0,049774169921875;5;399;2,34977170825005E-07;-2,28111799806356E-07;100 nA
0;208,505326473575;1,790771484375E-08;0,0001220703125;5;400;2,34977170825005E-07;-2,28111799806356E-07;100 nA
0,050048828125;209,005814472311;1,982421875E-08;0,050079345703125;6;401;2,34496355056763E-07;-2,27555226534605E-07;100 nA
0,10009765625;209,506302471047;2,06817626953125E-08;0,10009765625;6;402;2,34496355056763E-07;-2,27555226534605E-07;100 nA
0,150146484375;210,006790469784;1,8231201171875E-08;0,1500244140625;6;403;2,34496355056763E-07;-2,27555226534605E-07;100 nA
0,2001953125;210,50727846852;1,77764892578125E-08;0,200103759765625;6;404;2,34496355056763E-07;-2,27555226534605E-07;100 nA
0,250244140625;211,007766467257;1,78009033203125E-08;0,25006103515625;6;405;2,34496355056763E-07;-2,27555226534605E-07;100 nA
0,30029296875;211,508254465993;1,778564453125E-08;0,300048828125;6;406;2,34496355056763E-07;-2,27555226534605E-07;100 nA
0,350341796875;212,008742464729;1,75079345703125E-08;0,35003662109375;6;407;2,34496355056763E-07;-2,27555226534605E-07;100 nA
0,400390625;212,509230463466;1,67755126953125E-08;0,400146484375;6;408;2,34496355056763E-07;-2,27555226534605E-07;100 nA
0,450439453125;213,009718462202;1,56951904296875E-08;0,450042724609375;6;409;2,34496355056763E-07;-2,27555226534605E-07;100 nA
0,50048828125;213,510206460939;1,46697998046875E-08;0,500030517578125;6;410;2,34496355056763E-07;-2,27555226534605E-07;100 nA
0,550537109375;214,010694459675;1,39373779296875E-08;0,550140380859375;6;411;2,34496355056763E-07;-2,27555226534605E-07;100 nA
0,6005859375;214,511182458411;1,34490966796875E-08;0,600128173828125;6;412;2,34496355056763E-07;-2,27555226534605E-07;100 nA
0,650634765625;215,011670457148;1,326904296875E-08;0,6500244140625;6;413;2,34496355056763E-07;-2,27555226534605E-07;100 nA
0,70068359375;215,512158455884;1,314697265625E-08;0,699920654296875;6;414;2,34496355056763E-07;-2,27555226534605E-07;100 nA
0,750732421875;216,01264645462;1,30584716796875E-08;0,7498779296875;6;415;2,34496355056763E-07;-2,27555226534605E-07;100 nA
0,80078125;216,513134453357;1,29913330078125E-08;0,799560546875;6;416;2,34496355056763E-07;-2,27555226534605E-07;100 nA
0,850830078125;217,013622452093;1,29547119140625E-08;0,84991455078125;6;417;2,34496355056763E-07;-2,27555226534605E-07;100 nA
0,90087890625;217,51411045083;1,29669189453125E-08;0,899658203125;6;418;2,34496355056763E-07;-2,27555226534605E-07;100 nA
0,950927734375;218,014598449566;1,304931640625E-08;0,94940185546875;6;419;2,34496355056763E-07;-2,27555226534605E-07;100 nA
1,0009765625;218,515086448302;1,3232421875E-08;0,9991455078125;6;420;2,34496355056763E-07;-2,27555226534605E-07;100 nA
0,950927734375;219,015574447039;8,648681640625E-09;0,95001220703125;6;421;2,34496355056763E-07;-2,27555226534605E-07;100 nA
0,90087890625;219,516062445775;5,9539794921875E-09;0,899658203125;6;422;2,34496355056763E-07;-2,27555226534605E-07;100 nA
0,850830078125;220,016550444512;4,1259765625E-09;0,849609375;6;423;2,34496355056763E-07;-2,27555226534605E-07;100 nA
0,80078125;220,517038443248;2,7496337890625E-09;0,799560546875;6;424;2,34496355056763E-07;-2,27555226534605E-07;100 nA
0,750732421875;221,017526441984;1,63421630859375E-09;0,749847412109375;6;425;2,34496355056763E-07;-2,27555226534605E-07;100 nA
0,70068359375;221,518014440721;6,4849853515625E-10;0,70001220703125;6;426;2,34496355056763E-07;-2,27555226534605E-07;100 nA
0,650634765625;222,018502439457;-2,6275634765625E-10;0,65008544921875;6;427;2,34496355056763E-07;-2,27555226534605E-07;100 nA
0,6005859375;222,518990438194;-1,14959716796875E-09;0,600128173828125;6;428;2,34496355056763E-07;-2,27555226534605E-07;100 nA
0,550537109375;223,01947843693;-2,020263671875E-09;0,550201416015625;6;429;2,34496355056763E-07;-2,27555226534605E-07;100 nA
0,50048828125;223,519966435666;-2,86865234375E-09;0,500152587890625;6;430;2,34496355056763E-07;-2,27555226534605E-07;100 nA
0,450439453125;224,020454434403;-3,7200927734375E-09;0,450103759765625;6;431;2,34496355056763E-07;-2,27555226534605E-07;100 nA
0,400390625;224,520942433139;-4,57763671875E-09;0,400115966796875;6;432;2,34496355056763E-07;-2,27555226534605E-07;100 nA
0,350341796875;225,021430431876;-5,4290771484375E-09;0,350128173828125;6;433;2,34496355056763E-07;-2,27555226534605E-07;100 nA
0,30029296875;225,521918430612;-6,3201904296875E-09;0,300048828125;6;434;2,34496355056763E-07;-2,27555226534605E-07;100 nA
0,250244140625;226,022406429348;-7,2723388671875E-09;0,2501220703125;6;435;2,34496355056763E-07;-2,27555226534605E-07;100 nA
0,2001953125;226,522894428085;-8,3831787109375E-09;0,200042724609375;6;436;2,34496355056763E-07;-2,27555226534605E-07;100 nA
0,150146484375;227,023382426821;-9,99755859375E-09;0,150146484375;6;437;2,34496355056763E-07;-2,27555226534605E-07;100 nA
0,10009765625;227,523870425557;-1,28753662109375E-08;0,10015869140625;6;438;2,34496355056763E-07;-2,27555226534605E-07;100 nA
0,050048828125;228,024358424294;-1,58905029296875E-08;0,050140380859375;6;439;2,34496355056763E-07;-2,27555226534605E-07;100 nA
0;228,52484642303;-1,67938232421875E-08;0,000128173828124994;6;440;2,34496355056763E-07;-2,27555226534605E-07;100 nA
-0,050048828125;229,025334421767;-1,6778564453125E-08;-0,0498046875;6;441;2,34496355056763E-07;-2,27555226534605E-07;100 nA
-0,10009765625;229,525822420503;-1,71417236328125E-08;-0,099639892578125;6;442;2,34496355056763E-07;-2,27555226534605E-07;100 nA
-0,150146484375;230,026310419239;-1,7742919921875E-08;-0,1495361328125;6;443;2,34496355056763E-07;-2,27555226534605E-07;100 nA
-0,2001953125;230,526798417976;-1,83868408203125E-08;-0,199432373046875;6;444;2,34496355056763E-07;-2,27555226534605E-07;100 nA
-0,250244140625;231,027286416712;-1,91070556640625E-08;-0,249298095703125;6;445;2,34496355056763E-07;-2,27555226534605E-07;100 nA
-0,30029296875;231,527774415449;-2,0086669921875E-08;-0,299224853515625;6;446;2,34496355056763E-07;-2,27555226534605E-07;100 nA
-0,350341796875;232,028262414185;-2,09259033203125E-08;-0,349151611328125;6;447;2,34496355056763E-07;-2,27555226534605E-07;100 nA
-0,400390625;232,528750412921;-2,07305908203125E-08;-0,399078369140625;6;448;2,34496355056763E-07;-2,27555226534605E-07;100 nA
-0,450439453125;233,029238411658;-1,83563232421875E-08;-0,448883056640625;6;449;2,34496355056763E-07;-2,27555226534605E-07;100 nA
-0,50048828125;233,529726410394;-1,5948486328125E-08;-0,49884033203125;6;450;2,34496355056763E-07;-2,27555226534605E-07;100 nA
-0,550537109375;234,030214409131;-1,6058349609375E-08;-0,5487060546875;6;451;2,34496355056763E-07;-2,27555226534605E-07;100 nA
-0,6005859375;234,530702407867;-1,60858154296875E-08;-0,598602294921875;6;452;2,34496355056763E-07;-2,27555226534605E-07;100 nA
-0,650634765625;235,031190406603;-1,5826416015625E-08;-0,648590087890625;6;453;2,34496355056763E-07;-2,27555226534605E-07;100 nA
-0,70068359375;235,53167840534;-1,5423583984375E-08;-0,698577880859375;6;454;2,34496355056763E-07;-2,27555226534605E-07;100 nA
-0,750732421875;236,032166404076;-1,50482177734375E-08;-0,748565673828125;6;455;2,34496355056763E-07;-2,27555226534605E-07;100 nA
-0,80078125;236,532654402812;-1,48193359375E-08;-0,7989501953125;6;456;2,34496355056763E-07;-2,27555226534605E-07;100 nA
-0,850830078125;237,033142401549;-1,4715576171875E-08;-0,84869384765625;6;457;2,34496355056763E-07;-2,27555226534605E-07;100 nA
-0,90087890625;237,533630400285;-1,47216796875E-08;-0,8990478515625;6;458;2,34496355056763E-07;-2,27555226534605E-07;100 nA
-0,950927734375;238,034118399022;-1,48895263671875E-08;-0,9490966796875;6;459;2,34496355056763E-07;-2,27555226534605E-07;100 nA
-1,0009765625;238,534606397758;-1,52313232421875E-08;-0,99884033203125;6;460;2,34496355056763E-07;-2,27555226534605E-07;100 nA
-0,950927734375;239,035094396494;-9,2376708984375E-09;-0,9490966796875;6;461;2,34496355056763E-07;-2,27555226534605E-07;100 nA
-0,90087890625;239,535582395231;-5,615234375E-09;-0,8990478515625;6;462;2,34496355056763E-07;-2,27555226534605E-07;100 nA
-0,850830078125;240,036070393967;-3,0792236328125E-09;-0,84869384765625;6;463;2,34496355056763E-07;-2,27555226534605E-07;100 nA
-0,80078125;240,536558392704;-1,14837646484375E-09;-0,79833984375;6;464;2,34496355056763E-07;-2,27555226534605E-07;100 nA
-0,750732421875;241,03704639144;3,80859375000001E-10;-0,74853515625;6;465;2,34496355056763E-07;-2,27555226534605E-07;100 nA
-0,70068359375;241,537534390176;1,729736328125E-09;-0,698577880859375;6;466;2,34496355056763E-07;-2,27555226534605E-07;100 nA
-0,650634765625;242,038022388913;3,021240234375E-09;-0,648590087890625;6;467;2,34496355056763E-07;-2,27555226534605E-07;100 nA
-0,6005859375;242,538510387649;4,2724609375E-09;-0,598663330078125;6;468;2,34496355056763E-07;-2,27555226534605E-07;100 nA
-0,550537109375;243,038998386386;5,2520751953125E-09;-0,54876708984375;6;469;2,34496355056763E-07;-2,27555226534605E-07;100 nA
-0,50048828125;243,539486385122;6,048583984375E-09;-0,498809814453125;6;470;2,34496355056763E-07;-2,27555226534605E-07;100 nA
-0,450439453125;244,039974383858;6,7291259765625E-09;-0,448974609375;6;471;2,34496355056763E-07;-2,27555226534605E-07;100 nA
-0,400390625;244,540462382595;7,5164794921875E-09;-0,399078369140625;6;472;2,34496355056763E-07;-2,27555226534605E-07;100 nA
-0,350341796875;245,040950381331;8,26416015625E-09;-0,349151611328125;6;473;2,34496355056763E-07;-2,27555226534605E-07;100 nA
-0,30029296875;245,541438380067;9,1339111328125E-09;-0,299224853515625;6;474;2,34496355056763E-07;-2,27555226534605E-07;100 nA
-0,250244140625;246,041926378804;1,024169921875E-08;-0,249359130859375;6;475;2,34496355056763E-07;-2,27555226534605E-07;100 nA
-0,2001953125;246,54241437754;1,15966796875E-08;-0,199493408203125;6;476;2,34496355056763E-07;-2,27555226534605E-07;100 nA
-0,150146484375;247,042902376277;1,31011962890625E-08;-0,14959716796875;6;477;2,34496355056763E-07;-2,27555226534605E-07;100 nA
-0,10009765625;247,543390375013;1,4630126953125E-08;-0,099700927734375;6;478;2,34496355056763E-07;-2,27555226534605E-07;100 nA
-0,050048828125;248,043878373749;1,61956787109375E-08;-0,049835205078125;6;479;2,34496355056763E-07;-2,27555226534605E-07;100 nA
0;248,544366372486;1,78558349609375E-08;0,000119018554687503;6;480;2,34496355056763E-07;-2,27555226534605E-07;100 nA
0,050048828125;249,044854371222;1,9781494140625E-08;0,050079345703125;7;481;2,34346520155668E-07;-2,2726472094655E-07;100 nA
0,10009765625;249,545342369959;2,0623779296875E-08;0,100006103515625;7;482;2,34346520155668E-07;-2,2726472094655E-07;100 nA
0,150146484375;250,045830368695;1,8170166015625E-08;0,149993896484375;7;483;2,34346520155668E-07;-2,2726472094655E-07;100 nA
0,2001953125;250,546318367431;1,77459716796875E-08;0,200042724609375;7;484;2,34346520155668E-07;-2,2726472094655E-07;100 nA
0,250244140625;251,046806366168;1,77825927734375E-08;0,25;7;485;2,34346520155668E-07;-2,2726472094655E-07;100 nA
0,30029296875;251,547294364904;1,77581787109375E-08;0,300048828125;7;486;2,34346520155668E-07;-2,2726472094655E-07;100 nA
0,350341796875;252,047782363641;1,74652099609375E-08;0,35009765625;7;487;2,34346520155668E-07;-2,2726472094655E-07;100 nA
0,400390625;252,548270362377;1,673583984375E-08;0,40008544921875;7;488;2,34346520155668E-07;-2,2726472094655E-07;100 nA
0,450439453125;253,048758361113;1,566162109375E-08;0,4500732421875;7;489;2,34346520155668E-07;-2,2726472094655E-07;100 nA
0,50048828125;253,54924635985;1,46453857421875E-08;0,500091552734375;7;490;2,34346520155668E-07;-2,2726472094655E-07;100 nA
0,550537109375;254,049734358586;1,392822265625E-08;0,55010986328125;7;491;2,34346520155668E-07;-2,2726472094655E-07;100 nA
0,6005859375;254,550222357322;1,3507080078125E-08;0,60003662109375;7;492;2,34346520155668E-07;-2,2726472094655E-07;100 nA
0,650634765625;255,050710356059;1,32781982421875E-08;0,6500244140625;7;493;2,34346520155668E-07;-2,2726472094655E-07;100 nA
0,70068359375;255,551198354795;1,31500244140625E-08;0,699920654296875;7;494;2,34346520155668E-07;-2,2726472094655E-07;100 nA
0,750732421875;256,051686353532;1,30615234375E-08;0,74981689453125;7;495;2,34346520155668E-07;-2,2726472094655E-07;100 nA
0,80078125;256,552174352268;1,298828125E-08;0,8001708984375;7;496;2,34346520155668E-07;-2,2726472094655E-07;100 nA
0,850830078125;257,052662351004;1,29486083984375E-08;0,849609375;7;497;2,34346520155668E-07;-2,2726472094655E-07;100 nA
0,90087890625;257,553150349741;1,29608154296875E-08;0,899658203125;7;498;2,34346520155668E-07;-2,2726472094655E-07;100 nA
0,950927734375;258,053638348477;1,309814453125E-08;0,94940185546875;7;499;2,34346520155668E-07;-2,2726472094655E-07;100 nA
1,0009765625;258,554126347214;1,32232666015625E-08;0,99884033203125;7;500;2,34346520155668E-07;-2,2726472094655E-07;100 nA
0,950927734375;259,05461434595;8,636474609375E-09;0,95001220703125;7;501;2,34346520155668E-07;-2,2726472094655E-07;100 nA
0,90087890625;259,555102344686;5,9539794921875E-09;0,899658203125;7;502;2,34346520155668E-07;-2,2726472094655E-07;100 nA
0,850830078125;260,055590343423;4,119873046875E-09;0,8502197265625;7;503;2,34346520155668E-07;-2,2726472094655E-07;100 nA
0,80078125;260,556078342159;2,7496337890625E-09;0,799560546875;7;504;2,34346520155668E-07;-2,2726472094655E-07;100 nA
0,750732421875;261,056566340896;1,63238525390625E-09;0,74981689453125;7;505;2,34346520155668E-07;-2,2726472094655E-07;100 nA
0,70068359375;261,557054339632;6,53991699218751E-10;0,699951171875;7;506;2,34346520155668E-07;-2,2726472094655E-07;100 nA
0,650634765625;262,057542338368;-2,64587402343749E-10;0,650177001953125;7;507;2,34346520155668E-07;-2,2726472094655E-07;100 nA
0,6005859375;262,558030337105;-1,1431884765625E-09;0,60015869140625;7;508;2,34346520155668E-07;-2,2726472094655E-07;100 nA
0,550537109375;263,058518335841;-2,0208740234375E-09;0,550201416015625;7;509;2,34346520155668E-07;-2,2726472094655E-07;100 nA
0,50048828125;263,559006334577;-2,8594970703125E-09;0,500152587890625;7;510;2,34346520155668E-07;-2,2726472094655E-07;100 nA
0,450439453125;264,059494333314;-3,7200927734375E-09;0,4500732421875;7;511;2,34346520155668E-07;-2,2726472094655E-07;100 nA
0,400390625;264,55998233205;-4,5745849609375E-09;0,400146484375;7;512;2,34346520155668E-07;-2,2726472094655E-07;100 nA
0,350341796875;265,060470330787;-5,419921875E-09;0,35009765625;7;513;2,34346520155668E-07;-2,2726472094655E-07;100 nA
0,30029296875;265,560958329523;-6,3018798828125E-09;0,30010986328125;7;514;2,34346520155668E-07;-2,2726472094655E-07;100 nA
0,250244140625;266,061446328259;-7,2662353515625E-09;0,250091552734375;7;515;2,34346520155668E-07;-2,2726472094655E-07;100 nA
0,2001953125;266,561934326996;-8,3770751953125E-09;0,2000732421875;7;516;2,34346520155668E-07;-2,2726472094655E-07;100 nA
0,150146484375;267,062422325732;-9,9609375E-09;0,150115966796875;7;517;2,34346520155668E-07;-2,2726472094655E-07;100 nA
0,10009765625;267,562910324469;-1,28021240234375E-08;0,100128173828125;7;518;2,34346520155668E-07;-2,2726472094655E-07;100 nA
0,050048828125;268,063398323205;-1,58599853515625E-08;0,050048828125;7;519;2,34346520155668E-07;-2,2726472094655E-07;100 nA
0;268,563886321941;-1,68975830078125E-08;0,000128173828124994;7;520;2,34346520155668E-07;-2,2726472094655E-07;100 nA
-0,050048828125;269,064374320678;-1,683349609375E-08;-0,0498046875;7;521;2,34346520155668E-07;-2,2726472094655E-07;100 nA
-0,10009765625;269,564862319414;-1,71844482421875E-08;-0,09967041015625;7;522;2,34346520155668E-07;-2,2726472094655E-07;100 nA
-0,150146484375;270,065350318151;-1,7767333984375E-08;-0,1495361328125;7;523;2,34346520155668E-07;-2,2726472094655E-07;100 nA
-0,2001953125;270,565838316887;-1,84112548828125E-08;-0,199462890625;7;524;2,34346520155668E-07;-2,2726472094655E-07;100 nA
-0,250244140625;271,066326315623;-1,91375732421875E-08;-0,2493896484375;7;525;2,34346520155668E-07;-2,2726472094655E-07;100 nA
-0,30029296875;271,56681431436;-2,01141357421875E-08;-0,29925537109375;7;526;2,34346520155668E-07;-2,2726472094655E-07;100 nA
-0,350341796875;272,067302313096;-2,0904541015625E-08;-0,34912109375;7;527;2,34346520155668E-07;-2,2726472094655E-07;100 nA
-0,400390625;272,567790311832;-2,061767578125E-08;-0,39910888671875;7;528;2,34346520155668E-07;-2,2726472094655E-07;100 nA
-0,450439453125;273,068278310569;-1,8145751953125E-08;-0,44891357421875;7;529;2,34346520155668E-07;-2,2726472094655E-07;100 nA
-0,50048828125;273,568766309305;-1,5966796875E-08;-0,49884033203125;7;530;2,34346520155668E-07;-2,2726472094655E-07;100 nA
-0,550537109375;274,069254308042;-1,60369873046875E-08;-0,5487060546875;7;531;2,34346520155668E-07;-2,2726472094655E-07;100 nA
-0,6005859375;274,569742306778;-1,605224609375E-08;-0,598663330078125;7;532;2,34346520155668E-07;-2,2726472094655E-07;100 nA
-0,650634765625;275,070230305514;-1,578369140625E-08;-0,6485595703125;7;533;2,34346520155668E-07;-2,2726472094655E-07;100 nA
-0,70068359375;275,570718304251;-1,53900146484375E-08;-0,6986083984375;7;534;2,34346520155668E-07;-2,2726472094655E-07;100 nA
-0,750732421875;276,071206302987;-1,50146484375E-08;-0,74859619140625;7;535;2,34346520155668E-07;-2,2726472094655E-07;100 nA
-0,80078125;276,571694301724;-1,47918701171875E-08;-0,79864501953125;7;536;2,34346520155668E-07;-2,2726472094655E-07;100 nA
-0,850830078125;277,07218230046;-1,46881103515625E-08;-0,8489990234375;7;537;2,34346520155668E-07;-2,2726472094655E-07;100 nA
-0,90087890625;277,572670299196;-1,47064208984375E-08;-0,89874267578125;7;538;2,34346520155668E-07;-2,2726472094655E-07;100 nA
-0,950927734375;278,073158297933;-1,48681640625E-08;-0,94879150390625;7;539;2,34346520155668E-07;-2,2726472094655E-07;100 nA
-1,0009765625;278,573646296669;-1,52008056640625E-08;-0,99945068359375;7;540;2,34346520155668E-07;-2,2726472094655E-07;100 nA
-0,950927734375;279,074134295406;-9,2132568359375E-09;-0,94879150390625;7;541;2,34346520155668E-07;-2,2726472094655E-07;100 nA
-0,90087890625;279,574622294142;-5,596923828125E-09;-0,8990478515625;7;542;2,34346520155668E-07;-2,2726472094655E-07;100 nA
-0,850830078125;280,075110292878;-3,0548095703125E-09;-0,8489990234375;7;543;2,34346520155668E-07;-2,2726472094655E-07;100 nA
-0,80078125;280,575598291615;-1,136474609375E-09;-0,79833984375;7;544;2,34346520155668E-07;-2,2726472094655E-07;100 nA
-0,750732421875;281,076086290351;4,010009765625E-10;-0,748565673828125;7;545;2,34346520155668E-07;-2,2726472094655E-07;100 nA
-0,70068359375;281,576574289087;1,73614501953125E-09;-0,698638916015625;7;546;2,34346520155668E-07;-2,2726472094655E-07;100 nA
-0,650634765625;282,077062287824;3,033447265625E-09;-0,6485595703125;7;547;2,34346520155668E-07;-2,2726472094655E-07;100 nA
-0,6005859375;282,57755028656;4,28466796875E-09;-0,5986328125;7;548;2,34346520155668E-07;-2,2726472094655E-07;100 nA
-0,550537109375;283,078038285297;5,2581787109375E-09;-0,548736572265625;7;549;2,34346520155668E-07;-2,2726472094655E-07;100 nA
-0,50048828125;283,578526284033;6,048583984375E-09;-0,498779296875;7;550;2,34346520155668E-07;-2,2726472094655E-07;100 nA
-0,450439453125;284,079014282769;6,7901611328125E-09;-0,448883056640625;7;551;2,34346520155668E-07;-2,2726472094655E-07;100 nA
-0,400390625;284,579502281506;7,525634765625E-09;-0,399078369140625;7;552;2,34346520155668E-07;-2,2726472094655E-07;100 nA
-0,350341796875;285,079990280242;8,2733154296875E-09;-0,3492431640625;7;553;2,34346520155668E-07;-2,2726472094655E-07;100 nA
-0,30029296875;285,580478278979;9,136962890625E-09;-0,29925537109375;7;554;2,34346520155668E-07;-2,2726472094655E-07;100 nA
-0,250244140625;286,080966277715;1,02294921875E-08;-0,2493896484375;7;555;2,34346520155668E-07;-2,2726472094655E-07;100 nA
-0,2001953125;286,581454276451;1,15875244140625E-08;-0,199493408203125;7;556;2,34346520155668E-07;-2,2726472094655E-07;100 nA
-0,150146484375;287,081942275188;1,3079833984375E-08;-0,14959716796875;7;557;2,34346520155668E-07;-2,2726472094655E-07;100 nA
-0,10009765625;287,582430273924;1,4605712890625E-08;-0,0997314453125;7;558;2,34346520155668E-07;-2,2726472094655E-07;100 nA
-0,050048828125;288,082918272661;1,6162109375E-08;-0,049774169921875;7;559;2,34346520155668E-07;-2,2726472094655E-07;100 nA
0;288,583406271397;1,7822265625E-08;0,000100708007812506;7;560;2,34346520155668E-07;-2,2726472094655E-07;100 nA
0,050048828125;289,083894270133;1,97540283203125E-08;0,050048828125;8;561;2,34107792377472E-07;-2,26610854268074E-07;100 nA
0,10009765625;289,58438226887;2,0587158203125E-08;0,100067138671875;8;562;2,34107792377472E-07;-2,26610854268074E-07;100 nA
0,150146484375;290,084870267606;1,81182861328125E-08;0,1500244140625;8;563;2,34107792377472E-07;-2,26610854268074E-07;100 nA
0,2001953125;290,585358266343;1,7718505859375E-08;0,20001220703125;8;564;2,34107792377472E-07;-2,26610854268074E-07;100 nA
0,250244140625;291,085846265079;1,77520751953125E-08;0,250030517578125;8;565;2,34107792377472E-07;-2,26610854268074E-07;100 nA
0,30029296875;291,586334263815;1,77215576171875E-08;0,300079345703125;8;566;2,34107792377472E-07;-2,26610854268074E-07;100 nA
0,350341796875;292,086822262552;1,74346923828125E-08;0,35003662109375;8;567;2,34107792377472E-07;-2,26610854268074E-07;100 nA
0,400390625;292,587310261288;1,67022705078125E-08;0,400115966796875;8;568;2,34107792377472E-07;-2,26610854268074E-07;100 nA
0,450439453125;293,087798260024;1,56341552734375E-08;0,4500732421875;8;569;2,34107792377472E-07;-2,26610854268074E-07;100 nA
0,50048828125;293,588286258761;1,4630126953125E-08;0,50006103515625;8;570;2,34107792377472E-07;-2,26610854268074E-07;100 nA
0,550537109375;294,088774257497;1,3922119140625E-08;0,550079345703125;8;571;2,34107792377472E-07;-2,26610854268074E-07;100 nA
0,6005859375;294,589262256234;1,3555908203125E-08;0,600067138671875;8;572;2,34107792377472E-07;-2,26610854268074E-07;100 nA
0,650634765625;295,08975025497;1,32720947265625E-08;0,649993896484375;8;573;2,34107792377472E-07;-2,26610854268074E-07;100 nA
0,70068359375;295,590238253706;1,3140869140625E-08;0,69989013671875;8;574;2,34107792377472E-07;-2,26610854268074E-07;100 nA
0,750732421875;296,090726252443;1,30462646484375E-08;0,749847412109375;8;575;2,34107792377472E-07;-2,26610854268074E-07;100 nA
0,80078125;296,591214251179;1,2982177734375E-08;0,79986572265625;8;576;2,34107792377472E-07;-2,26610854268074E-07;100 nA
0,850830078125;297,091702249916;1,29425048828125E-08;0,849609375;8;577;2,34107792377472E-07;-2,26610854268074E-07;100 nA
0,90087890625;297,592190248652;1,29486083984375E-08;0,9002685546875;8;578;2,34107792377472E-07;-2,26610854268074E-07;100 nA
0,950927734375;298,092678247388;1,302490234375E-08;0,95001220703125;8;579;2,34107792377472E-07;-2,26610854268074E-07;100 nA
1,0009765625;298,593166246125;1,32080078125E-08;0,999755859375;8;580;2,34107792377472E-07;-2,26610854268074E-07;100 nA
0,950927734375;299,093654244861;8,63037109375E-09;0,95001220703125;8;581;2,34107792377472E-07;-2,26610854268074E-07;100 nA
0,90087890625;299,594142243598;5,9478759765625E-09;0,899658203125;8;582;2,34107792377472E-07;-2,26610854268074E-07;100 nA
0,850830078125;300,094630242334;4,1259765625E-09;0,84930419921875;8;583;2,34107792377472E-07;-2,26610854268074E-07;100 nA
0,80078125;300,59511824107;2,74658203125E-09;0,799560546875;8;584;2,34107792377472E-07;-2,26610854268074E-07;100 nA
0,750732421875;301,095606239807;1,63818359375E-09;0,74981689453125;8;585;2,34107792377472E-07;-2,26610854268074E-07;100 nA
0,70068359375;301,596094238543;6,60095214843751E-10;0,700042724609375;8;586;2,34107792377472E-07;-2,26610854268074E-07;100 nA
0,650634765625;302,096582237279;-2,62451171875E-10;0,650177001953125;8;587;2,34107792377472E-07;-2,26610854268074E-07;100 nA
0,6005859375;302,597070236016;-1,14471435546875E-09;0,600189208984375;8;588;2,34107792377472E-07;-2,26610854268074E-07;100 nA
0,550537109375;303,097558234752;-2,01904296875E-09;0,550201416015625;8;589;2,34107792377472E-07;-2,26610854268074E-07;100 nA
0,50048828125;303,598046233489;-2,8594970703125E-09;0,5001220703125;8;590;2,34107792377472E-07;-2,26610854268074E-07;100 nA
0,450439453125;304,098534232225;-3,7078857421875E-09;0,450103759765625;8;591;2,34107792377472E-07;-2,26610854268074E-07;100 nA
0,400390625;304,599022230961;-4,559326171875E-09;0,400115966796875;8;592;2,34107792377472E-07;-2,26610854268074E-07;100 nA
0,350341796875;305,099510229698;-5,40771484375E-09;0,35009765625;8;593;2,34107792377472E-07;-2,26610854268074E-07;100 nA
0,30029296875;305,599998228434;-6,292724609375E-09;0,300048828125;8;594;2,34107792377472E-07;-2,26610854268074E-07;100 nA
0,250244140625;306,100486227171;-7,2418212890625E-09;0,25006103515625;8;595;2,34107792377472E-07;-2,26610854268074E-07;100 nA
0,2001953125;306,600974225907;-8,349609375E-09;0,200042724609375;8;596;2,34107792377472E-07;-2,26610854268074E-07;100 nA
0,150146484375;307,101462224643;-9,9151611328125E-09;0,150115966796875;8;597;2,34107792377472E-07;-2,26610854268074E-07;100 nA
0,10009765625;307,60195022338;-1,2725830078125E-08;0,10009765625;8;598;2,34107792377472E-07;-2,26610854268074E-07;100 nA
0,050048828125;308,102438222116;-1,5826416015625E-08;0,050079345703125;8;599;2,34107792377472E-07;-2,26610854268074E-07;100 nA
0;308,602926220853;-1,6912841796875E-08;0,000149536132812503;8;600;2,34107792377472E-07;-2,26610854268074E-07;100 nA
-0,050048828125;309,103414219589;-1,6851806640625E-08;-0,0497344970703125;8;601;2,34107792377472E-07;-2,26610854268074E-07;100 nA
-0,10009765625;309,603902218325;-1,71966552734375E-08;-0,099639892578125;8;602;2,34107792377472E-07;-2,26610854268074E-07;100 nA
-0,150146484375;310,104390217062;-1,7828369140625E-08;-0,149566650390625;8;603;2,34107792377472E-07;-2,26610854268074E-07;100 nA
-0,2001953125;310,604878215798;-1,84173583984375E-08;-0,199432373046875;8;604;2,34107792377472E-07;-2,26610854268074E-07;100 nA
-0,250244140625;311,105366214534;-1,9140625E-08;-0,249359130859375;8;605;2,34107792377472E-07;-2,26610854268074E-07;100 nA
-0,30029296875;311,605854213271;-2,01171875E-08;-0,299224853515625;8;606;2,34107792377472E-07;-2,26610854268074E-07;100 nA
-0,350341796875;312,106342212007;-2,08526611328125E-08;-0,34912109375;8;607;2,34107792377472E-07;-2,26610854268074E-07;100 nA
-0,400390625;312,606830210744;-2,0501708984375E-08;-0,3990478515625;8;608;2,34107792377472E-07;-2,26610854268074E-07;100 nA
-0,450439453125;313,10731820948;-1,79290771484375E-08;-0,448944091796875;8;609;2,34107792377472E-07;-2,26610854268074E-07;100 nA
-0,50048828125;313,607806208216;-1,58416748046875E-08;-0,498809814453125;8;610;2,34107792377472E-07;-2,26610854268074E-07;100 nA
-0,550537109375;314,108294206953;-1,59820556640625E-08;-0,548736572265625;8;611;2,34107792377472E-07;-2,26610854268074E-07;100 nA
-0,6005859375;314,608782205689;-1,5997314453125E-08;-0,598602294921875;8;612;2,34107792377472E-07;-2,26610854268074E-07;100 nA
-0,650634765625;315,109270204426;-1,5728759765625E-08;-0,648590087890625;8;613;2,34107792377472E-07;-2,26610854268074E-07;100 nA
-0,70068359375;315,609758203162;-1,533203125E-08;-0,698577880859375;8;614;2,34107792377472E-07;-2,26610854268074E-07;100 nA
-0,750732421875;316,110246201898;-1,49627685546875E-08;-0,74859619140625;8;615;2,34107792377472E-07;-2,26610854268074E-07;100 nA
-0,80078125;316,610734200635;-1,47430419921875E-08;-0,799560546875;8;616;2,34107792377472E-07;-2,26610854268074E-07;100 nA
-0,850830078125;317,111222199371;-1,46392822265625E-08;-0,8489990234375;8;617;2,34107792377472E-07;-2,26610854268074E-07;100 nA
-0,90087890625;317,611710198108;-1,4654541015625E-08;-0,89874267578125;8;618;2,34107792377472E-07;-2,26610854268074E-07;100 nA
-0,950927734375;318,112198196844;-1,4813232421875E-08;-0,9490966796875;8;619;2,34107792377472E-07;-2,26610854268074E-07;100 nA
-1,0009765625;318,61268619558;-1,5142822265625E-08;-0,99822998046875;8;620;2,34107792377472E-07;-2,26610854268074E-07;100 nA
-0,950927734375;319,113174194317;-9,173583984375E-09;-0,94940185546875;8;621;2,34107792377472E-07;-2,26610854268074E-07;100 nA
-0,90087890625;319,613662193053;-5,5694580078125E-09;-0,8990478515625;8;622;2,34107792377472E-07;-2,26610854268074E-07;100 nA
-0,850830078125;320,114150191789;-3,02734375E-09;-0,84869384765625;8;623;2,34107792377472E-07;-2,26610854268074E-07;100 nA
-0,80078125;320,614638190526;-1,11114501953125E-09;-0,7989501953125;8;624;2,34107792377472E-07;-2,26610854268074E-07;100 nA
-0,750732421875;321,115126189262;4,180908203125E-10;-0,748565673828125;8;625;2,34107792377472E-07;-2,26610854268074E-07;100 nA
-0,70068359375;321,615614187999;1,75201416015625E-09;-0,6986083984375;8;626;2,34107792377472E-07;-2,26610854268074E-07;100 nA
-0,650634765625;322,116102186735;3,03955078125E-09;-0,648590087890625;8;627;2,34107792377472E-07;-2,26610854268074E-07;100 nA
-0,6005859375;322,616590185471;4,296875E-09;-0,598602294921875;8;628;2,34107792377472E-07;-2,26610854268074E-07;100 nA
-0,550537109375;323,117078184208;5,2642822265625E-09;-0,54876708984375;8;629;2,34107792377472E-07;-2,26610854268074E-07;100 nA
-0,50048828125;323,617566182944;6,0546875E-09;-0,498779296875;8;630;2,34107792377472E-07;-2,26610854268074E-07;100 nA
-0,450439453125;324,118054181681;6,8603515625E-09;-0,448944091796875;8;631;2,34107792377472E-07;-2,26610854268074E-07;100 nA
-0,400390625;324,618542180417;7,5286865234375E-09;-0,399017333984375;8;632;2,34107792377472E-07;-2,26610854268074E-07;100 nA
-0,350341796875;325,119030179153;8,2733154296875E-09;-0,349151611328125;8;633;2,34107792377472E-07;-2,26610854268074E-07;100 nA
-0,30029296875;325,61951817789;9,124755859375E-09;-0,299285888671875;8;634;2,34107792377472E-07;-2,26610854268074E-07;100 nA
-0,250244140625;326,120006176626;1,0211181640625E-08;-0,249359130859375;8;635;2,34107792377472E-07;-2,26610854268074E-07;100 nA
-0,2001953125;326,620494175363;1,15631103515625E-08;-0,199462890625;8;636;2,34107792377472E-07;-2,26610854268074E-07;100 nA
-0,150146484375;327,120982174099;1,304931640625E-08;-0,14959716796875;8;637;2,34107792377472E-07;-2,26610854268074E-07;100 nA
-0,10009765625;327,621470172835;1,45721435546875E-08;-0,099639892578125;8;638;2,34107792377472E-07;-2,26610854268074E-07;100 nA
-0,050048828125;328,121958171572;1,61224365234375E-08;-0,049835205078125;8;639;2,34107792377472E-07;-2,26610854268074E-07;100 nA
0;328,622446170308;1,77825927734375E-08;0,000143432617187494;8;640;2,34107792377472E-07;-2,26610854268074E-07;100 nA
0,050048828125;329,122934169044;1,97235107421875E-08;0,050018310546875;9;641;2,33580850064754E-07;-2,26397328078747E-07;100 nA
0,10009765625;329,623422167781;2,05413818359375E-08;0,100067138671875;9;642;2,33580850064754E-07;-2,26397328078747E-07;100 nA
0,150146484375;330,123910166517;1,80633544921875E-08;0,1500244140625;9;643;2,33580850064754E-07;-2,26397328078747E-07;100 nA
0,2001953125;330,624398165254;1,76727294921875E-08;0,200042724609375;9;644;2,33580850064754E-07;-2,26397328078747E-07;100 nA
0,250244140625;331,12488616399;1,771240234375E-08;0,25;9;645;2,33580850064754E-07;-2,26397328078747E-07;100 nA
0,30029296875;331,625374162726;1,76910400390625E-08;0,300048828125;9;646;2,33580850064754E-07;-2,26397328078747E-07;100 nA
0,350341796875;332,125862161463;1,74041748046875E-08;0,350067138671875;9;647;2,33580850064754E-07;-2,26397328078747E-07;100 nA
0,400390625;332,626350160199;1,6668701171875E-08;0,40008544921875;9;648;2,33580850064754E-07;-2,26397328078747E-07;100 nA
0,450439453125;333,126838158936;1,56097412109375E-08;0,450042724609375;9;649;2,33580850064754E-07;-2,26397328078747E-07;100 nA
0,50048828125;333,627326157672;1,46148681640625E-08;0,500030517578125;9;650;2,33580850064754E-07;-2,26397328078747E-07;100 nA
0,550537109375;334,127814156408;1,3909912109375E-08;0,550048828125;9;651;2,33580850064754E-07;-2,26397328078747E-07;100 nA
0,6005859375;334,628302155145;1,34918212890625E-08;0,60009765625;9;652;2,33580850064754E-07;-2,26397328078747E-07;100 nA
0,650634765625;335,128790153881;1,3262939453125E-08;0,649993896484375;9;653;2,33580850064754E-07;-2,26397328078747E-07;100 nA
0,70068359375;335,629278152618;1,3128662109375E-08;0,699859619140625;9;654;2,33580850064754E-07;-2,26397328078747E-07;100 nA
0,750732421875;336,129766151354;1,3037109375E-08;0,74981689453125;9;655;2,33580850064754E-07;-2,26397328078747E-07;100 nA
0,80078125;336,63025415009;1,29638671875E-08;0,8001708984375;9;656;2,33580850064754E-07;-2,26397328078747E-07;100 nA
0,850830078125;337,130742148827;1,29241943359375E-08;0,84991455078125;9;657;2,33580850064754E-07;-2,26397328078747E-07;100 nA
0,90087890625;337,631230147563;1,29364013671875E-08;0,89935302734375;9;658;2,33580850064754E-07;-2,26397328078747E-07;100 nA
0,950927734375;338,131718146299;1,30035400390625E-08;0,94940185546875;9;659;2,33580850064754E-07;-2,26397328078747E-07;100 nA
1,0009765625;338,632206145036;1,31866455078125E-08;0,9991455078125;9;660;2,33580850064754E-07;-2,26397328078747E-07;100 nA
0,950927734375;339,132694143772;8,6151123046875E-09;0,9490966796875;9;661;2,33580850064754E-07;-2,26397328078747E-07;100 nA
0,90087890625;339,633182142509;5,8868408203125E-09;0,89996337890625;9;662;2,33580850064754E-07;-2,26397328078747E-07;100 nA
0,850830078125;340,133670141245;4,11376953125E-09;0,84930419921875;9;663;2,33580850064754E-07;-2,26397328078747E-07;100 nA
0,80078125;340,634158139981;2,740478515625E-09;0,8001708984375;9;664;2,33580850064754E-07;-2,26397328078747E-07;100 nA
0,750732421875;341,134646138718;1,62933349609375E-09;0,7498779296875;9;665;2,33580850064754E-07;-2,26397328078747E-07;100 nA
0,70068359375;341,635134137454;6,53686523437499E-10;0,699981689453125;9;666;2,33580850064754E-07;-2,26397328078747E-07;100 nA
0,650634765625;342,135622136191;-2,66418457031251E-10;0,650115966796875;9;667;2,33580850064754E-07;-2,26397328078747E-07;100 nA
0,6005859375;342,636110134927;-1,14959716796875E-09;0,6002197265625;9;668;2,33580850064754E-07;-2,26397328078747E-07;100 nA
0,550537109375;343,136598133663;-2,0147705078125E-09;0,55010986328125;9;669;2,33580850064754E-07;-2,26397328078747E-07;100 nA
0,50048828125;343,6370861324;-2,8533935546875E-09;0,50018310546875;9;670;2,33580850064754E-07;-2,26397328078747E-07;100 nA
0,450439453125;344,137574131136;-3,717041015625E-09;0,450103759765625;9;671;2,33580850064754E-07;-2,26397328078747E-07;100 nA
0,400390625;344,638062129873;-4,5623779296875E-09;0,40008544921875;9;672;2,33580850064754E-07;-2,26397328078747E-07;100 nA
0,350341796875;345,138550128609;-5,413818359375E-09;0,35015869140625;9;673;2,33580850064754E-07;-2,26397328078747E-07;100 nA
0,30029296875;345,639038127345;-6,292724609375E-09;0,30010986328125;9;674;2,33580850064754E-07;-2,26397328078747E-07;100 nA
0,250244140625;346,139526126082;-7,23876953125E-09;0,250091552734375;9;675;2,33580850064754E-07;-2,26397328078747E-07;100 nA
0,2001953125;346,640014124818;-8,3404541015625E-09;0,2000732421875;9;676;2,33580850064754E-07;-2,26397328078747E-07;100 nA
0,150146484375;347,140502123554;-9,89990234375E-09;0,150115966796875;9;677;2,33580850064754E-07;-2,26397328078747E-07;100 nA
0,10009765625;347,640990122291;-1,2664794921875E-08;0,10003662109375;9;678;2,33580850064754E-07;-2,26397328078747E-07;100 nA
0,050048828125;348,141478121027;-1,58111572265625E-08;0,050140380859375;9;679;2,33580850064754E-07;-2,26397328078747E-07;100 nA
0;348,641966119764;-1,69525146484375E-08;0,000109863281249997;9;680;2,33580850064754E-07;-2,26397328078747E-07;100 nA
-0,050048828125;349,1424541185;-1,68914794921875E-08;-0,0497406005859375;9;681;2,33580850064754E-07;-2,26397328078747E-07;100 nA
-0,10009765625;349,642942117236;-1,722412109375E-08;-0,09967041015625;9;682;2,33580850064754E-07;-2,26397328078747E-07;100 nA
-0,150146484375;350,143430115973;-1,7803955078125E-08;-0,149505615234375;9;683;2,33580850064754E-07;-2,26397328078747E-07;100 nA
-0,2001953125;350,643918114709;-1,84478759765625E-08;-0,199432373046875;9;684;2,33580850064754E-07;-2,26397328078747E-07;100 nA
-0,250244140625;351,144406113446;-1,91741943359375E-08;-0,2493896484375;9;685;2,33580850064754E-07;-2,26397328078747E-07;100 nA
-0,30029296875;351,644894112182;-2,0135498046875E-08;-0,299285888671875;9;686;2,33580850064754E-07;-2,26397328078747E-07;100 nA
-0,350341796875;352,145382110918;-2,08343505859375E-08;-0,349212646484375;9;687;2,33580850064754E-07;-2,26397328078747E-07;100 nA
-0,400390625;352,645870109655;-2,0404052734375E-08;-0,39910888671875;9;688;2,33580850064754E-07;-2,26397328078747E-07;100 nA
-0,450439453125;353,146358108391;-1,7767333984375E-08;-0,448974609375;9;689;2,33580850064754E-07;-2,26397328078747E-07;100 nA
-0,50048828125;353,646846107128;-1,5777587890625E-08;-0,49884033203125;9;690;2,33580850064754E-07;-2,26397328078747E-07;100 nA
-0,550537109375;354,147334105864;-1,59698486328125E-08;-0,548736572265625;9;691;2,33580850064754E-07;-2,26397328078747E-07;100 nA
-0,6005859375;354,6478221046;-1,597900390625E-08;-0,598602294921875;9;692;2,33580850064754E-07;-2,26397328078747E-07;100 nA
-0,650634765625;355,148310103337;-1,57073974609375E-08;-0,6485595703125;9;693;2,33580850064754E-07;-2,26397328078747E-07;100 nA
-0,70068359375;355,648798102073;-1,53106689453125E-08;-0,698577880859375;9;694;2,33580850064754E-07;-2,26397328078747E-07;100 nA
-0,750732421875;356,149286100809;-1,49505615234375E-08;-0,74859619140625;9;695;2,33580850064754E-07;-2,26397328078747E-07;100 nA
-0,80078125;356,649774099546;-1,4727783203125E-08;-0,7989501953125;9;696;2,33580850064754E-07;-2,26397328078747E-07;100 nA
-0,850830078125;357,150262098282;-1,4630126953125E-08;-0,84869384765625;9;697;2,33580850064754E-07;-2,26397328078747E-07;100 nA
-0,90087890625;357,650750097019;-1,46484375E-08;-0,89874267578125;9;698;2,33580850064754E-07;-2,26397328078747E-07;100 nA
-0,950927734375;358,151238095755;-1,4801025390625E-08;-0,9490966796875;9;699;2,33580850064754E-07;-2,26397328078747E-07;100 nA
-1,0009765625;358,651726094491;-1,51275634765625E-08;-0,99884033203125;9;700;2,33580850064754E-07;-2,26397328078747E-07;100 nA
-0,950927734375;359,152214093228;-9,16748046875E-09;-0,9490966796875;9;701;2,33580850064754E-07;-2,26397328078747E-07;100 nA
-0,90087890625;359,652702091964;-5,56640625E-09;-0,8984375;9;702;2,33580850064754E-07;-2,26397328078747E-07;100 nA
-0,850830078125;360,153190090701;-3,021240234375E-09;-0,84869384765625;9;703;2,33580850064754E-07;-2,26397328078747E-07;100 nA
-0,80078125;360,653678089437;-1,107177734375E-09;-0,79864501953125;9;704;2,33580850064754E-07;-2,26397328078747E-07;100 nA
-0,750732421875;361,154166088173;4,23583984375001E-10;-0,748565673828125;9;705;2,33580850064754E-07;-2,26397328078747E-07;100 nA
-0,70068359375;361,65465408691;1,74652099609375E-09;-0,698577880859375;9;706;2,33580850064754E-07;-2,26397328078747E-07;100 nA
-0,650634765625;362,155142085646;3,0364990234375E-09;-0,648590087890625;9;707;2,33580850064754E-07;-2,26397328078747E-07;100 nA
-0,6005859375;362,655630084383;4,28466796875E-09;-0,5986328125;9;708;2,33580850064754E-07;-2,26397328078747E-07;100 nA
-0,550537109375;363,156118083119;5,26123046875E-09;-0,54876708984375;9;709;2,33580850064754E-07;-2,26397328078747E-07;100 nA
-0,50048828125;363,656606081855;6,0455322265625E-09;-0,498870849609375;9;710;2,33580850064754E-07;-2,26397328078747E-07;100 nA
-0,450439453125;364,157094080592;6,793212890625E-09;-0,448974609375;9;711;2,33580850064754E-07;-2,26397328078747E-07;100 nA
-0,400390625;364,657582079328;7,5164794921875E-09;-0,39910888671875;9;712;2,33580850064754E-07;-2,26397328078747E-07;100 nA
-0,350341796875;365,158070078065;8,258056640625E-09;-0,34918212890625;9;713;2,33580850064754E-07;-2,26397328078747E-07;100 nA
-0,30029296875;365,658558076801;9,1064453125E-09;-0,299285888671875;9;714;2,33580850064754E-07;-2,26397328078747E-07;100 nA
-0,250244140625;366,159046075537;1,01806640625E-08;-0,249298095703125;9;715;2,33580850064754E-07;-2,26397328078747E-07;100 nA
-0,2001953125;366,659534074274;1,15234375E-08;-0,199432373046875;9;716;2,33580850064754E-07;-2,26397328078747E-07;100 nA
-0,150146484375;367,16002207301;1,3006591796875E-08;-0,1495361328125;9;717;2,33580850064754E-07;-2,26397328078747E-07;100 nA
-0,10009765625;367,660510071746;1,45263671875E-08;-0,0997314453125;9;718;2,33580850064754E-07;-2,26397328078747E-07;100 nA
-0,050048828125;368,160998070483;1,60736083984375E-08;-0,049835205078125;9;719;2,33580850064754E-07;-2,26397328078747E-07;100 nA
0;368,661486069219;1,773681640625E-08;0,000115966796875006;9;720;2,33580850064754E-07;-2,26397328078747E-07;100 nA
0,050048828125;369,161974067956;1,96319580078125E-08;0,050018310546875;10;721;2,33321808278561E-07;-2,25987076759338E-07;100 nA
0,10009765625;369,662462066692;2,0489501953125E-08;0,100006103515625;10;722;2,33321808278561E-07;-2,25987076759338E-07;100 nA
0,150146484375;370,162950065428;1,800537109375E-08;0,149993896484375;10;723;2,33321808278561E-07;-2,25987076759338E-07;100 nA
0,2001953125;370,663438064165;1,76239013671875E-08;0,200103759765625;10;724;2,33321808278561E-07;-2,25987076759338E-07;100 nA
0,250244140625;371,163926062901;1,76788330078125E-08;0,25006103515625;10;725;2,33321808278561E-07;-2,25987076759338E-07;100 nA
0,30029296875;371,664414061638;1,7657470703125E-08;0,300018310546875;10;726;2,33321808278561E-07;-2,25987076759338E-07;100 nA
0,350341796875;372,164902060374;1,73614501953125E-08;0,35009765625;10;727;2,33321808278561E-07;-2,25987076759338E-07;100 nA
0,400390625;372,66539005911;1,66351318359375E-08;0,400054931640625;10;728;2,33321808278561E-07;-2,25987076759338E-07;100 nA
0,450439453125;373,165878057847;1,55853271484375E-08;0,4500732421875;10;729;2,33321808278561E-07;-2,25987076759338E-07;100 nA
0,50048828125;373,666366056583;1,458740234375E-08;0,500091552734375;10;730;2,33321808278561E-07;-2,25987076759338E-07;100 nA
0,550537109375;374,16685405532;1,38916015625E-08;0,55010986328125;10;731;2,33321808278561E-07;-2,25987076759338E-07;100 nA
0,6005859375;374,667342054056;1,34735107421875E-08;0,600067138671875;10;732;2,33321808278561E-07;-2,25987076759338E-07;100 nA
0,650634765625;375,167830052792;1,3250732421875E-08;0,64996337890625;10;733;2,33321808278561E-07;-2,25987076759338E-07;100 nA
0,70068359375;375,668318051529;1,31134033203125E-08;0,699951171875;10;734;2,33321808278561E-07;-2,25987076759338E-07;100 nA
0,750732421875;376,168806050265;1,3018798828125E-08;0,74981689453125;10;735;2,33321808278561E-07;-2,25987076759338E-07;100 nA
0,80078125;376,669294049001;1,29486083984375E-08;0,79986572265625;10;736;2,33321808278561E-07;-2,25987076759338E-07;100 nA
0,850830078125;377,169782047738;1,29180908203125E-08;0,84991455078125;10;737;2,33321808278561E-07;-2,25987076759338E-07;100 nA
0,90087890625;377,670270046474;1,29150390625E-08;0,89996337890625;10;738;2,33321808278561E-07;-2,25987076759338E-07;100 nA
0,950927734375;378,170758045211;1,29852294921875E-08;0,94970703125;10;739;2,33321808278561E-07;-2,25987076759338E-07;100 nA
1,0009765625;378,671246043947;1,31622314453125E-08;0,99945068359375;10;740;2,33321808278561E-07;-2,25987076759338E-07;100 nA
0,950927734375;379,171734042683;8,60595703125E-09;0,95001220703125;10;741;2,33321808278561E-07;-2,25987076759338E-07;100 nA
0,90087890625;379,67222204142;5,926513671875E-09;0,899658203125;10;742;2,33321808278561E-07;-2,25987076759338E-07;100 nA
0,850830078125;380,172710040156;4,1107177734375E-09;0,849609375;10;743;2,33321808278561E-07;-2,25987076759338E-07;100 nA
0,80078125;380,673198038893;2,740478515625E-09;0,79986572265625;10;744;2,33321808278561E-07;-2,25987076759338E-07;100 nA
0,750732421875;381,173686037629;1,6290283203125E-09;0,749786376953125;10;745;2,33321808278561E-07;-2,25987076759338E-07;100 nA
0,70068359375;381,674174036365;6,5155029296875E-10;0,700042724609375;10;746;2,33321808278561E-07;-2,25987076759338E-07;100 nA
0,650634765625;382,174662035102;-2,642822265625E-10;0,65008544921875;10;747;2,33321808278561E-07;-2,25987076759338E-07;100 nA
0,6005859375;382,675150033838;-1,1456298828125E-09;0,600189208984375;10;748;2,33321808278561E-07;-2,25987076759338E-07;100 nA
0,550537109375;383,175638032575;-2,0068359375E-09;0,550140380859375;10;749;2,33321808278561E-07;-2,25987076759338E-07;100 nA
0,50048828125;383,676126031311;-2,850341796875E-09;0,50018310546875;10;750;2,33321808278561E-07;-2,25987076759338E-07;100 nA
0,450439453125;384,176614030047;-3,7109375E-09;0,4500732421875;10;751;2,33321808278561E-07;-2,25987076759338E-07;100 nA
0,400390625;384,677102028784;-4,559326171875E-09;0,400115966796875;10;752;2,33321808278561E-07;-2,25987076759338E-07;100 nA
0,350341796875;385,17759002752;-5,401611328125E-09;0,35015869140625;10;753;2,33321808278561E-07;-2,25987076759338E-07;100 nA
0,30029296875;385,678078026256;-6,280517578125E-09;0,30010986328125;10;754;2,33321808278561E-07;-2,25987076759338E-07;100 nA
0,250244140625;386,178566024993;-7,2357177734375E-09;0,2501220703125;10;755;2,33321808278561E-07;-2,25987076759338E-07;100 nA
0,2001953125;386,679054023729;-8,331298828125E-09;0,2000732421875;10;756;2,33321808278561E-07;-2,25987076759338E-07;100 nA
0,150146484375;387,179542022466;-9,8724365234375E-09;0,15008544921875;10;757;2,33321808278561E-07;-2,25987076759338E-07;100 nA
0,10009765625;387,680030021202;-1,26129150390625E-08;0,100128173828125;10;758;2,33321808278561E-07;-2,25987076759338E-07;100 nA
0,050048828125;388,180518019938;-1,5777587890625E-08;0,050048828125;10;759;2,33321808278561E-07;-2,25987076759338E-07;100 nA
0;388,681006018675;-1,69708251953125E-08;0,000140380859374997;10;760;2,33321808278561E-07;-2,25987076759338E-07;100 nA
-0,050048828125;389,181494017411;-1,69097900390625E-08;-0,049835205078125;10;761;2,33321808278561E-07;-2,25987076759338E-07;100 nA
-0,10009765625;389,681982016148;-1,7230224609375E-08;-0,099639892578125;10;762;2,33321808278561E-07;-2,25987076759338E-07;100 nA
-0,150146484375;390,182470014884;-1,78070068359375E-08;-0,149566650390625;10;763;2,33321808278561E-07;-2,25987076759338E-07;100 nA
-0,2001953125;390,68295801362;-1,8450927734375E-08;-0,199432373046875;10;764;2,33321808278561E-07;-2,25987076759338E-07;100 nA
-0,250244140625;391,183446012357;-1,917724609375E-08;-0,249359130859375;10;765;2,33321808278561E-07;-2,25987076759338E-07;100 nA
-0,30029296875;391,683934011093;-2,0135498046875E-08;-0,29925537109375;10;766;2,33321808278561E-07;-2,25987076759338E-07;100 nA
-0,350341796875;392,18442200983;-2,078857421875E-08;-0,349151611328125;10;767;2,33321808278561E-07;-2,25987076759338E-07;100 nA
-0,400390625;392,684910008566;-2,030029296875E-08;-0,399078369140625;10;768;2,33321808278561E-07;-2,25987076759338E-07;100 nA
-0,450439453125;393,185398007302;-1,7596435546875E-08;-0,448944091796875;10;769;2,33321808278561E-07;-2,25987076759338E-07;100 nA
-0,50048828125;393,685886006039;-1,5765380859375E-08;-0,498809814453125;10;770;2,33321808278561E-07;-2,25987076759338E-07;100 nA
-0,550537109375;394,186374004775;-1,59393310546875E-08;-0,548736572265625;10;771;2,33321808278561E-07;-2,25987076759338E-07;100 nA
-0,6005859375;394,686862003511;-1,59423828125E-08;-0,598602294921875;10;772;2,33321808278561E-07;-2,25987076759338E-07;100 nA
-0,650634765625;395,187350002248;-1,5673828125E-08;-0,648590087890625;10;773;2,33321808278561E-07;-2,25987076759338E-07;100 nA
-0,70068359375;395,687838000984;-1,5277099609375E-08;-0,698486328125;10;774;2,33321808278561E-07;-2,25987076759338E-07;100 nA
-0,750732421875;396,188325999721;-1,49139404296875E-08;-0,748565673828125;10;775;2,33321808278561E-07;-2,25987076759338E-07;100 nA
-0,80078125;396,688813998457;-1,4697265625E-08;-0,7989501953125;10;776;2,33321808278561E-07;-2,25987076759338E-07;100 nA
-0,850830078125;397,189301997193;-1,4599609375E-08;-0,848388671875;10;777;2,33321808278561E-07;-2,25987076759338E-07;100 nA
-0,90087890625;397,68978999593;-1,461181640625E-08;-0,8990478515625;10;778;2,33321808278561E-07;-2,25987076759338E-07;100 nA
-0,950927734375;398,190277994666;-1,47705078125E-08;-0,9490966796875;10;779;2,33321808278561E-07;-2,25987076759338E-07;100 nA
-1,0009765625;398,690765993403;-1,513671875E-08;-0,9991455078125;10;780;2,33321808278561E-07;-2,25987076759338E-07;100 nA
-0,950927734375;399,191253992139;-9,1400146484375E-09;-0,94879150390625;10;781;2,33321808278561E-07;-2,25987076759338E-07;100 nA
-0,90087890625;399,691741990875;-5,5450439453125E-09;-0,8990478515625;10;782;2,33321808278561E-07;-2,25987076759338E-07;100 nA
-0,850830078125;400,192229989612;-3,0059814453125E-09;-0,84869384765625;10;783;2,33321808278561E-07;-2,25987076759338E-07;100 nA
-0,80078125;400,692717988348;-1,0980224609375E-09;-0,79864501953125;10;784;2,33321808278561E-07;-2,25987076759338E-07;100 nA
-0,750732421875;401,193205987085;4,3060302734375E-10;-0,74859619140625;10;785;2,33321808278561E-07;-2,25987076759338E-07;100 nA
-0,70068359375;401,693693985821;1,7523193359375E-09;-0,69854736328125;10;786;2,33321808278561E-07;-2,25987076759338E-07;100 nA
-0,650634765625;402,194181984557;3,0426025390625E-09;-0,64862060546875;10;787;2,33321808278561E-07;-2,25987076759338E-07;100 nA
-0,6005859375;402,694669983294;4,2938232421875E-09;-0,598602294921875;10;788;2,33321808278561E-07;-2,25987076759338E-07;100 nA
-0,550537109375;403,19515798203;5,2703857421875E-09;-0,548736572265625;10;789;2,33321808278561E-07;-2,25987076759338E-07;100 nA
-0,50048828125;403,695645980766;6,060791015625E-09;-0,49884033203125;10;790;2,33321808278561E-07;-2,25987076759338E-07;100 nA
-0,450439453125;404,196133979503;6,805419921875E-09;-0,448944091796875;10;791;2,33321808278561E-07;-2,25987076759338E-07;100 nA
-0,400390625;404,696621978239;7,53173828125E-09;-0,39910888671875;10;792;2,33321808278561E-07;-2,25987076759338E-07;100 nA
-0,350341796875;405,197109976976;8,2733154296875E-09;-0,3492431640625;10;793;2,33321808278561E-07;-2,25987076759338E-07;100 nA
-0,30029296875;405,697597975712;9,11865234375E-09;-0,29925537109375;10;794;2,33321808278561E-07;-2,25987076759338E-07;100 nA
-0,250244140625;406,198085974448;1,01959228515625E-08;-0,249359130859375;10;795;2,33321808278561E-07;-2,25987076759338E-07;100 nA
-0,2001953125;406,698573973185;1,15264892578125E-08;-0,199462890625;10;796;2,33321808278561E-07;-2,25987076759338E-07;100 nA
-0,150146484375;407,199061971921;1,2994384765625E-08;-0,149627685546875;10;797;2,33321808278561E-07;-2,25987076759338E-07;100 nA
-0,10009765625;407,699549970658;1,451416015625E-08;-0,099700927734375;10;798;2,33321808278561E-07;-2,25987076759338E-07;100 nA
-0,050048828125;408,200037969394;1,60552978515625E-08;-0,0498046875;10;799;2,33321808278561E-07;-2,25987076759338E-07;100 nA
0;408,70052596813;1,7724609375E-08;0,000112915039062494;10;800;2,33321808278561E-07;-2,25987076759338E-07;100 nA
