Potential applied (V);Time (s);WE(1).Current (A);WE(1).Potential (V);Scan;Index;Q+;Q-;Current range
0,050048828125;7,38451798135588;6,060791015625E-09;0,050140380859375;1;1;2,07422211766243E-07;-2,43118658661842E-07;100 nA
0,10009765625;7,88500598009227;9,1094970703125E-09;0,10009765625;1;2;2,07422211766243E-07;-2,43118658661842E-07;100 nA
0,150146484375;8,38549397882866;9,8419189453125E-09;0,150054931640625;1;3;2,07422211766243E-07;-2,43118658661842E-07;100 nA
0,2001953125;8,88598197756505;8,94775390625E-09;0,200103759765625;1;4;2,07422211766243E-07;-2,43118658661842E-07;100 nA
0,250244140625;9,38646997630144;1,00738525390625E-08;0,250091552734375;1;5;2,07422211766243E-07;-2,43118658661842E-07;100 nA
0,30029296875;9,88695797503783;1,1602783203125E-08;0,30010986328125;1;6;2,07422211766243E-07;-2,43118658661842E-07;100 nA
0,350341796875;10,3874459737742;1,2640380859375E-08;0,350128173828125;1;7;2,07422211766243E-07;-2,43118658661842E-07;100 nA
0,400390625;10,8879339725106;1,3421630859375E-08;0,400146484375;1;8;2,07422211766243E-07;-2,43118658661842E-07;100 nA
0,450439453125;11,388421971247;1,41143798828125E-08;0,4500732421875;1;9;2,07422211766243E-07;-2,43118658661842E-07;100 nA
0,50048828125;11,8889099699834;1,46759033203125E-08;0,5001220703125;1;10;2,07422211766243E-07;-2,43118658661842E-07;100 nA
0,550537109375;12,3893979687198;1,53900146484375E-08;0,550079345703125;1;11;2,07422211766243E-07;-2,43118658661842E-07;100 nA
0,6005859375;12,8898859674562;1,6363525390625E-08;0,60009765625;1;12;2,07422211766243E-07;-2,43118658661842E-07;100 nA
0,650634765625;13,3903739661926;1,756591796875E-08;0,650054931640625;1;13;2,07422211766243E-07;-2,43118658661842E-07;100 nA
0,70068359375;13,8908619649289;1,88568115234375E-08;0,699951171875;1;14;2,07422211766243E-07;-2,43118658661842E-07;100 nA
0,750732421875;14,3913499636653;1,9927978515625E-08;0,7498779296875;1;15;2,07422211766243E-07;-2,43118658661842E-07;100 nA
0,80078125;14,8918379624017;2,0654296875E-08;0,79986572265625;1;16;2,07422211766243E-07;-2,43118658661842E-07;100 nA
0,850830078125;15,3923259611381;2,10784912109375E-08;0,8502197265625;1;17;2,07422211766243E-07;-2,43118658661842E-07;100 nA
0,90087890625;15,8928139598745;2,12005615234375E-08;0,89996337890625;1;18;2,07422211766243E-07;-2,43118658661842E-07;100 nA
0,950927734375;16,3933019586109;2,108154296875E-08;0,94940185546875;1;19;2,07422211766243E-07;-2,43118658661842E-07;100 nA
1,0009765625;16,8937899573473;2,081298828125E-08;1,00006103515625;1;20;2,07422211766243E-07;-2,43118658661842E-07;100 nA
0,950927734375;17,3942779560837;1,32171630859375E-08;0,95001220703125;1;21;2,07422211766243E-07;-2,43118658661842E-07;100 nA
0,90087890625;17,8947659548201;8,3038330078125E-09;0,89996337890625;1;22;2,07422211766243E-07;-2,43118658661842E-07;100 nA
0,850830078125;18,3952539535564;4,620361328125E-09;0,85052490234375;1;23;2,07422211766243E-07;-2,43118658661842E-07;100 nA
0,80078125;18,8957419522928;2,0355224609375E-09;0,79986572265625;1;24;2,07422211766243E-07;-2,43118658661842E-07;100 nA
0,750732421875;19,3962299510292;-1,03149414062501E-10;0,749908447265625;1;25;2,07422211766243E-07;-2,43118658661842E-07;100 nA
0,70068359375;19,8967179497656;-1,9012451171875E-09;0,7000732421875;1;26;2,07422211766243E-07;-2,43118658661842E-07;100 nA
0,650634765625;20,397205948502;-3,5003662109375E-09;0,65020751953125;1;27;2,07422211766243E-07;-2,43118658661842E-07;100 nA
0,6005859375;20,8976939472384;-4,974365234375E-09;0,600128173828125;1;28;2,07422211766243E-07;-2,43118658661842E-07;100 nA
0,550537109375;21,3981819459748;-6,31103515625E-09;0,550201416015625;1;29;2,07422211766243E-07;-2,43118658661842E-07;100 nA
0,50048828125;21,8986699447112;-7,4859619140625E-09;0,500152587890625;1;30;2,07422211766243E-07;-2,43118658661842E-07;100 nA
0,450439453125;22,3991579434476;-8,599853515625E-09;0,450164794921875;1;31;2,07422211766243E-07;-2,43118658661842E-07;100 nA
0,400390625;22,899645942184;-9,70458984375E-09;0,40020751953125;1;32;2,07422211766243E-07;-2,43118658661842E-07;100 nA
0,350341796875;23,4001339409203;-1,08001708984375E-08;0,3502197265625;1;33;2,07422211766243E-07;-2,43118658661842E-07;100 nA
0,30029296875;23,9006219396567;-1,19781494140625E-08;0,3001708984375;1;34;2,07422211766243E-07;-2,43118658661842E-07;100 nA
0,250244140625;24,4011099383931;-1,34735107421875E-08;0,250213623046875;1;35;2,07422211766243E-07;-2,43118658661842E-07;100 nA
0,2001953125;24,9015979371295;-1,54296875E-08;0,20013427734375;1;36;2,07422211766243E-07;-2,43118658661842E-07;100 nA
0,150146484375;25,4020859358659;-1,707763671875E-08;0,150177001953125;1;37;2,07422211766243E-07;-2,43118658661842E-07;100 nA
0,10009765625;25,9025739346023;-1,81671142578125E-08;0,10015869140625;1;38;2,07422211766243E-07;-2,43118658661842E-07;100 nA
0,050048828125;26,4030619333387;-1,9866943359375E-08;0,050201416015625;1;39;2,07422211766243E-07;-2,43118658661842E-07;100 nA
0;26,9035499320751;-2,12860107421875E-08;0,000177001953125006;1;40;2,07422211766243E-07;-2,43118658661842E-07;100 nA
-0,050048828125;27,4040379308115;-2,17437744140625E-08;-0,0496917724609375;1;41;2,07422211766243E-07;-2,43118658661842E-07;100 nA
-0,10009765625;27,9045259295478;-2,18780517578125E-08;-0,099609375;1;42;2,07422211766243E-07;-2,43118658661842E-07;100 nA
-0,150146484375;28,4050139282842;-2,17559814453125E-08;-0,14947509765625;1;43;2,07422211766243E-07;-2,43118658661842E-07;100 nA
-0,2001953125;28,9055019270206;-2,17529296875E-08;-0,19940185546875;1;44;2,07422211766243E-07;-2,43118658661842E-07;100 nA
-0,250244140625;29,405989925757;-2,16400146484375E-08;-0,2493896484375;1;45;2,07422211766243E-07;-2,43118658661842E-07;100 nA
-0,30029296875;29,9064779244934;-1,8817138671875E-08;-0,29925537109375;1;46;2,07422211766243E-07;-2,43118658661842E-07;100 nA
-0,350341796875;30,4069659232298;-1,57623291015625E-08;-0,349212646484375;1;47;2,07422211766243E-07;-2,43118658661842E-07;100 nA
-0,400390625;30,9074539219662;-1,51123046875E-08;-0,399078369140625;1;48;2,07422211766243E-07;-2,43118658661842E-07;100 nA
-0,450439453125;31,4079419207026;-1,468505859375E-08;-0,448974609375;1;49;2,07422211766243E-07;-2,43118658661842E-07;100 nA
-0,50048828125;31,908429919439;-1,4129638671875E-08;-0,49884033203125;1;50;2,07422211766243E-07;-2,43118658661842E-07;100 nA
-0,550537109375;32,4089179181753;-1,3336181640625E-08;-0,548797607421875;1;51;2,07422211766243E-07;-2,43118658661842E-07;100 nA
-0,6005859375;32,9094059169117;-1,24725341796875E-08;-0,5986328125;1;52;2,07422211766243E-07;-2,43118658661842E-07;100 nA
-0,650634765625;33,4098939156481;-1,177978515625E-08;-0,648590087890625;1;53;2,07422211766243E-07;-2,43118658661842E-07;100 nA
-0,70068359375;33,9103819143845;-1,123046875E-08;-0,698577880859375;1;54;2,07422211766243E-07;-2,43118658661842E-07;100 nA
-0,750732421875;34,4108699131209;-1,07574462890625E-08;-0,748626708984375;1;55;2,07422211766243E-07;-2,43118658661842E-07;100 nA
-0,80078125;34,9113579118573;-1,03668212890625E-08;-0,79833984375;1;56;2,07422211766243E-07;-2,43118658661842E-07;100 nA
-0,850830078125;35,4118459105937;-1,0113525390625E-08;-0,84869384765625;1;57;2,07422211766243E-07;-2,43118658661842E-07;100 nA
-0,90087890625;35,9123339093301;-1,0003662109375E-08;-0,8984375;1;58;2,07422211766243E-07;-2,43118658661842E-07;100 nA
-0,950927734375;36,4128219080665;-1,002197265625E-08;-0,94879150390625;1;59;2,07422211766243E-07;-2,43118658661842E-07;100 nA
-1,0009765625;36,9133099068029;-1,0150146484375E-08;-0,99853515625;1;60;2,07422211766243E-07;-2,43118658661842E-07;100 nA
-0,950927734375;37,4137979055392;-6,365966796875E-09;-0,9490966796875;1;61;2,07422211766243E-07;-2,43118658661842E-07;100 nA
-0,90087890625;37,9142859042756;-4,364013671875E-09;-0,89874267578125;1;62;2,07422211766243E-07;-2,43118658661842E-07;100 nA
-0,850830078125;38,414773903012;-3,0364990234375E-09;-0,8489990234375;1;63;2,07422211766243E-07;-2,43118658661842E-07;100 nA
-0,80078125;38,9152619017484;-2,0501708984375E-09;-0,79864501953125;1;64;2,07422211766243E-07;-2,43118658661842E-07;100 nA
-0,750732421875;39,4157499004848;-1,239013671875E-09;-0,7486572265625;1;65;2,07422211766243E-07;-2,43118658661842E-07;100 nA
-0,70068359375;39,9162378992212;-5,37719726562499E-10;-0,69873046875;1;66;2,07422211766243E-07;-2,43118658661842E-07;100 nA
-0,650634765625;40,4167258979576;8,57543945312497E-11;-0,648681640625;1;67;2,07422211766243E-07;-2,43118658661842E-07;100 nA
-0,6005859375;40,917213896694;6,866455078125E-10;-0,598724365234375;1;68;2,07422211766243E-07;-2,43118658661842E-07;100 nA
-0,550537109375;41,4177018954304;1,30462646484375E-09;-0,548828125;1;69;2,07422211766243E-07;-2,43118658661842E-07;100 nA
-0,50048828125;41,9181898941667;2,0355224609375E-09;-0,498870849609375;1;70;2,07422211766243E-07;-2,43118658661842E-07;100 nA
-0,450439453125;42,4186778929031;2,8411865234375E-09;-0,449005126953125;1;71;2,07422211766243E-07;-2,43118658661842E-07;100 nA
-0,400390625;42,9191658916395;3,6529541015625E-09;-0,39910888671875;1;72;2,07422211766243E-07;-2,43118658661842E-07;100 nA
-0,350341796875;43,4196538903759;4,4891357421875E-09;-0,349212646484375;1;73;2,07422211766243E-07;-2,43118658661842E-07;100 nA
-0,30029296875;43,9201418891123;5,38330078125E-09;-0,29937744140625;1;74;2,07422211766243E-07;-2,43118658661842E-07;100 nA
-0,250244140625;44,4206298878487;6,3079833984375E-09;-0,249420166015625;1;75;2,07422211766243E-07;-2,43118658661842E-07;100 nA
-0,2001953125;44,9211178865851;7,4737548828125E-09;-0,199462890625;1;76;2,07422211766243E-07;-2,43118658661842E-07;100 nA
-0,150146484375;45,4216058853215;8,6944580078125E-09;-0,149658203125;1;77;2,07422211766243E-07;-2,43118658661842E-07;100 nA
-0,10009765625;45,9220938840579;1,0650634765625E-08;-0,099761962890625;1;78;2,07422211766243E-07;-2,43118658661842E-07;100 nA
-0,050048828125;46,4225818827942;1,31744384765625E-08;-0,049835205078125;1;79;2,07422211766243E-07;-2,43118658661842E-07;100 nA
0;46,9230698815306;1,60614013671875E-08;0,000119018554687503;1;80;2,07422211766243E-07;-2,43118658661842E-07;100 nA
0,050048828125;47,423557880267;1,97357177734375E-08;0,050048828125;2;81;2,58444279432297E-07;-2,41859953850508E-07;100 nA
0,10009765625;47,9240458790034;2,1209716796875E-08;0,0999755859375;2;82;2,58444279432297E-07;-2,41859953850508E-07;100 nA
0,150146484375;48,4245338777398;2,0599365234375E-08;0,1500244140625;2;83;2,58444279432297E-07;-2,41859953850508E-07;100 nA
0,2001953125;48,9250218764762;1,75750732421875E-08;0,200042724609375;2;84;2,58444279432297E-07;-2,41859953850508E-07;100 nA
0,250244140625;49,4255098752126;1,73614501953125E-08;0,25006103515625;2;85;2,58444279432297E-07;-2,41859953850508E-07;100 nA
0,30029296875;49,925997873949;1,79290771484375E-08;0,300079345703125;2;86;2,58444279432297E-07;-2,41859953850508E-07;100 nA
0,350341796875;50,4264858726854;1,87103271484375E-08;0,350067138671875;2;87;2,58444279432297E-07;-2,41859953850508E-07;100 nA
0,400390625;50,9269738714218;1,903076171875E-08;0,400115966796875;2;88;2,58444279432297E-07;-2,41859953850508E-07;100 nA
0,450439453125;51,4274618701581;1,8878173828125E-08;0,4500732421875;2;89;2,58444279432297E-07;-2,41859953850508E-07;100 nA
0,50048828125;51,9279498688945;1,864013671875E-08;0,50006103515625;2;90;2,58444279432297E-07;-2,41859953850508E-07;100 nA
0,550537109375;52,4284378676309;1,85394287109375E-08;0,55010986328125;2;91;2,58444279432297E-07;-2,41859953850508E-07;100 nA
0,6005859375;52,9289258663673;1,8841552734375E-08;0,600128173828125;2;92;2,58444279432297E-07;-2,41859953850508E-07;100 nA
0,650634765625;53,4294138651037;1,961669921875E-08;0,6500244140625;2;93;2,58444279432297E-07;-2,41859953850508E-07;100 nA
0,70068359375;53,9299018638401;2,0654296875E-08;0,699920654296875;2;94;2,58444279432297E-07;-2,41859953850508E-07;100 nA
0,750732421875;54,4303898625765;2,16278076171875E-08;0,74981689453125;2;95;2,58444279432297E-07;-2,41859953850508E-07;100 nA
0,80078125;54,9308778613129;2,22930908203125E-08;0,79986572265625;2;96;2,58444279432297E-07;-2,41859953850508E-07;100 nA
0,850830078125;55,4313658600493;2,26226806640625E-08;0,84991455078125;2;97;2,58444279432297E-07;-2,41859953850508E-07;100 nA
0,90087890625;55,9318538587856;2,26318359375E-08;0,899658203125;2;98;2,58444279432297E-07;-2,41859953850508E-07;100 nA
0,950927734375;56,432341857522;2,23480224609375E-08;0,94970703125;2;99;2,58444279432297E-07;-2,41859953850508E-07;100 nA
1,0009765625;56,9328298562584;2,1905517578125E-08;0,999755859375;2;100;2,58444279432297E-07;-2,41859953850508E-07;100 nA
0,950927734375;57,4333178549948;1,416015625E-08;0,95001220703125;2;101;2,58444279432297E-07;-2,41859953850508E-07;100 nA
0,90087890625;57,9338058537312;9,09423828125E-09;0,89935302734375;2;102;2,58444279432297E-07;-2,41859953850508E-07;100 nA
0,850830078125;58,4342938524676;5,3924560546875E-09;0,84991455078125;2;103;2,58444279432297E-07;-2,41859953850508E-07;100 nA
0,80078125;58,934781851204;2,5543212890625E-09;0,79986572265625;2;104;2,58444279432297E-07;-2,41859953850508E-07;100 nA
0,750732421875;59,4352698499404;3,0975341796875E-10;0,749908447265625;2;105;2,58444279432297E-07;-2,41859953850508E-07;100 nA
0,70068359375;59,9357578486768;-1,5399169921875E-09;0,7000732421875;2;106;2,58444279432297E-07;-2,41859953850508E-07;100 nA
0,650634765625;60,4362458474131;-3,1494140625E-09;0,650177001953125;2;107;2,58444279432297E-07;-2,41859953850508E-07;100 nA
0,6005859375;60,9367338461495;-4,638671875E-09;0,600128173828125;2;108;2,58444279432297E-07;-2,41859953850508E-07;100 nA
0,550537109375;61,4372218448859;-5,9783935546875E-09;0,550201416015625;2;109;2,58444279432297E-07;-2,41859953850508E-07;100 nA
0,50048828125;61,9377098436223;-7,1685791015625E-09;0,500213623046875;2;110;2,58444279432297E-07;-2,41859953850508E-07;100 nA
0,450439453125;62,4381978423587;-8,3038330078125E-09;0,450164794921875;2;111;2,58444279432297E-07;-2,41859953850508E-07;100 nA
0,400390625;62,9386858410951;-9,4329833984375E-09;0,40020751953125;2;112;2,58444279432297E-07;-2,41859953850508E-07;100 nA
0,350341796875;63,4391738398315;-1,05804443359375E-08;0,35015869140625;2;113;2,58444279432297E-07;-2,41859953850508E-07;100 nA
0,30029296875;63,9396618385679;-1,18072509765625E-08;0,300140380859375;2;114;2,58444279432297E-07;-2,41859953850508E-07;100 nA
0,250244140625;64,4401498373043;-1,33636474609375E-08;0,25018310546875;2;115;2,58444279432297E-07;-2,41859953850508E-07;100 nA
0,2001953125;64,9406378360407;-1,54205322265625E-08;0,20013427734375;2;116;2,58444279432297E-07;-2,41859953850508E-07;100 nA
0,150146484375;65,441125834777;-1,71173095703125E-08;0,150115966796875;2;117;2,58444279432297E-07;-2,41859953850508E-07;100 nA
0,10009765625;65,9416138335134;-1,85577392578125E-08;0,10015869140625;2;118;2,58444279432297E-07;-2,41859953850508E-07;100 nA
0,050048828125;66,4421018322498;-2,0501708984375E-08;0,050201416015625;2;119;2,58444279432297E-07;-2,41859953850508E-07;100 nA
0;66,9425898309862;-2,20611572265625E-08;0,000146484375000006;2;120;2,58444279432297E-07;-2,41859953850508E-07;100 nA
-0,050048828125;67,4430778297226;-2,25616455078125E-08;-0,04974365234375;2;121;2,58444279432297E-07;-2,41859953850508E-07;100 nA
-0,10009765625;67,943565828459;-2,26470947265625E-08;-0,099639892578125;2;122;2,58444279432297E-07;-2,41859953850508E-07;100 nA
-0,150146484375;68,4440538271954;-2,2705078125E-08;-0,1495361328125;2;123;2,58444279432297E-07;-2,41859953850508E-07;100 nA
-0,2001953125;68,9445418259318;-2,3004150390625E-08;-0,199432373046875;2;124;2,58444279432297E-07;-2,41859953850508E-07;100 nA
-0,250244140625;69,4450298246682;-2,23419189453125E-08;-0,249298095703125;2;125;2,58444279432297E-07;-2,41859953850508E-07;100 nA
-0,30029296875;69,9455178234045;-1,8865966796875E-08;-0,299224853515625;2;126;2,58444279432297E-07;-2,41859953850508E-07;100 nA
-0,350341796875;70,4460058221409;-1,590576171875E-08;-0,349151611328125;2;127;2,58444279432297E-07;-2,41859953850508E-07;100 nA
-0,400390625;70,9464938208773;-1,5216064453125E-08;-0,3990478515625;2;128;2,58444279432297E-07;-2,41859953850508E-07;100 nA
-0,450439453125;71,4469818196137;-1,46636962890625E-08;-0,448944091796875;2;129;2,58444279432297E-07;-2,41859953850508E-07;100 nA
-0,50048828125;71,9474698183501;-1,390380859375E-08;-0,498809814453125;2;130;2,58444279432297E-07;-2,41859953850508E-07;100 nA
-0,550537109375;72,4479578170865;-1,2969970703125E-08;-0,548858642578125;2;131;2,58444279432297E-07;-2,41859953850508E-07;100 nA
-0,6005859375;72,9484458158229;-1,214599609375E-08;-0,5986328125;2;132;2,58444279432297E-07;-2,41859953850508E-07;100 nA
-0,650634765625;73,4489338145593;-1,12274169921875E-08;-0,648590087890625;2;133;2,58444279432297E-07;-2,41859953850508E-07;100 nA
-0,70068359375;73,9494218132957;-1,06170654296875E-08;-0,698577880859375;2;134;2,58444279432297E-07;-2,41859953850508E-07;100 nA
-0,750732421875;74,449909812032;-1,01409912109375E-08;-0,748626708984375;2;135;2,58444279432297E-07;-2,41859953850508E-07;100 nA
-0,80078125;74,9503978107684;-9,7930908203125E-09;-0,79833984375;2;136;2,58444279432297E-07;-2,41859953850508E-07;100 nA
-0,850830078125;75,4508858095048;-9,5855712890625E-09;-0,84869384765625;2;137;2,58444279432297E-07;-2,41859953850508E-07;100 nA
-0,90087890625;75,9513738082412;-9,5062255859375E-09;-0,89874267578125;2;138;2,58444279432297E-07;-2,41859953850508E-07;100 nA
-0,950927734375;76,4518618069776;-9,5611572265625E-09;-0,9490966796875;2;139;2,58444279432297E-07;-2,41859953850508E-07;100 nA
-1,0009765625;76,952349805714;-9,710693359375E-09;-0,99853515625;2;140;2,58444279432297E-07;-2,41859953850508E-07;100 nA
-0,950927734375;77,4528378044504;-6,0638427734375E-09;-0,948486328125;2;141;2,58444279432297E-07;-2,41859953850508E-07;100 nA
-0,90087890625;77,9533258031868;-4,132080078125E-09;-0,89874267578125;2;142;2,58444279432297E-07;-2,41859953850508E-07;100 nA
-0,850830078125;78,4538138019232;-2,8472900390625E-09;-0,84869384765625;2;143;2,58444279432297E-07;-2,41859953850508E-07;100 nA
-0,80078125;78,9543018006596;-1,87957763671875E-09;-0,79833984375;2;144;2,58444279432297E-07;-2,41859953850508E-07;100 nA
-0,750732421875;79,4547897993959;-1,09039306640625E-09;-0,748626708984375;2;145;2,58444279432297E-07;-2,41859953850508E-07;100 nA
-0,70068359375;79,9552777981323;-5,3985595703125E-10;-0,6986083984375;2;146;2,58444279432297E-07;-2,41859953850508E-07;100 nA
-0,650634765625;80,4557657968687;2,12707519531249E-10;-0,648651123046875;2;147;2,58444279432297E-07;-2,41859953850508E-07;100 nA
-0,6005859375;80,9562537956051;8,0230712890625E-10;-0,59869384765625;2;148;2,58444279432297E-07;-2,41859953850508E-07;100 nA
-0,550537109375;81,4567417943415;1,4190673828125E-09;-0,548797607421875;2;149;2,58444279432297E-07;-2,41859953850508E-07;100 nA
-0,50048828125;81,9572297930779;2,13531494140625E-09;-0,498870849609375;2;150;2,58444279432297E-07;-2,41859953850508E-07;100 nA
-0,450439453125;82,4577177918143;2,9296875E-09;-0,44903564453125;2;151;2,58444279432297E-07;-2,41859953850508E-07;100 nA
-0,400390625;82,9582057905507;3,7261962890625E-09;-0,399139404296875;2;152;2,58444279432297E-07;-2,41859953850508E-07;100 nA
-0,350341796875;83,4586937892871;4,5623779296875E-09;-0,3492431640625;2;153;2,58444279432297E-07;-2,41859953850508E-07;100 nA
-0,30029296875;83,9591817880234;5,45654296875E-09;-0,29931640625;2;154;2,58444279432297E-07;-2,41859953850508E-07;100 nA
-0,250244140625;84,4596697867598;6,396484375E-09;-0,2493896484375;2;155;2,58444279432297E-07;-2,41859953850508E-07;100 nA
-0,2001953125;84,9601577854962;7,4432373046875E-09;-0,199493408203125;2;156;2,58444279432297E-07;-2,41859953850508E-07;100 nA
-0,150146484375;85,4606457842326;8,8165283203125E-09;-0,149566650390625;2;157;2,58444279432297E-07;-2,41859953850508E-07;100 nA
-0,10009765625;85,961133782969;1,0797119140625E-08;-0,09967041015625;2;158;2,58444279432297E-07;-2,41859953850508E-07;100 nA
-0,050048828125;86,4616217817054;1,3336181640625E-08;-0,04986572265625;2;159;2,58444279432297E-07;-2,41859953850508E-07;100 nA
0;86,9621097804418;1,60888671875E-08;0,000100708007812506;2;160;2,58444279432297E-07;-2,41859953850508E-07;100 nA
0,050048828125;87,4625977791782;1,993408203125E-08;0,050079345703125;3;161;2,60853704065084E-07;-2,42315873503685E-07;100 nA
0,10009765625;87,9630857779146;2,15179443359375E-08;0,100067138671875;3;162;2,60853704065084E-07;-2,42315873503685E-07;100 nA
0,150146484375;88,4635737766509;2,09228515625E-08;0,150054931640625;3;163;2,60853704065084E-07;-2,42315873503685E-07;100 nA
0,2001953125;88,9640617753873;1,787109375E-08;0,200042724609375;3;164;2,60853704065084E-07;-2,42315873503685E-07;100 nA
0,250244140625;89,4645497741237;1,76544189453125E-08;0,25006103515625;3;165;2,60853704065084E-07;-2,42315873503685E-07;100 nA
0,30029296875;89,9650377728601;1,81793212890625E-08;0,300048828125;3;166;2,60853704065084E-07;-2,42315873503685E-07;100 nA
0,350341796875;90,4655257715965;1,89697265625E-08;0,35003662109375;3;167;2,60853704065084E-07;-2,42315873503685E-07;100 nA
0,400390625;90,9660137703329;1,9305419921875E-08;0,40008544921875;3;168;2,60853704065084E-07;-2,42315873503685E-07;100 nA
0,450439453125;91,4665017690693;1,9146728515625E-08;0,450103759765625;3;169;2,60853704065084E-07;-2,42315873503685E-07;100 nA
0,50048828125;91,9669897678057;1,8853759765625E-08;0,500091552734375;3;170;2,60853704065084E-07;-2,42315873503685E-07;100 nA
0,550537109375;92,4674777665421;1,871337890625E-08;0,5501708984375;3;171;2,60853704065084E-07;-2,42315873503685E-07;100 nA
0,6005859375;92,9679657652785;1,89910888671875E-08;0,60003662109375;3;172;2,60853704065084E-07;-2,42315873503685E-07;100 nA
0,650634765625;93,4684537640148;1,9769287109375E-08;0,649993896484375;3;173;2,60853704065084E-07;-2,42315873503685E-07;100 nA
0,70068359375;93,9689417627512;2,07794189453125E-08;0,699951171875;3;174;2,60853704065084E-07;-2,42315873503685E-07;100 nA
0,750732421875;94,4694297614876;2,1734619140625E-08;0,7498779296875;3;175;2,60853704065084E-07;-2,42315873503685E-07;100 nA
0,80078125;94,969917760224;2,2393798828125E-08;0,80047607421875;3;176;2,60853704065084E-07;-2,42315873503685E-07;100 nA
0,850830078125;95,4704057589604;2,27294921875E-08;0,849609375;3;177;2,60853704065084E-07;-2,42315873503685E-07;100 nA
0,90087890625;95,9708937576968;2,271728515625E-08;0,89996337890625;3;178;2,60853704065084E-07;-2,42315873503685E-07;100 nA
0,950927734375;96,4713817564332;2,24273681640625E-08;0,9503173828125;3;179;2,60853704065084E-07;-2,42315873503685E-07;100 nA
1,0009765625;96,9718697551696;2,19696044921875E-08;0,99945068359375;3;180;2,60853704065084E-07;-2,42315873503685E-07;100 nA
0,950927734375;97,472357753906;1,42120361328125E-08;0,94970703125;3;181;2,60853704065084E-07;-2,42315873503685E-07;100 nA
0,90087890625;97,9728457526423;9,1461181640625E-09;0,9002685546875;3;182;2,60853704065084E-07;-2,42315873503685E-07;100 nA
0,850830078125;98,4733337513787;5,426025390625E-09;0,84991455078125;3;183;2,60853704065084E-07;-2,42315873503685E-07;100 nA
0,80078125;98,9738217501151;2,5787353515625E-09;0,79986572265625;3;184;2,60853704065084E-07;-2,42315873503685E-07;100 nA
0,750732421875;99,4743097488515;3,27453613281251E-10;0,749908447265625;3;185;2,60853704065084E-07;-2,42315873503685E-07;100 nA
0,70068359375;99,9747977475879;-1,5338134765625E-09;0,700103759765625;3;186;2,60853704065084E-07;-2,42315873503685E-07;100 nA
0,650634765625;100,475285746324;-3,1402587890625E-09;0,65020751953125;3;187;2,60853704065084E-07;-2,42315873503685E-07;100 nA
0,6005859375;100,975773745061;-4,6295166015625E-09;0,60015869140625;3;188;2,60853704065084E-07;-2,42315873503685E-07;100 nA
0,550537109375;101,476261743797;-5,9661865234375E-09;0,550201416015625;3;189;2,60853704065084E-07;-2,42315873503685E-07;100 nA
0,50048828125;101,976749742533;-7,1563720703125E-09;0,50018310546875;3;190;2,60853704065084E-07;-2,42315873503685E-07;100 nA
0,450439453125;102,47723774127;-8,2916259765625E-09;0,4501953125;3;191;2,60853704065084E-07;-2,42315873503685E-07;100 nA
0,400390625;102,977725740006;-9,4146728515625E-09;0,400177001953125;3;192;2,60853704065084E-07;-2,42315873503685E-07;100 nA
0,350341796875;103,478213738743;-1,05560302734375E-08;0,350189208984375;3;193;2,60853704065084E-07;-2,42315873503685E-07;100 nA
0,30029296875;103,978701737479;-1,17889404296875E-08;0,3001708984375;3;194;2,60853704065084E-07;-2,42315873503685E-07;100 nA
0,250244140625;104,479189736215;-1,33544921875E-08;0,250152587890625;3;195;2,60853704065084E-07;-2,42315873503685E-07;100 nA
0,2001953125;104,979677734952;-1,5411376953125E-08;0,20013427734375;3;196;2,60853704065084E-07;-2,42315873503685E-07;100 nA
0,150146484375;105,480165733688;-1,71356201171875E-08;0,150177001953125;3;197;2,60853704065084E-07;-2,42315873503685E-07;100 nA
0,10009765625;105,980653732425;-1,86126708984375E-08;0,100189208984375;3;198;2,60853704065084E-07;-2,42315873503685E-07;100 nA
0,050048828125;106,481141731161;-2,060546875E-08;0,0501708984375;3;199;2,60853704065084E-07;-2,42315873503685E-07;100 nA
0;106,981629729897;-2,21771240234375E-08;0,000177001953125006;3;200;2,60853704065084E-07;-2,42315873503685E-07;100 nA
-0,050048828125;107,482117728634;-2,2698974609375E-08;-0,049688720703125;3;201;2,60853704065084E-07;-2,42315873503685E-07;100 nA
-0,10009765625;107,98260572737;-2,28118896484375E-08;-0,099639892578125;3;202;2,60853704065084E-07;-2,42315873503685E-07;100 nA
-0,150146484375;108,483093726107;-2,29400634765625E-08;-0,1495361328125;3;203;2,60853704065084E-07;-2,42315873503685E-07;100 nA
-0,2001953125;108,983581724843;-2,32269287109375E-08;-0,199432373046875;3;204;2,60853704065084E-07;-2,42315873503685E-07;100 nA
-0,250244140625;109,484069723579;-2,2540283203125E-08;-0,249298095703125;3;205;2,60853704065084E-07;-2,42315873503685E-07;100 nA
-0,30029296875;109,984557722316;-1,9085693359375E-08;-0,299224853515625;3;206;2,60853704065084E-07;-2,42315873503685E-07;100 nA
-0,350341796875;110,485045721052;-1,61041259765625E-08;-0,349151611328125;3;207;2,60853704065084E-07;-2,42315873503685E-07;100 nA
-0,400390625;110,985533719788;-1,5362548828125E-08;-0,399078369140625;3;208;2,60853704065084E-07;-2,42315873503685E-07;100 nA
-0,450439453125;111,486021718525;-1,47491455078125E-08;-0,448944091796875;3;209;2,60853704065084E-07;-2,42315873503685E-07;100 nA
-0,50048828125;111,986509717261;-1,39617919921875E-08;-0,498870849609375;3;210;2,60853704065084E-07;-2,42315873503685E-07;100 nA
-0,550537109375;112,486997715998;-1,3018798828125E-08;-0,54876708984375;3;211;2,60853704065084E-07;-2,42315873503685E-07;100 nA
-0,6005859375;112,987485714734;-1,20330810546875E-08;-0,59869384765625;3;212;2,60853704065084E-07;-2,42315873503685E-07;100 nA
-0,650634765625;113,48797371347;-1,12213134765625E-08;-0,6485595703125;3;213;2,60853704065084E-07;-2,42315873503685E-07;100 nA
-0,70068359375;113,988461712207;-1,05865478515625E-08;-0,6986083984375;3;214;2,60853704065084E-07;-2,42315873503685E-07;100 nA
-0,750732421875;114,488949710943;-1,009521484375E-08;-0,748626708984375;3;215;2,60853704065084E-07;-2,42315873503685E-07;100 nA
-0,80078125;114,98943770968;-9,7442626953125E-09;-0,79864501953125;3;216;2,60853704065084E-07;-2,42315873503685E-07;100 nA
-0,850830078125;115,489925708416;-9,527587890625E-09;-0,84869384765625;3;217;2,60853704065084E-07;-2,42315873503685E-07;100 nA
-0,90087890625;115,990413707152;-9,4390869140625E-09;-0,89935302734375;3;218;2,60853704065084E-07;-2,42315873503685E-07;100 nA
-0,950927734375;116,490901705889;-9,466552734375E-09;-0,94879150390625;3;219;2,60853704065084E-07;-2,42315873503685E-07;100 nA
-1,0009765625;116,991389704625;-9,613037109375E-09;-0,9991455078125;3;220;2,60853704065084E-07;-2,42315873503685E-07;100 nA
-0,950927734375;117,491877703362;-5,9967041015625E-09;-0,94879150390625;3;221;2,60853704065084E-07;-2,42315873503685E-07;100 nA
-0,90087890625;117,992365702098;-4,0802001953125E-09;-0,8990478515625;3;222;2,60853704065084E-07;-2,42315873503685E-07;100 nA
-0,850830078125;118,492853700834;-2,8045654296875E-09;-0,848388671875;3;223;2,60853704065084E-07;-2,42315873503685E-07;100 nA
-0,80078125;118,993341699571;-1,83868408203125E-09;-0,79864501953125;3;224;2,60853704065084E-07;-2,42315873503685E-07;100 nA
-0,750732421875;119,493829698307;-1,06292724609375E-09;-0,748626708984375;3;225;2,60853704065084E-07;-2,42315873503685E-07;100 nA
-0,70068359375;119,994317697043;-3,74755859375001E-10;-0,698638916015625;3;226;2,60853704065084E-07;-2,42315873503685E-07;100 nA
-0,650634765625;120,49480569578;3,82080078124999E-10;-0,648712158203125;3;227;2,60853704065084E-07;-2,42315873503685E-07;100 nA
-0,6005859375;120,995293694516;8,3160400390625E-10;-0,59869384765625;3;228;2,60853704065084E-07;-2,42315873503685E-07;100 nA
-0,550537109375;121,495781693253;1,45050048828125E-09;-0,548828125;3;229;2,60853704065084E-07;-2,42315873503685E-07;100 nA
-0,50048828125;121,996269691989;2,154541015625E-09;-0,498931884765625;3;230;2,60853704065084E-07;-2,42315873503685E-07;100 nA
-0,450439453125;122,496757690725;2,9510498046875E-09;-0,449005126953125;3;231;2,60853704065084E-07;-2,42315873503685E-07;100 nA
-0,400390625;122,997245689462;3,7506103515625E-09;-0,399139404296875;3;232;2,60853704065084E-07;-2,42315873503685E-07;100 nA
-0,350341796875;123,497733688198;4,583740234375E-09;-0,3492431640625;3;233;2,60853704065084E-07;-2,42315873503685E-07;100 nA
-0,30029296875;123,998221686935;5,48095703125E-09;-0,299346923828125;3;234;2,60853704065084E-07;-2,42315873503685E-07;100 nA
-0,250244140625;124,498709685671;6,4361572265625E-09;-0,249420166015625;3;235;2,60853704065084E-07;-2,42315873503685E-07;100 nA
-0,2001953125;124,999197684407;7,489013671875E-09;-0,19952392578125;3;236;2,60853704065084E-07;-2,42315873503685E-07;100 nA
-0,150146484375;125,499685683144;8,87451171875E-09;-0,14959716796875;3;237;2,60853704065084E-07;-2,42315873503685E-07;100 nA
-0,10009765625;126,00017368188;1,0858154296875E-08;-0,099700927734375;3;238;2,60853704065084E-07;-2,42315873503685E-07;100 nA
-0,050048828125;126,500661680617;1,3397216796875E-08;-0,049774169921875;3;239;2,60853704065084E-07;-2,42315873503685E-07;100 nA
0;127,001149679353;1,62872314453125E-08;9,46044921874972E-05;3;240;2,60853704065084E-07;-2,42315873503685E-07;100 nA
0,050048828125;127,501637678089;2,015380859375E-08;0,050018310546875;4;241;2,61885594576597E-07;-2,42919184267521E-07;100 nA
0,10009765625;128,002125676826;2,16583251953125E-08;0,100006103515625;4;242;2,61885594576597E-07;-2,42919184267521E-07;100 nA
0,150146484375;128,502613675562;2,109375E-08;0,150054931640625;4;243;2,61885594576597E-07;-2,42919184267521E-07;100 nA
0,2001953125;129,003101674298;1,8017578125E-08;0,2000732421875;4;244;2,61885594576597E-07;-2,42919184267521E-07;100 nA
0,250244140625;129,503589673035;1,77703857421875E-08;0,250030517578125;4;245;2,61885594576597E-07;-2,42919184267521E-07;100 nA
0,30029296875;130,004077671771;1,8292236328125E-08;0,300048828125;4;246;2,61885594576597E-07;-2,42919184267521E-07;100 nA
0,350341796875;130,504565670508;1,90887451171875E-08;0,35003662109375;4;247;2,61885594576597E-07;-2,42919184267521E-07;100 nA
0,400390625;131,005053669244;1,942138671875E-08;0,40008544921875;4;248;2,61885594576597E-07;-2,42919184267521E-07;100 nA
0,450439453125;131,50554166798;1,9268798828125E-08;0,450042724609375;4;249;2,61885594576597E-07;-2,42919184267521E-07;100 nA
0,50048828125;132,006029666717;1,8951416015625E-08;0,500152587890625;4;250;2,61885594576597E-07;-2,42919184267521E-07;100 nA
0,550537109375;132,506517665453;1,87896728515625E-08;0,550079345703125;4;251;2,61885594576597E-07;-2,42919184267521E-07;100 nA
0,6005859375;133,00700566419;1,90673828125E-08;0,60009765625;4;252;2,61885594576597E-07;-2,42919184267521E-07;100 nA
0,650634765625;133,507493662926;1,98394775390625E-08;0,6500244140625;4;253;2,61885594576597E-07;-2,42919184267521E-07;100 nA
0,70068359375;134,007981661662;2,08404541015625E-08;0,699951171875;4;254;2,61885594576597E-07;-2,42919184267521E-07;100 nA
0,750732421875;134,508469660399;2,17864990234375E-08;0,7498779296875;4;255;2,61885594576597E-07;-2,42919184267521E-07;100 nA
0,80078125;135,008957659135;2,24609375E-08;0,8001708984375;4;256;2,61885594576597E-07;-2,42919184267521E-07;100 nA
0,850830078125;135,509445657872;2,27935791015625E-08;0,84991455078125;4;257;2,61885594576597E-07;-2,42919184267521E-07;100 nA
0,90087890625;136,009933656608;2,2772216796875E-08;0,89996337890625;4;258;2,61885594576597E-07;-2,42919184267521E-07;100 nA
0,950927734375;136,510421655344;2,24700927734375E-08;0,94970703125;4;259;2,61885594576597E-07;-2,42919184267521E-07;100 nA
1,0009765625;137,010909654081;2,1990966796875E-08;0,9991455078125;4;260;2,61885594576597E-07;-2,42919184267521E-07;100 nA
0,950927734375;137,511397652817;1,42364501953125E-08;0,95001220703125;4;261;2,61885594576597E-07;-2,42919184267521E-07;100 nA
0,90087890625;138,011885651553;9,1705322265625E-09;0,89996337890625;4;262;2,61885594576597E-07;-2,42919184267521E-07;100 nA
0,850830078125;138,51237365029;5,438232421875E-09;0,8502197265625;4;263;2,61885594576597E-07;-2,42919184267521E-07;100 nA
0,80078125;139,012861649026;2,5787353515625E-09;0,80047607421875;4;264;2,61885594576597E-07;-2,42919184267521E-07;100 nA
0,750732421875;139,513349647763;3,3233642578125E-10;0,7498779296875;4;265;2,61885594576597E-07;-2,42919184267521E-07;100 nA
0,70068359375;140,013837646499;-1,52862548828125E-09;0,7000732421875;4;266;2,61885594576597E-07;-2,42919184267521E-07;100 nA
0,650634765625;140,514325645235;-3,155517578125E-09;0,650177001953125;4;267;2,61885594576597E-07;-2,42919184267521E-07;100 nA
0,6005859375;141,014813643972;-4,644775390625E-09;0,600189208984375;4;268;2,61885594576597E-07;-2,42919184267521E-07;100 nA
0,550537109375;141,515301642708;-5,9844970703125E-09;0,5501708984375;4;269;2,61885594576597E-07;-2,42919184267521E-07;100 nA
0,50048828125;142,015789641445;-7,1685791015625E-09;0,500152587890625;4;270;2,61885594576597E-07;-2,42919184267521E-07;100 nA
0,450439453125;142,516277640181;-8,294677734375E-09;0,450164794921875;4;271;2,61885594576597E-07;-2,42919184267521E-07;100 nA
0,400390625;143,016765638917;-9,417724609375E-09;0,400146484375;4;272;2,61885594576597E-07;-2,42919184267521E-07;100 nA
0,350341796875;143,517253637654;-1,05560302734375E-08;0,350189208984375;4;273;2,61885594576597E-07;-2,42919184267521E-07;100 nA
0,30029296875;144,01774163639;-1,1785888671875E-08;0,300140380859375;4;274;2,61885594576597E-07;-2,42919184267521E-07;100 nA
0,250244140625;144,518229635127;-1,3348388671875E-08;0,25018310546875;4;275;2,61885594576597E-07;-2,42919184267521E-07;100 nA
0,2001953125;145,018717633863;-1,54052734375E-08;0,200103759765625;4;276;2,61885594576597E-07;-2,42919184267521E-07;100 nA
0,150146484375;145,519205632599;-1,71539306640625E-08;0,150146484375;4;277;2,61885594576597E-07;-2,42919184267521E-07;100 nA
0,10009765625;146,019693631336;-1,86370849609375E-08;0,100189208984375;4;278;2,61885594576597E-07;-2,42919184267521E-07;100 nA
0,050048828125;146,520181630072;-2,0648193359375E-08;0,050140380859375;4;279;2,61885594576597E-07;-2,42919184267521E-07;100 nA
0;147,020669628808;-2,222900390625E-08;0,000192260742187506;4;280;2,61885594576597E-07;-2,42919184267521E-07;100 nA
-0,050048828125;147,521157627545;-2,2760009765625E-08;-0,0496856689453125;4;281;2,61885594576597E-07;-2,42919184267521E-07;100 nA
-0,10009765625;148,021645626281;-2,28973388671875E-08;-0,099639892578125;4;282;2,61885594576597E-07;-2,42919184267521E-07;100 nA
-0,150146484375;148,522133625018;-2,30743408203125E-08;-0,1495361328125;4;283;2,61885594576597E-07;-2,42919184267521E-07;100 nA
-0,2001953125;149,022621623754;-2,33612060546875E-08;-0,19940185546875;4;284;2,61885594576597E-07;-2,42919184267521E-07;100 nA
-0,250244140625;149,52310962249;-2,2674560546875E-08;-0,249359130859375;4;285;2,61885594576597E-07;-2,42919184267521E-07;100 nA
-0,30029296875;150,023597621227;-1,920166015625E-08;-0,299224853515625;4;286;2,61885594576597E-07;-2,42919184267521E-07;100 nA
-0,350341796875;150,524085619963;-1,61956787109375E-08;-0,349151611328125;4;287;2,61885594576597E-07;-2,42919184267521E-07;100 nA
-0,400390625;151,0245736187;-1,54541015625E-08;-0,399078369140625;4;288;2,61885594576597E-07;-2,42919184267521E-07;100 nA
-0,450439453125;151,525061617436;-1,4849853515625E-08;-0,449005126953125;4;289;2,61885594576597E-07;-2,42919184267521E-07;100 nA
-0,50048828125;152,025549616172;-1,4031982421875E-08;-0,498870849609375;4;290;2,61885594576597E-07;-2,42919184267521E-07;100 nA
-0,550537109375;152,526037614909;-1,30584716796875E-08;-0,548736572265625;4;291;2,61885594576597E-07;-2,42919184267521E-07;100 nA
-0,6005859375;153,026525613645;-1,2060546875E-08;-0,59869384765625;4;292;2,61885594576597E-07;-2,42919184267521E-07;100 nA
-0,650634765625;153,527013612382;-1,12396240234375E-08;-0,648590087890625;4;293;2,61885594576597E-07;-2,42919184267521E-07;100 nA
-0,70068359375;154,027501611118;-1,0589599609375E-08;-0,6986083984375;4;294;2,61885594576597E-07;-2,42919184267521E-07;100 nA
-0,750732421875;154,527989609854;-1,009521484375E-08;-0,748626708984375;4;295;2,61885594576597E-07;-2,42919184267521E-07;100 nA
-0,80078125;155,028477608591;-9,7320556640625E-09;-0,79864501953125;4;296;2,61885594576597E-07;-2,42919184267521E-07;100 nA
-0,850830078125;155,528965607327;-9,637451171875E-09;-0,8489990234375;4;297;2,61885594576597E-07;-2,42919184267521E-07;100 nA
-0,90087890625;156,029453606064;-9,417724609375E-09;-0,8990478515625;4;298;2,61885594576597E-07;-2,42919184267521E-07;100 nA
-0,950927734375;156,5299416048;-9,429931640625E-09;-0,94879150390625;4;299;2,61885594576597E-07;-2,42919184267521E-07;100 nA
-1,0009765625;157,030429603536;-9,564208984375E-09;-0,9991455078125;4;300;2,61885594576597E-07;-2,42919184267521E-07;100 nA
-0,950927734375;157,530917602273;-5,975341796875E-09;-0,9490966796875;4;301;2,61885594576597E-07;-2,42919184267521E-07;100 nA
-0,90087890625;158,031405601009;-4,0618896484375E-09;-0,89874267578125;4;302;2,61885594576597E-07;-2,42919184267521E-07;100 nA
-0,850830078125;158,531893599745;-2,7862548828125E-09;-0,8489990234375;4;303;2,61885594576597E-07;-2,42919184267521E-07;100 nA
-0,80078125;159,032381598482;-1,832275390625E-09;-0,79833984375;4;304;2,61885594576597E-07;-2,42919184267521E-07;100 nA
-0,750732421875;159,532869597218;-1,05316162109375E-09;-0,7486572265625;4;305;2,61885594576597E-07;-2,42919184267521E-07;100 nA
-0,70068359375;160,033357595955;-3,71704101562501E-10;-0,698638916015625;4;306;2,61885594576597E-07;-2,42919184267521E-07;100 nA
-0,650634765625;160,533845594691;2,490234375E-10;-0,648681640625;4;307;2,61885594576597E-07;-2,42919184267521E-07;100 nA
-0,6005859375;161,034333593427;8,49609375E-10;-0,59869384765625;4;308;2,61885594576597E-07;-2,42919184267521E-07;100 nA
-0,550537109375;161,534821592164;1,4617919921875E-09;-0,548797607421875;4;309;2,61885594576597E-07;-2,42919184267521E-07;100 nA
-0,50048828125;162,0353095909;2,1697998046875E-09;-0,49896240234375;4;310;2,61885594576597E-07;-2,42919184267521E-07;100 nA
-0,450439453125;162,535797589637;2,8228759765625E-09;-0,44903564453125;4;311;2,61885594576597E-07;-2,42919184267521E-07;100 nA
-0,400390625;163,036285588373;3,7567138671875E-09;-0,39910888671875;4;312;2,61885594576597E-07;-2,42919184267521E-07;100 nA
-0,350341796875;163,536773587109;4,6051025390625E-09;-0,349273681640625;4;313;2,61885594576597E-07;-2,42919184267521E-07;100 nA
-0,30029296875;164,037261585846;5,511474609375E-09;-0,299285888671875;4;314;2,61885594576597E-07;-2,42919184267521E-07;100 nA
-0,250244140625;164,537749584582;6,4544677734375E-09;-0,249420166015625;4;315;2,61885594576597E-07;-2,42919184267521E-07;100 nA
-0,2001953125;165,038237583319;7,5164794921875E-09;-0,199493408203125;4;316;2,61885594576597E-07;-2,42919184267521E-07;100 nA
-0,150146484375;165,538725582055;8,9111328125E-09;-0,149627685546875;4;317;2,61885594576597E-07;-2,42919184267521E-07;100 nA
-0,10009765625;166,039213580791;1,08978271484375E-08;-0,099700927734375;4;318;2,61885594576597E-07;-2,42919184267521E-07;100 nA
-0,050048828125;166,539701579528;1,34368896484375E-08;-0,049835205078125;4;319;2,61885594576597E-07;-2,42919184267521E-07;100 nA
0;167,040189578264;1,63330078125E-08;9,46044921874972E-05;4;320;2,61885594576597E-07;-2,42919184267521E-07;100 nA
0,050048828125;167,540677577;2,0068359375E-08;0,050079345703125;5;321;2,62593682855368E-07;-2,43085820227861E-07;100 nA
0,10009765625;168,041165575737;2,1759033203125E-08;0,100067138671875;5;322;2,62593682855368E-07;-2,43085820227861E-07;100 nA
0,150146484375;168,541653574473;2,1197509765625E-08;0,149993896484375;5;323;2,62593682855368E-07;-2,43085820227861E-07;100 nA
0,2001953125;169,04214157321;1,8109130859375E-08;0,200042724609375;5;324;2,62593682855368E-07;-2,43085820227861E-07;100 nA
0,250244140625;169,542629571946;1,78466796875E-08;0,250030517578125;5;325;2,62593682855368E-07;-2,43085820227861E-07;100 nA
0,30029296875;170,043117570682;1,83624267578125E-08;0,300079345703125;5;326;2,62593682855368E-07;-2,43085820227861E-07;100 nA
0,350341796875;170,543605569419;1,915283203125E-08;0,350128173828125;5;327;2,62593682855368E-07;-2,43085820227861E-07;100 nA
0,400390625;171,044093568155;1,95068359375E-08;0,400115966796875;5;328;2,62593682855368E-07;-2,43085820227861E-07;100 nA
0,450439453125;171,544581566892;1,9342041015625E-08;0,450103759765625;5;329;2,62593682855368E-07;-2,43085820227861E-07;100 nA
0,50048828125;172,045069565628;1,90155029296875E-08;0,50006103515625;5;330;2,62593682855368E-07;-2,43085820227861E-07;100 nA
0,550537109375;172,545557564364;1,88323974609375E-08;0,55010986328125;5;331;2,62593682855368E-07;-2,43085820227861E-07;100 nA
0,6005859375;173,046045563101;1,91009521484375E-08;0,60009765625;5;332;2,62593682855368E-07;-2,43085820227861E-07;100 nA
0,650634765625;173,546533561837;1,9879150390625E-08;0,6500244140625;5;333;2,62593682855368E-07;-2,43085820227861E-07;100 nA
0,70068359375;174,047021560574;2,08892822265625E-08;0,699951171875;5;334;2,62593682855368E-07;-2,43085820227861E-07;100 nA
0,750732421875;174,54750955931;2,18231201171875E-08;0,74981689453125;5;335;2,62593682855368E-07;-2,43085820227861E-07;100 nA
0,80078125;175,047997558046;2,25006103515625E-08;0,79986572265625;5;336;2,62593682855368E-07;-2,43085820227861E-07;100 nA
0,850830078125;175,548485556783;2,28271484375E-08;0,85052490234375;5;337;2,62593682855368E-07;-2,43085820227861E-07;100 nA
0,90087890625;176,048973555519;2,27996826171875E-08;0,89935302734375;5;338;2,62593682855368E-07;-2,43085820227861E-07;100 nA
0,950927734375;176,549461554255;2,24822998046875E-08;0,94970703125;5;339;2,62593682855368E-07;-2,43085820227861E-07;100 nA
1,0009765625;177,049949552992;2,20001220703125E-08;0,999755859375;5;340;2,62593682855368E-07;-2,43085820227861E-07;100 nA
0,950927734375;177,550437551728;1,42364501953125E-08;0,94970703125;5;341;2,62593682855368E-07;-2,43085820227861E-07;100 nA
0,90087890625;178,050925550465;9,173583984375E-09;0,89996337890625;5;342;2,62593682855368E-07;-2,43085820227861E-07;100 nA
0,850830078125;178,551413549201;5,4443359375E-09;0,849609375;5;343;2,62593682855368E-07;-2,43085820227861E-07;100 nA
0,80078125;179,051901547937;2,5848388671875E-09;0,79986572265625;5;344;2,62593682855368E-07;-2,43085820227861E-07;100 nA
0,750732421875;179,552389546674;3,30200195312499E-10;0,74993896484375;5;345;2,62593682855368E-07;-2,43085820227861E-07;100 nA
0,70068359375;180,05287754541;-1,5380859375E-09;0,700103759765625;5;346;2,62593682855368E-07;-2,43085820227861E-07;100 nA
0,650634765625;180,553365544147;-3,1585693359375E-09;0,650177001953125;5;347;2,62593682855368E-07;-2,43085820227861E-07;100 nA
0,6005859375;181,053853542883;-4,644775390625E-09;0,6002197265625;5;348;2,62593682855368E-07;-2,43085820227861E-07;100 nA
0,550537109375;181,554341541619;-5,9844970703125E-09;0,550140380859375;5;349;2,62593682855368E-07;-2,43085820227861E-07;100 nA
0,50048828125;182,054829540356;-7,183837890625E-09;0,50018310546875;5;350;2,62593682855368E-07;-2,43085820227861E-07;100 nA
0,450439453125;182,555317539092;-8,30078125E-09;0,4501953125;5;351;2,62593682855368E-07;-2,43085820227861E-07;100 nA
0,400390625;183,055805537829;-9,4146728515625E-09;0,400177001953125;5;352;2,62593682855368E-07;-2,43085820227861E-07;100 nA
0,350341796875;183,556293536565;-1,05438232421875E-08;0,35015869140625;5;353;2,62593682855368E-07;-2,43085820227861E-07;100 nA
0,30029296875;184,056781535301;-1,17706298828125E-08;0,300201416015625;5;354;2,62593682855368E-07;-2,43085820227861E-07;100 nA
0,250244140625;184,557269534038;-1,33270263671875E-08;0,25018310546875;5;355;2,62593682855368E-07;-2,43085820227861E-07;100 nA
0,2001953125;185,057757532774;-1,53961181640625E-08;0,200164794921875;5;356;2,62593682855368E-07;-2,43085820227861E-07;100 nA
0,150146484375;185,55824553151;-1,71539306640625E-08;0,150115966796875;5;357;2,62593682855368E-07;-2,43085820227861E-07;100 nA
0,10009765625;186,058733530247;-1,86431884765625E-08;0,10015869140625;5;358;2,62593682855368E-07;-2,43085820227861E-07;100 nA
0,050048828125;186,559221528983;-2,0672607421875E-08;0,0501708984375;5;359;2,62593682855368E-07;-2,43085820227861E-07;100 nA
0;187,05970952772;-2,22625732421875E-08;0,000170898437499997;5;360;2,62593682855368E-07;-2,43085820227861E-07;100 nA
-0,050048828125;187,560197526456;-2,2808837890625E-08;-0,049713134765625;5;361;2,62593682855368E-07;-2,43085820227861E-07;100 nA
-0,10009765625;188,060685525192;-2,29827880859375E-08;-0,09967041015625;5;362;2,62593682855368E-07;-2,43085820227861E-07;100 nA
-0,150146484375;188,561173523929;-2,3187255859375E-08;-0,1495361328125;5;363;2,62593682855368E-07;-2,43085820227861E-07;100 nA
-0,2001953125;189,061661522665;-2,333984375E-08;-0,199432373046875;5;364;2,62593682855368E-07;-2,43085820227861E-07;100 nA
-0,250244140625;189,562149521402;-2,27813720703125E-08;-0,249298095703125;5;365;2,62593682855368E-07;-2,43085820227861E-07;100 nA
-0,30029296875;190,062637520138;-1,9268798828125E-08;-0,299224853515625;5;366;2,62593682855368E-07;-2,43085820227861E-07;100 nA
-0,350341796875;190,563125518874;-1,6278076171875E-08;-0,34918212890625;5;367;2,62593682855368E-07;-2,43085820227861E-07;100 nA
-0,400390625;191,063613517611;-1,5509033203125E-08;-0,399078369140625;5;368;2,62593682855368E-07;-2,43085820227861E-07;100 nA
-0,450439453125;191,564101516347;-1,488037109375E-08;-0,448944091796875;5;369;2,62593682855368E-07;-2,43085820227861E-07;100 nA
-0,50048828125;192,064589515084;-1,40625E-08;-0,49884033203125;5;370;2,62593682855368E-07;-2,43085820227861E-07;100 nA
-0,550537109375;192,56507751382;-1,309814453125E-08;-0,54876708984375;5;371;2,62593682855368E-07;-2,43085820227861E-07;100 nA
-0,6005859375;193,065565512556;-1,209716796875E-08;-0,598663330078125;5;372;2,62593682855368E-07;-2,43085820227861E-07;100 nA
-0,650634765625;193,566053511293;-1,12640380859375E-08;-0,64862060546875;5;373;2,62593682855368E-07;-2,43085820227861E-07;100 nA
-0,70068359375;194,066541510029;-1,06048583984375E-08;-0,6986083984375;5;374;2,62593682855368E-07;-2,43085820227861E-07;100 nA
-0,750732421875;194,567029508765;-1,0101318359375E-08;-0,74859619140625;5;375;2,62593682855368E-07;-2,43085820227861E-07;100 nA
-0,80078125;195,067517507502;-9,7320556640625E-09;-0,79864501953125;5;376;2,62593682855368E-07;-2,43085820227861E-07;100 nA
-0,850830078125;195,568005506238;-9,4940185546875E-09;-0,84869384765625;5;377;2,62593682855368E-07;-2,43085820227861E-07;100 nA
-0,90087890625;196,068493504975;-9,2620849609375E-09;-0,89874267578125;5;378;2,62593682855368E-07;-2,43085820227861E-07;100 nA
-0,950927734375;196,568981503711;-9,4024658203125E-09;-0,948486328125;5;379;2,62593682855368E-07;-2,43085820227861E-07;100 nA
-1,0009765625;197,069469502447;-9,527587890625E-09;-0,9991455078125;5;380;2,62593682855368E-07;-2,43085820227861E-07;100 nA
-0,950927734375;197,569957501184;-5,950927734375E-09;-0,9490966796875;5;381;2,62593682855368E-07;-2,43085820227861E-07;100 nA
-0,90087890625;198,07044549992;-4,052734375E-09;-0,89874267578125;5;382;2,62593682855368E-07;-2,43085820227861E-07;100 nA
-0,850830078125;198,570933498657;-2,777099609375E-09;-0,8489990234375;5;383;2,62593682855368E-07;-2,43085820227861E-07;100 nA
-0,80078125;199,071421497393;-1,826171875E-09;-0,79833984375;5;384;2,62593682855368E-07;-2,43085820227861E-07;100 nA
-0,750732421875;199,571909496129;-1,048583984375E-09;-0,748687744140625;5;385;2,62593682855368E-07;-2,43085820227861E-07;100 nA
-0,70068359375;200,072397494866;-3,64074707031251E-10;-0,698699951171875;5;386;2,62593682855368E-07;-2,43085820227861E-07;100 nA
-0,650634765625;200,572885493602;2,52685546875001E-10;-0,648651123046875;5;387;2,62593682855368E-07;-2,43085820227861E-07;100 nA
-0,6005859375;201,073373492339;8,5235595703125E-10;-0,598663330078125;5;388;2,62593682855368E-07;-2,43085820227861E-07;100 nA
-0,550537109375;201,573861491075;1,46484375E-09;-0,548828125;5;389;2,62593682855368E-07;-2,43085820227861E-07;100 nA
-0,50048828125;202,074349489811;2,188720703125E-09;-0,4989013671875;5;390;2,62593682855368E-07;-2,43085820227861E-07;100 nA
-0,450439453125;202,574837488548;2,96630859375E-09;-0,44903564453125;5;391;2,62593682855368E-07;-2,43085820227861E-07;100 nA
-0,400390625;203,075325487284;3,77197265625E-09;-0,39910888671875;5;392;2,62593682855368E-07;-2,43085820227861E-07;100 nA
-0,350341796875;203,57581348602;4,620361328125E-09;-0,349212646484375;5;393;2,62593682855368E-07;-2,43085820227861E-07;100 nA
-0,30029296875;204,076301484757;5,5267333984375E-09;-0,299346923828125;5;394;2,62593682855368E-07;-2,43085820227861E-07;100 nA
-0,250244140625;204,576789483493;6,4849853515625E-09;-0,2493896484375;5;395;2,62593682855368E-07;-2,43085820227861E-07;100 nA
-0,2001953125;205,07727748223;7,550048828125E-09;-0,19952392578125;5;396;2,62593682855368E-07;-2,43085820227861E-07;100 nA
-0,150146484375;205,577765480966;8,941650390625E-09;-0,149627685546875;5;397;2,62593682855368E-07;-2,43085820227861E-07;100 nA
-0,10009765625;206,078253479702;1,09344482421875E-08;-0,099761962890625;5;398;2,62593682855368E-07;-2,43085820227861E-07;100 nA
-0,050048828125;206,578741478439;1,34857177734375E-08;-0,04986572265625;5;399;2,62593682855368E-07;-2,43085820227861E-07;100 nA
0;207,079229477175;1,636962890625E-08;0,0001220703125;5;400;2,62593682855368E-07;-2,43085820227861E-07;100 nA
0,050048828125;207,579717475912;2,010498046875E-08;0,050018310546875;6;401;2,63116043061018E-07;-2,43714485317469E-07;100 nA
0,10009765625;208,080205474648;2,1844482421875E-08;0,100067138671875;6;402;2,63116043061018E-07;-2,43714485317469E-07;100 nA
0,150146484375;208,580693473384;2,12982177734375E-08;0,1500244140625;6;403;2,63116043061018E-07;-2,43714485317469E-07;100 nA
0,2001953125;209,081181472121;1,8194580078125E-08;0,2000732421875;6;404;2,63116043061018E-07;-2,43714485317469E-07;100 nA
0,250244140625;209,581669470857;1,79290771484375E-08;0,250030517578125;6;405;2,63116043061018E-07;-2,43714485317469E-07;100 nA
0,30029296875;210,082157469594;1,8426513671875E-08;0,300079345703125;6;406;2,63116043061018E-07;-2,43714485317469E-07;100 nA
0,350341796875;210,58264546833;1,9195556640625E-08;0,350067138671875;6;407;2,63116043061018E-07;-2,43714485317469E-07;100 nA
0,400390625;211,083133467066;1,95770263671875E-08;0,40008544921875;6;408;2,63116043061018E-07;-2,43714485317469E-07;100 nA
0,450439453125;211,583621465803;1,94000244140625E-08;0,450103759765625;6;409;2,63116043061018E-07;-2,43714485317469E-07;100 nA
0,50048828125;212,084109464539;1,9061279296875E-08;0,50006103515625;6;410;2,63116043061018E-07;-2,43714485317469E-07;100 nA
0,550537109375;212,584597463275;1,885986328125E-08;0,550140380859375;6;411;2,63116043061018E-07;-2,43714485317469E-07;100 nA
0,6005859375;213,085085462012;1,912841796875E-08;0,60009765625;6;412;2,63116043061018E-07;-2,43714485317469E-07;100 nA
0,650634765625;213,585573460748;1,98974609375E-08;0,6500244140625;6;413;2,63116043061018E-07;-2,43714485317469E-07;100 nA
0,70068359375;214,086061459485;2,0904541015625E-08;0,699951171875;6;414;2,63116043061018E-07;-2,43714485317469E-07;100 nA
0,750732421875;214,586549458221;2,18475341796875E-08;0,749908447265625;6;415;2,63116043061018E-07;-2,43714485317469E-07;100 nA
0,80078125;215,087037456957;2,25189208984375E-08;0,79986572265625;6;416;2,63116043061018E-07;-2,43714485317469E-07;100 nA
0,850830078125;215,587525455694;2,28485107421875E-08;0,849609375;6;417;2,63116043061018E-07;-2,43714485317469E-07;100 nA
0,90087890625;216,08801345443;2,2821044921875E-08;0,899658203125;6;418;2,63116043061018E-07;-2,43714485317469E-07;100 nA
0,950927734375;216,588501453167;2,24945068359375E-08;0,94940185546875;6;419;2,63116043061018E-07;-2,43714485317469E-07;100 nA
1,0009765625;217,088989451903;2,200927734375E-08;0,999755859375;6;420;2,63116043061018E-07;-2,43714485317469E-07;100 nA
0,950927734375;217,589477450639;1,42333984375E-08;0,94970703125;6;421;2,63116043061018E-07;-2,43714485317469E-07;100 nA
0,90087890625;218,089965449376;9,161376953125E-09;0,89996337890625;6;422;2,63116043061018E-07;-2,43714485317469E-07;100 nA
0,850830078125;218,590453448112;5,450439453125E-09;0,849609375;6;423;2,63116043061018E-07;-2,43714485317469E-07;100 nA
0,80078125;219,090941446849;2,5848388671875E-09;0,79986572265625;6;424;2,63116043061018E-07;-2,43714485317469E-07;100 nA
0,750732421875;219,591429445585;3,326416015625E-10;0,749908447265625;6;425;2,63116043061018E-07;-2,43714485317469E-07;100 nA
0,70068359375;220,091917444321;-1,53717041015625E-09;0,70013427734375;6;426;2,63116043061018E-07;-2,43714485317469E-07;100 nA
0,650634765625;220,592405443058;-3,1585693359375E-09;0,650177001953125;6;427;2,63116043061018E-07;-2,43714485317469E-07;100 nA
0,6005859375;221,092893441794;-4,6539306640625E-09;0,60015869140625;6;428;2,63116043061018E-07;-2,43714485317469E-07;100 nA
0,550537109375;221,59338144053;-5,987548828125E-09;0,5501708984375;6;429;2,63116043061018E-07;-2,43714485317469E-07;100 nA
0,50048828125;222,093869439267;-7,171630859375E-09;0,500213623046875;6;430;2,63116043061018E-07;-2,43714485317469E-07;100 nA
0,450439453125;222,594357438003;-8,3038330078125E-09;0,4501953125;6;431;2,63116043061018E-07;-2,43714485317469E-07;100 nA
0,400390625;223,09484543674;-9,4146728515625E-09;0,40020751953125;6;432;2,63116043061018E-07;-2,43714485317469E-07;100 nA
0,350341796875;223,595333435476;-1,05377197265625E-08;0,3502197265625;6;433;2,63116043061018E-07;-2,43714485317469E-07;100 nA
0,30029296875;224,095821434212;-1,1883544921875E-08;0,300140380859375;6;434;2,63116043061018E-07;-2,43714485317469E-07;100 nA
0,250244140625;224,596309432949;-1,3311767578125E-08;0,25018310546875;6;435;2,63116043061018E-07;-2,43714485317469E-07;100 nA
0,2001953125;225,096797431685;-1,53839111328125E-08;0,2001953125;6;436;2,63116043061018E-07;-2,43714485317469E-07;100 nA
0,150146484375;225,597285430422;-1,7138671875E-08;0,150177001953125;6;437;2,63116043061018E-07;-2,43714485317469E-07;100 nA
0,10009765625;226,097773429158;-1,86492919921875E-08;0,100128173828125;6;438;2,63116043061018E-07;-2,43714485317469E-07;100 nA
0,050048828125;226,598261427894;-2,06939697265625E-08;0,050201416015625;6;439;2,63116043061018E-07;-2,43714485317469E-07;100 nA
0;227,098749426631;-2,2271728515625E-08;0,000161743164062506;6;440;2,63116043061018E-07;-2,43714485317469E-07;100 nA
-0,050048828125;227,599237425367;-2,2845458984375E-08;-0,0496978759765625;6;441;2,63116043061018E-07;-2,43714485317469E-07;100 nA
-0,10009765625;228,099725424104;-2,30438232421875E-08;-0,09967041015625;6;442;2,63116043061018E-07;-2,43714485317469E-07;100 nA
-0,150146484375;228,60021342284;-2,3248291015625E-08;-0,149505615234375;6;443;2,63116043061018E-07;-2,43714485317469E-07;100 nA
-0,2001953125;229,100701421576;-2,3553466796875E-08;-0,19940185546875;6;444;2,63116043061018E-07;-2,43714485317469E-07;100 nA
-0,250244140625;229,601189420313;-2,28546142578125E-08;-0,24932861328125;6;445;2,63116043061018E-07;-2,43714485317469E-07;100 nA
-0,30029296875;230,101677419049;-1,934814453125E-08;-0,29925537109375;6;446;2,63116043061018E-07;-2,43714485317469E-07;100 nA
-0,350341796875;230,602165417786;-1,63726806640625E-08;-0,3492431640625;6;447;2,63116043061018E-07;-2,43714485317469E-07;100 nA
-0,400390625;231,102653416522;-1,57135009765625E-08;-0,399017333984375;6;448;2,63116043061018E-07;-2,43714485317469E-07;100 nA
-0,450439453125;231,603141415258;-1,49322509765625E-08;-0,448944091796875;6;449;2,63116043061018E-07;-2,43714485317469E-07;100 nA
-0,50048828125;232,103629413995;-1,4111328125E-08;-0,498809814453125;6;450;2,63116043061018E-07;-2,43714485317469E-07;100 nA
-0,550537109375;232,604117412731;-1,3140869140625E-08;-0,548797607421875;6;451;2,63116043061018E-07;-2,43714485317469E-07;100 nA
-0,6005859375;233,104605411467;-1,21368408203125E-08;-0,5986328125;6;452;2,63116043061018E-07;-2,43714485317469E-07;100 nA
-0,650634765625;233,605093410204;-1,12945556640625E-08;-0,64862060546875;6;453;2,63116043061018E-07;-2,43714485317469E-07;100 nA
-0,70068359375;234,10558140894;-1,063232421875E-08;-0,698638916015625;6;454;2,63116043061018E-07;-2,43714485317469E-07;100 nA
-0,750732421875;234,606069407677;-1,01104736328125E-08;-0,74859619140625;6;455;2,63116043061018E-07;-2,43714485317469E-07;100 nA
-0,80078125;235,106557406413;-9,7412109375E-09;-0,7989501953125;6;456;2,63116043061018E-07;-2,43714485317469E-07;100 nA
-0,850830078125;235,607045405149;-9,5001220703125E-09;-0,848388671875;6;457;2,63116043061018E-07;-2,43714485317469E-07;100 nA
-0,90087890625;236,107533403886;-9,3902587890625E-09;-0,8990478515625;6;458;2,63116043061018E-07;-2,43714485317469E-07;100 nA
-0,950927734375;236,608021402622;-9,38720703125E-09;-0,9490966796875;6;459;2,63116043061018E-07;-2,43714485317469E-07;100 nA
-1,0009765625;237,108509401359;-9,4970703125E-09;-0,99884033203125;6;460;2,63116043061018E-07;-2,43714485317469E-07;100 nA
-0,950927734375;237,608997400095;-5,94482421875E-09;-0,94879150390625;6;461;2,63116043061018E-07;-2,43714485317469E-07;100 nA
-0,90087890625;238,109485398831;-4,052734375E-09;-0,89874267578125;6;462;2,63116043061018E-07;-2,43714485317469E-07;100 nA
-0,850830078125;238,609973397568;-2,7801513671875E-09;-0,8489990234375;6;463;2,63116043061018E-07;-2,43714485317469E-07;100 nA
-0,80078125;239,110461396304;-1,822509765625E-09;-0,7989501953125;6;464;2,63116043061018E-07;-2,43714485317469E-07;100 nA
-0,750732421875;239,610949395041;-1,0382080078125E-09;-0,748626708984375;6;465;2,63116043061018E-07;-2,43714485317469E-07;100 nA
-0,70068359375;240,111437393777;-3,62548828125001E-10;-0,698638916015625;6;466;2,63116043061018E-07;-2,43714485317469E-07;100 nA
-0,650634765625;240,611925392513;2,64892578125001E-10;-0,648681640625;6;467;2,63116043061018E-07;-2,43714485317469E-07;100 nA
-0,6005859375;241,11241339125;8,636474609375E-10;-0,59869384765625;6;468;2,63116043061018E-07;-2,43714485317469E-07;100 nA
-0,550537109375;241,612901389986;1,47613525390625E-09;-0,548828125;6;469;2,63116043061018E-07;-2,43714485317469E-07;100 nA
-0,50048828125;242,113389388722;2,1881103515625E-09;-0,498931884765625;6;470;2,63116043061018E-07;-2,43714485317469E-07;100 nA
-0,450439453125;242,613877387459;2,978515625E-09;-0,449005126953125;6;471;2,63116043061018E-07;-2,43714485317469E-07;100 nA
-0,400390625;243,114365386195;3,7841796875E-09;-0,399078369140625;6;472;2,63116043061018E-07;-2,43714485317469E-07;100 nA
-0,350341796875;243,614853384932;4,62646484375E-09;-0,3492431640625;6;473;2,63116043061018E-07;-2,43714485317469E-07;100 nA
-0,30029296875;244,115341383668;5,5450439453125E-09;-0,29925537109375;6;474;2,63116043061018E-07;-2,43714485317469E-07;100 nA
-0,250244140625;244,615829382404;6,5032958984375E-09;-0,249359130859375;6;475;2,63116043061018E-07;-2,43714485317469E-07;100 nA
-0,2001953125;245,116317381141;7,562255859375E-09;-0,199493408203125;6;476;2,63116043061018E-07;-2,43714485317469E-07;100 nA
-0,150146484375;245,616805379877;8,9630126953125E-09;-0,149566650390625;6;477;2,63116043061018E-07;-2,43714485317469E-07;100 nA
-0,10009765625;246,117293378614;1,094970703125E-08;-0,099761962890625;6;478;2,63116043061018E-07;-2,43714485317469E-07;100 nA
-0,050048828125;246,61778137735;1,35009765625E-08;-0,0499267578125;6;479;2,63116043061018E-07;-2,43714485317469E-07;100 nA
0;247,118269376086;1,6387939453125E-08;0,000109863281249997;6;480;2,63116043061018E-07;-2,43714485317469E-07;100 nA
0,050048828125;247,618757374823;2,012939453125E-08;0,050048828125;7;481;2,63512395322323E-07;-2,43727773427963E-07;100 nA
0,10009765625;248,119245373559;2,18994140625E-08;0,10009765625;7;482;2,63512395322323E-07;-2,43727773427963E-07;100 nA
0,150146484375;248,619733372296;2,13653564453125E-08;0,150054931640625;7;483;2,63512395322323E-07;-2,43727773427963E-07;100 nA
0,2001953125;249,120221371032;1,82342529296875E-08;0,2000732421875;7;484;2,63512395322323E-07;-2,43727773427963E-07;100 nA
0,250244140625;249,620709369768;1,79779052734375E-08;0,25;7;485;2,63512395322323E-07;-2,43727773427963E-07;100 nA
0,30029296875;250,121197368505;1,84722900390625E-08;0,300018310546875;7;486;2,63512395322323E-07;-2,43727773427963E-07;100 nA
0,350341796875;250,621685367241;1,92230224609375E-08;0,35009765625;7;487;2,63512395322323E-07;-2,43727773427963E-07;100 nA
0,400390625;251,122173365977;1,9610595703125E-08;0,40008544921875;7;488;2,63512395322323E-07;-2,43727773427963E-07;100 nA
0,450439453125;251,622661364714;1,944580078125E-08;0,4500732421875;7;489;2,63512395322323E-07;-2,43727773427963E-07;100 nA
0,50048828125;252,12314936345;1,90948486328125E-08;0,5001220703125;7;490;2,63512395322323E-07;-2,43727773427963E-07;100 nA
0,550537109375;252,623637362187;1,88873291015625E-08;0,5501708984375;7;491;2,63512395322323E-07;-2,43727773427963E-07;100 nA
0,6005859375;253,124125360923;1,91558837890625E-08;0,60015869140625;7;492;2,63512395322323E-07;-2,43727773427963E-07;100 nA
0,650634765625;253,624613359659;1,99432373046875E-08;0,650054931640625;7;493;2,63512395322323E-07;-2,43727773427963E-07;100 nA
0,70068359375;254,125101358396;2,0941162109375E-08;0,69989013671875;7;494;2,63512395322323E-07;-2,43727773427963E-07;100 nA
0,750732421875;254,625589357132;2,18780517578125E-08;0,749847412109375;7;495;2,63512395322323E-07;-2,43727773427963E-07;100 nA
0,80078125;255,126077355869;2,25433349609375E-08;0,799560546875;7;496;2,63512395322323E-07;-2,43727773427963E-07;100 nA
0,850830078125;255,626565354605;2,286376953125E-08;0,85052490234375;7;497;2,63512395322323E-07;-2,43727773427963E-07;100 nA
0,90087890625;256,127053353341;2,283935546875E-08;0,89935302734375;7;498;2,63512395322323E-07;-2,43727773427963E-07;100 nA
0,950927734375;256,627541352078;2,25189208984375E-08;0,94970703125;7;499;2,63512395322323E-07;-2,43727773427963E-07;100 nA
1,0009765625;257,128029350814;2,200927734375E-08;1,00006103515625;7;500;2,63512395322323E-07;-2,43727773427963E-07;100 nA
0,950927734375;257,628517349551;1,4373779296875E-08;0,94940185546875;7;501;2,63512395322323E-07;-2,43727773427963E-07;100 nA
0,90087890625;258,129005348287;9,16748046875E-09;0,90057373046875;7;502;2,63512395322323E-07;-2,43727773427963E-07;100 nA
0,850830078125;258,629493347023;5,4443359375E-09;0,85052490234375;7;503;2,63512395322323E-07;-2,43727773427963E-07;100 nA
0,80078125;259,12998134576;2,5848388671875E-09;0,79986572265625;7;504;2,63512395322323E-07;-2,43727773427963E-07;100 nA
0,750732421875;259,630469344496;3,3111572265625E-10;0,749908447265625;7;505;2,63512395322323E-07;-2,43727773427963E-07;100 nA
0,70068359375;260,130957343232;-1,541748046875E-09;0,7000732421875;7;506;2,63512395322323E-07;-2,43727773427963E-07;100 nA
0,650634765625;260,631445341969;-3,16162109375E-09;0,650238037109375;7;507;2,63512395322323E-07;-2,43727773427963E-07;100 nA
0,6005859375;261,131933340705;-4,6600341796875E-09;0,600189208984375;7;508;2,63512395322323E-07;-2,43727773427963E-07;100 nA
0,550537109375;261,632421339442;-5,9967041015625E-09;0,550140380859375;7;509;2,63512395322323E-07;-2,43727773427963E-07;100 nA
0,50048828125;262,132909338178;-7,183837890625E-09;0,500152587890625;7;510;2,63512395322323E-07;-2,43727773427963E-07;100 nA
0,450439453125;262,633397336914;-8,2977294921875E-09;0,45013427734375;7;511;2,63512395322323E-07;-2,43727773427963E-07;100 nA
0,400390625;263,133885335651;-9,4085693359375E-09;0,40020751953125;7;512;2,63512395322323E-07;-2,43727773427963E-07;100 nA
0,350341796875;263,634373334387;-1,05316162109375E-08;0,3502197265625;7;513;2,63512395322323E-07;-2,43727773427963E-07;100 nA
0,30029296875;264,134861333124;-1,17462158203125E-08;0,300201416015625;7;514;2,63512395322323E-07;-2,43727773427963E-07;100 nA
0,250244140625;264,63534933186;-1,31622314453125E-08;0,250152587890625;7;515;2,63512395322323E-07;-2,43727773427963E-07;100 nA
0,2001953125;265,135837330596;-1,5362548828125E-08;0,20013427734375;7;516;2,63512395322323E-07;-2,43727773427963E-07;100 nA
0,150146484375;265,636325329333;-1,71234130859375E-08;0,150177001953125;7;517;2,63512395322323E-07;-2,43727773427963E-07;100 nA
0,10009765625;266,136813328069;-1,8646240234375E-08;0,100189208984375;7;518;2,63512395322323E-07;-2,43727773427963E-07;100 nA
0,050048828125;266,637301326806;-2,07000732421875E-08;0,050201416015625;7;519;2,63512395322323E-07;-2,43727773427963E-07;100 nA
0;267,137789325542;-2,22747802734375E-08;0,000173950195312494;7;520;2,63512395322323E-07;-2,43727773427963E-07;100 nA
-0,050048828125;267,638277324278;-2,28759765625E-08;-0,0497039794921875;7;521;2,63512395322323E-07;-2,43727773427963E-07;100 nA
-0,10009765625;268,138765323015;-2,30987548828125E-08;-0,099639892578125;7;522;2,63512395322323E-07;-2,43727773427963E-07;100 nA
-0,150146484375;268,639253321751;-2,33245849609375E-08;-0,14947509765625;7;523;2,63512395322323E-07;-2,43727773427963E-07;100 nA
-0,2001953125;269,139741320487;-2,36328125E-08;-0,199432373046875;7;524;2,63512395322323E-07;-2,43727773427963E-07;100 nA
-0,250244140625;269,640229319224;-2,29248046875E-08;-0,249298095703125;7;525;2,63512395322323E-07;-2,43727773427963E-07;100 nA
-0,30029296875;270,14071731796;-1,939697265625E-08;-0,299224853515625;7;526;2,63512395322323E-07;-2,43727773427963E-07;100 nA
-0,350341796875;270,641205316697;-1,6424560546875E-08;-0,349151611328125;7;527;2,63512395322323E-07;-2,43727773427963E-07;100 nA
-0,400390625;271,141693315433;-1,5625E-08;-0,399017333984375;7;528;2,63512395322323E-07;-2,43727773427963E-07;100 nA
-0,450439453125;271,642181314169;-1,49658203125E-08;-0,449005126953125;7;529;2,63512395322323E-07;-2,43727773427963E-07;100 nA
-0,50048828125;272,142669312906;-1,4141845703125E-08;-0,498870849609375;7;530;2,63512395322323E-07;-2,43727773427963E-07;100 nA
-0,550537109375;272,643157311642;-1,31591796875E-08;-0,54876708984375;7;531;2,63512395322323E-07;-2,43727773427963E-07;100 nA
-0,6005859375;273,143645310379;-1,214599609375E-08;-0,598663330078125;7;532;2,63512395322323E-07;-2,43727773427963E-07;100 nA
-0,650634765625;273,644133309115;-1,13006591796875E-08;-0,64862060546875;7;533;2,63512395322323E-07;-2,43727773427963E-07;100 nA
-0,70068359375;274,144621307851;-1,06353759765625E-08;-0,698638916015625;7;534;2,63512395322323E-07;-2,43727773427963E-07;100 nA
-0,750732421875;274,645109306588;-1,01226806640625E-08;-0,74859619140625;7;535;2,63512395322323E-07;-2,43727773427963E-07;100 nA
-0,80078125;275,145597305324;-9,7442626953125E-09;-0,79864501953125;7;536;2,63512395322323E-07;-2,43727773427963E-07;100 nA
-0,850830078125;275,646085304061;-9,4970703125E-09;-0,84869384765625;7;537;2,63512395322323E-07;-2,43727773427963E-07;100 nA
-0,90087890625;276,146573302797;-9,3780517578125E-09;-0,8984375;7;538;2,63512395322323E-07;-2,43727773427963E-07;100 nA
-0,950927734375;276,647061301533;-9,3658447265625E-09;-0,94940185546875;7;539;2,63512395322323E-07;-2,43727773427963E-07;100 nA
-1,0009765625;277,14754930027;-9,4757080078125E-09;-0,99884033203125;7;540;2,63512395322323E-07;-2,43727773427963E-07;100 nA
-0,950927734375;277,648037299006;-5,9234619140625E-09;-0,948486328125;7;541;2,63512395322323E-07;-2,43727773427963E-07;100 nA
-0,90087890625;278,148525297742;-4,0374755859375E-09;-0,8984375;7;542;2,63512395322323E-07;-2,43727773427963E-07;100 nA
-0,850830078125;278,649013296479;-2,7740478515625E-09;-0,84869384765625;7;543;2,63512395322323E-07;-2,43727773427963E-07;100 nA
-0,80078125;279,149501295215;-1,81549072265625E-09;-0,79833984375;7;544;2,63512395322323E-07;-2,43727773427963E-07;100 nA
-0,750732421875;279,649989293952;-1,0357666015625E-09;-0,748687744140625;7;545;2,63512395322323E-07;-2,43727773427963E-07;100 nA
-0,70068359375;280,150477292688;-3,6041259765625E-10;-0,69866943359375;7;546;2,63512395322323E-07;-2,43727773427963E-07;100 nA
-0,650634765625;280,650965291424;2,6702880859375E-10;-0,64862060546875;7;547;2,63512395322323E-07;-2,43727773427963E-07;100 nA
-0,6005859375;281,151453290161;8,6181640625E-10;-0,598724365234375;7;548;2,63512395322323E-07;-2,43727773427963E-07;100 nA
-0,550537109375;281,651941288897;1,484375E-09;-0,548858642578125;7;549;2,63512395322323E-07;-2,43727773427963E-07;100 nA
-0,50048828125;282,152429287634;2,200927734375E-09;-0,498870849609375;7;550;2,63512395322323E-07;-2,43727773427963E-07;100 nA
-0,450439453125;282,65291728637;2,9815673828125E-09;-0,448974609375;7;551;2,63512395322323E-07;-2,43727773427963E-07;100 nA
-0,400390625;283,153405285106;3,7841796875E-09;-0,39910888671875;7;552;2,63512395322323E-07;-2,43727773427963E-07;100 nA
-0,350341796875;283,653893283843;4,6356201171875E-09;-0,349273681640625;7;553;2,63512395322323E-07;-2,43727773427963E-07;100 nA
-0,30029296875;284,154381282579;5,6121826171875E-09;-0,29931640625;7;554;2,63512395322323E-07;-2,43727773427963E-07;100 nA
-0,250244140625;284,654869281316;6,4849853515625E-09;-0,2493896484375;7;555;2,63512395322323E-07;-2,43727773427963E-07;100 nA
-0,2001953125;285,155357280052;7,55615234375E-09;-0,199493408203125;7;556;2,63512395322323E-07;-2,43727773427963E-07;100 nA
-0,150146484375;285,655845278788;8,795166015625E-09;-0,149658203125;7;557;2,63512395322323E-07;-2,43727773427963E-07;100 nA
-0,10009765625;286,156333277525;1,09649658203125E-08;-0,09979248046875;7;558;2,63512395322323E-07;-2,43727773427963E-07;100 nA
-0,050048828125;286,656821276261;1,356201171875E-08;-0,04986572265625;7;559;2,63512395322323E-07;-2,43727773427963E-07;100 nA
0;287,157309274997;1,63848876953125E-08;0,000109863281249997;7;560;2,63512395322323E-07;-2,43727773427963E-07;100 nA
0,050048828125;287,657797273734;2,01019287109375E-08;0,050018310546875;8;561;2,63976104557514E-07;-2,44120765477419E-07;100 nA
0,10009765625;288,15828527247;2,19451904296875E-08;0,100006103515625;8;562;2,63976104557514E-07;-2,44120765477419E-07;100 nA
0,150146484375;288,658773271207;2,144775390625E-08;0,149993896484375;8;563;2,63976104557514E-07;-2,44120765477419E-07;100 nA
0,2001953125;289,159261269943;1,8310546875E-08;0,20001220703125;8;564;2,63976104557514E-07;-2,44120765477419E-07;100 nA
0,250244140625;289,659749268679;1,8023681640625E-08;0,250091552734375;8;565;2,63976104557514E-07;-2,44120765477419E-07;100 nA
0,30029296875;290,160237267416;1,85150146484375E-08;0,300048828125;8;566;2,63976104557514E-07;-2,44120765477419E-07;100 nA
0,350341796875;290,660725266152;1,92352294921875E-08;0,35009765625;8;567;2,63976104557514E-07;-2,44120765477419E-07;100 nA
0,400390625;291,161213264889;1,96624755859375E-08;0,400115966796875;8;568;2,63976104557514E-07;-2,44120765477419E-07;100 nA
0,450439453125;291,661701263625;1,95037841796875E-08;0,4500732421875;8;569;2,63976104557514E-07;-2,44120765477419E-07;100 nA
0,50048828125;292,162189262361;1,91436767578125E-08;0,500091552734375;8;570;2,63976104557514E-07;-2,44120765477419E-07;100 nA
0,550537109375;292,662677261098;1,89056396484375E-08;0,550079345703125;8;571;2,63976104557514E-07;-2,44120765477419E-07;100 nA
0,6005859375;293,163165259834;1,917724609375E-08;0,600128173828125;8;572;2,63976104557514E-07;-2,44120765477419E-07;100 nA
0,650634765625;293,663653258571;1,9952392578125E-08;0,65008544921875;8;573;2,63976104557514E-07;-2,44120765477419E-07;100 nA
0,70068359375;294,164141257307;2,095947265625E-08;0,70001220703125;8;574;2,63976104557514E-07;-2,44120765477419E-07;100 nA
0,750732421875;294,664629256043;2,188720703125E-08;0,749908447265625;8;575;2,63976104557514E-07;-2,44120765477419E-07;100 nA
0,80078125;295,16511725478;2,255859375E-08;0,79986572265625;8;576;2,63976104557514E-07;-2,44120765477419E-07;100 nA
0,850830078125;295,665605253516;2,288818359375E-08;0,84991455078125;8;577;2,63976104557514E-07;-2,44120765477419E-07;100 nA
0,90087890625;296,166093252252;2,28515625E-08;0,89996337890625;8;578;2,63976104557514E-07;-2,44120765477419E-07;100 nA
0,950927734375;296,666581250989;2,2515869140625E-08;0,94970703125;8;579;2,63976104557514E-07;-2,44120765477419E-07;100 nA
1,0009765625;297,167069249725;2,2015380859375E-08;0,99945068359375;8;580;2,63976104557514E-07;-2,44120765477419E-07;100 nA
0,950927734375;297,667557248462;1,42364501953125E-08;0,94970703125;8;581;2,63976104557514E-07;-2,44120765477419E-07;100 nA
0,90087890625;298,168045247198;9,3017578125E-09;0,899658203125;8;582;2,63976104557514E-07;-2,44120765477419E-07;100 nA
0,850830078125;298,668533245934;5,4473876953125E-09;0,8502197265625;8;583;2,63976104557514E-07;-2,44120765477419E-07;100 nA
0,80078125;299,169021244671;2,5848388671875E-09;0,8001708984375;8;584;2,63976104557514E-07;-2,44120765477419E-07;100 nA
0,750732421875;299,669509243407;3,33251953124999E-10;0,7498779296875;8;585;2,63976104557514E-07;-2,44120765477419E-07;100 nA
0,70068359375;300,169997242144;-1,5435791015625E-09;0,700042724609375;8;586;2,63976104557514E-07;-2,44120765477419E-07;100 nA
0,650634765625;300,67048524088;-3,167724609375E-09;0,65020751953125;8;587;2,63976104557514E-07;-2,44120765477419E-07;100 nA
0,6005859375;301,170973239616;-4,6661376953125E-09;0,600128173828125;8;588;2,63976104557514E-07;-2,44120765477419E-07;100 nA
0,550537109375;301,671461238353;-6,005859375E-09;0,55010986328125;8;589;2,63976104557514E-07;-2,44120765477419E-07;100 nA
0,50048828125;302,171949237089;-7,1868896484375E-09;0,500152587890625;8;590;2,63976104557514E-07;-2,44120765477419E-07;100 nA
0,450439453125;302,672437235826;-8,2977294921875E-09;0,45013427734375;8;591;2,63976104557514E-07;-2,44120765477419E-07;100 nA
0,400390625;303,172925234562;-9,4024658203125E-09;0,40020751953125;8;592;2,63976104557514E-07;-2,44120765477419E-07;100 nA
0,350341796875;303,673413233298;-1,0516357421875E-08;0,350189208984375;8;593;2,63976104557514E-07;-2,44120765477419E-07;100 nA
0,30029296875;304,173901232035;-1,173095703125E-08;0,3001708984375;8;594;2,63976104557514E-07;-2,44120765477419E-07;100 nA
0,250244140625;304,674389230771;-1,32720947265625E-08;0,250152587890625;8;595;2,63976104557514E-07;-2,44120765477419E-07;100 nA
0,2001953125;305,174877229508;-1,534423828125E-08;0,20013427734375;8;596;2,63976104557514E-07;-2,44120765477419E-07;100 nA
0,150146484375;305,675365228244;-1,71142578125E-08;0,150146484375;8;597;2,63976104557514E-07;-2,44120765477419E-07;100 nA
0,10009765625;306,17585322698;-1,865234375E-08;0,100189208984375;8;598;2,63976104557514E-07;-2,44120765477419E-07;100 nA
0,050048828125;306,676341225717;-2,071533203125E-08;0,050140380859375;8;599;2,63976104557514E-07;-2,44120765477419E-07;100 nA
0;307,176829224453;-2,22869873046875E-08;0,000177001953125006;8;600;2,63976104557514E-07;-2,44120765477419E-07;100 nA
-0,050048828125;307,677317223189;-2,28973388671875E-08;-0,04970703125;8;601;2,63976104557514E-07;-2,44120765477419E-07;100 nA
-0,10009765625;308,177805221926;-2,3138427734375E-08;-0,099609375;8;602;2,63976104557514E-07;-2,44120765477419E-07;100 nA
-0,150146484375;308,678293220662;-2,33917236328125E-08;-0,149566650390625;8;603;2,63976104557514E-07;-2,44120765477419E-07;100 nA
-0,2001953125;309,178781219399;-2,37335205078125E-08;-0,199432373046875;8;604;2,63976104557514E-07;-2,44120765477419E-07;100 nA
-0,250244140625;309,679269218135;-2,301025390625E-08;-0,249359130859375;8;605;2,63976104557514E-07;-2,44120765477419E-07;100 nA
-0,30029296875;310,179757216871;-1,94915771484375E-08;-0,29925537109375;8;606;2,63976104557514E-07;-2,44120765477419E-07;100 nA
-0,350341796875;310,680245215608;-1,6461181640625E-08;-0,34918212890625;8;607;2,63976104557514E-07;-2,44120765477419E-07;100 nA
-0,400390625;311,180733214344;-1,566162109375E-08;-0,399017333984375;8;608;2,63976104557514E-07;-2,44120765477419E-07;100 nA
-0,450439453125;311,681221213081;-1,4996337890625E-08;-0,448944091796875;8;609;2,63976104557514E-07;-2,44120765477419E-07;100 nA
-0,50048828125;312,181709211817;-1,42913818359375E-08;-0,49884033203125;8;610;2,63976104557514E-07;-2,44120765477419E-07;100 nA
-0,550537109375;312,682197210553;-1,31927490234375E-08;-0,548797607421875;8;611;2,63976104557514E-07;-2,44120765477419E-07;100 nA
-0,6005859375;313,18268520929;-1,21795654296875E-08;-0,598663330078125;8;612;2,63976104557514E-07;-2,44120765477419E-07;100 nA
-0,650634765625;313,683173208026;-1,13311767578125E-08;-0,648529052734375;8;613;2,63976104557514E-07;-2,44120765477419E-07;100 nA
-0,70068359375;314,183661206763;-1,065673828125E-08;-0,6986083984375;8;614;2,63976104557514E-07;-2,44120765477419E-07;100 nA
-0,750732421875;314,684149205499;-1,01226806640625E-08;-0,748626708984375;8;615;2,63976104557514E-07;-2,44120765477419E-07;100 nA
-0,80078125;315,184637204235;-9,735107421875E-09;-0,79833984375;8;616;2,63976104557514E-07;-2,44120765477419E-07;100 nA
-0,850830078125;315,685125202972;-9,4879150390625E-09;-0,84869384765625;8;617;2,63976104557514E-07;-2,44120765477419E-07;100 nA
-0,90087890625;316,185613201708;-9,36279296875E-09;-0,8984375;8;618;2,63976104557514E-07;-2,44120765477419E-07;100 nA
-0,950927734375;316,686101200444;-9,3597412109375E-09;-0,94879150390625;8;619;2,63976104557514E-07;-2,44120765477419E-07;100 nA
-1,0009765625;317,186589199181;-9,4482421875E-09;-0,9991455078125;8;620;2,63976104557514E-07;-2,44120765477419E-07;100 nA
-0,950927734375;317,687077197917;-5,914306640625E-09;-0,94879150390625;8;621;2,63976104557514E-07;-2,44120765477419E-07;100 nA
-0,90087890625;318,187565196654;-4,0313720703125E-09;-0,8984375;8;622;2,63976104557514E-07;-2,44120765477419E-07;100 nA
-0,850830078125;318,68805319539;-2,7587890625E-09;-0,848388671875;8;623;2,63976104557514E-07;-2,44120765477419E-07;100 nA
-0,80078125;319,188541194126;-1,8212890625E-09;-0,79833984375;8;624;2,63976104557514E-07;-2,44120765477419E-07;100 nA
-0,750732421875;319,689029192863;-1,03363037109375E-09;-0,748626708984375;8;625;2,63976104557514E-07;-2,44120765477419E-07;100 nA
-0,70068359375;320,189517191599;-3,52783203125E-10;-0,6986083984375;8;626;2,63976104557514E-07;-2,44120765477419E-07;100 nA
-0,650634765625;320,690005190336;2,734375E-10;-0,648681640625;8;627;2,63976104557514E-07;-2,44120765477419E-07;100 nA
-0,6005859375;321,190493189072;8,71887207031249E-10;-0,598663330078125;8;628;2,63976104557514E-07;-2,44120765477419E-07;100 nA
-0,550537109375;321,690981187808;1,49078369140625E-09;-0,548828125;8;629;2,63976104557514E-07;-2,44120765477419E-07;100 nA
-0,50048828125;322,191469186545;2,21435546875E-09;-0,498931884765625;8;630;2,63976104557514E-07;-2,44120765477419E-07;100 nA
-0,450439453125;322,691957185281;2,9937744140625E-09;-0,449066162109375;8;631;2,63976104557514E-07;-2,44120765477419E-07;100 nA
-0,400390625;323,192445184018;3,7994384765625E-09;-0,39910888671875;8;632;2,63976104557514E-07;-2,44120765477419E-07;100 nA
-0,350341796875;323,692933182754;4,644775390625E-09;-0,349212646484375;8;633;2,63976104557514E-07;-2,44120765477419E-07;100 nA
-0,30029296875;324,19342118149;5,560302734375E-09;-0,299346923828125;8;634;2,63976104557514E-07;-2,44120765477419E-07;100 nA
-0,250244140625;324,693909180227;6,5338134765625E-09;-0,2493896484375;8;635;2,63976104557514E-07;-2,44120765477419E-07;100 nA
-0,2001953125;325,194397178963;7,5958251953125E-09;-0,19952392578125;8;636;2,63976104557514E-07;-2,44120765477419E-07;100 nA
-0,150146484375;325,694885177699;8,990478515625E-09;-0,14959716796875;8;637;2,63976104557514E-07;-2,44120765477419E-07;100 nA
-0,10009765625;326,195373176436;1,0986328125E-08;-0,099761962890625;8;638;2,63976104557514E-07;-2,44120765477419E-07;100 nA
-0,050048828125;326,695861175172;1,353759765625E-08;-0,04986572265625;8;639;2,63976104557514E-07;-2,44120765477419E-07;100 nA
0;327,196349173909;1,64398193359375E-08;9,46044921874972E-05;8;640;2,63976104557514E-07;-2,44120765477419E-07;100 nA
0,050048828125;327,696837172645;2,01751708984375E-08;0,050079345703125;9;641;2,64199711382389E-07;-2,44214698672295E-07;100 nA
0,10009765625;328,197325171381;2,20062255859375E-08;0,100067138671875;9;642;2,64199711382389E-07;-2,44214698672295E-07;100 nA
0,150146484375;328,697813170118;2,1490478515625E-08;0,1500244140625;9;643;2,64199711382389E-07;-2,44214698672295E-07;100 nA
0,2001953125;329,198301168854;1,8353271484375E-08;0,200042724609375;9;644;2,64199711382389E-07;-2,44214698672295E-07;100 nA
0,250244140625;329,698789167591;1,80572509765625E-08;0,25006103515625;9;645;2,64199711382389E-07;-2,44214698672295E-07;100 nA
0,30029296875;330,199277166327;1,85546875E-08;0,300018310546875;9;646;2,64199711382389E-07;-2,44214698672295E-07;100 nA
0,350341796875;330,699765165063;1,92657470703125E-08;0,35009765625;9;647;2,64199711382389E-07;-2,44214698672295E-07;100 nA
0,400390625;331,2002531638;1,96929931640625E-08;0,400115966796875;9;648;2,64199711382389E-07;-2,44214698672295E-07;100 nA
0,450439453125;331,700741162536;1,96624755859375E-08;0,4500732421875;9;649;2,64199711382389E-07;-2,44214698672295E-07;100 nA
0,50048828125;332,201229161273;1,9146728515625E-08;0,500030517578125;9;650;2,64199711382389E-07;-2,44214698672295E-07;100 nA
0,550537109375;332,701717160009;1,89239501953125E-08;0,55010986328125;9;651;2,64199711382389E-07;-2,44214698672295E-07;100 nA
0,6005859375;333,202205158745;1,9183349609375E-08;0,600128173828125;9;652;2,64199711382389E-07;-2,44214698672295E-07;100 nA
0,650634765625;333,702693157482;1,9952392578125E-08;0,650054931640625;9;653;2,64199711382389E-07;-2,44214698672295E-07;100 nA
0,70068359375;334,203181156218;2,0953369140625E-08;0,699951171875;9;654;2,64199711382389E-07;-2,44214698672295E-07;100 nA
0,750732421875;334,703669154954;2,18902587890625E-08;0,749847412109375;9;655;2,64199711382389E-07;-2,44214698672295E-07;100 nA
0,80078125;335,204157153691;2,25616455078125E-08;0,79986572265625;9;656;2,64199711382389E-07;-2,44214698672295E-07;100 nA
0,850830078125;335,704645152427;2,288818359375E-08;0,84991455078125;9;657;2,64199711382389E-07;-2,44214698672295E-07;100 nA
0,90087890625;336,205133151164;2,28485107421875E-08;0,899658203125;9;658;2,64199711382389E-07;-2,44214698672295E-07;100 nA
0,950927734375;336,7056211499;2,2515869140625E-08;0,94970703125;9;659;2,64199711382389E-07;-2,44214698672295E-07;100 nA
1,0009765625;337,206109148636;2,2003173828125E-08;0,999755859375;9;660;2,64199711382389E-07;-2,44214698672295E-07;100 nA
0,950927734375;337,706597147373;1,42242431640625E-08;0,94970703125;9;661;2,64199711382389E-07;-2,44214698672295E-07;100 nA
0,90087890625;338,207085146109;9,1522216796875E-09;0,899658203125;9;662;2,64199711382389E-07;-2,44214698672295E-07;100 nA
0,850830078125;338,707573144846;5,4443359375E-09;0,84991455078125;9;663;2,64199711382389E-07;-2,44214698672295E-07;100 nA
0,80078125;339,208061143582;2,581787109375E-09;0,79986572265625;9;664;2,64199711382389E-07;-2,44214698672295E-07;100 nA
0,750732421875;339,708549142318;3,30810546875E-10;0,749908447265625;9;665;2,64199711382389E-07;-2,44214698672295E-07;100 nA
0,70068359375;340,209037141055;-1,5545654296875E-09;0,7000732421875;9;666;2,64199711382389E-07;-2,44214698672295E-07;100 nA
0,650634765625;340,709525139791;-3,1707763671875E-09;0,650146484375;9;667;2,64199711382389E-07;-2,44214698672295E-07;100 nA
0,6005859375;341,210013138528;-4,6630859375E-09;0,6002197265625;9;668;2,64199711382389E-07;-2,44214698672295E-07;100 nA
0,550537109375;341,710501137264;-6,005859375E-09;0,5501708984375;9;669;2,64199711382389E-07;-2,44214698672295E-07;100 nA
0,50048828125;342,210989136;-7,18994140625E-09;0,500213623046875;9;670;2,64199711382389E-07;-2,44214698672295E-07;100 nA
0,450439453125;342,711477134737;-8,306884765625E-09;0,450164794921875;9;671;2,64199711382389E-07;-2,44214698672295E-07;100 nA
0,400390625;343,211965133473;-9,405517578125E-09;0,400177001953125;9;672;2,64199711382389E-07;-2,44214698672295E-07;100 nA
0,350341796875;343,712453132209;-1,051025390625E-08;0,350189208984375;9;673;2,64199711382389E-07;-2,44214698672295E-07;100 nA
0,30029296875;344,212941130946;-1,17095947265625E-08;0,300140380859375;9;674;2,64199711382389E-07;-2,44214698672295E-07;100 nA
0,250244140625;344,713429129682;-1,32659912109375E-08;0,250213623046875;9;675;2,64199711382389E-07;-2,44214698672295E-07;100 nA
0,2001953125;345,213917128419;-1,5325927734375E-08;0,200164794921875;9;676;2,64199711382389E-07;-2,44214698672295E-07;100 nA
0,150146484375;345,714405127155;-1,7242431640625E-08;0,15008544921875;9;677;2,64199711382389E-07;-2,44214698672295E-07;100 nA
0,10009765625;346,214893125891;-1,8646240234375E-08;0,100128173828125;9;678;2,64199711382389E-07;-2,44214698672295E-07;100 nA
0,050048828125;346,715381124628;-2,0721435546875E-08;0,050201416015625;9;679;2,64199711382389E-07;-2,44214698672295E-07;100 nA
0;347,215869123364;-2,2283935546875E-08;0,000164794921875003;9;680;2,64199711382389E-07;-2,44214698672295E-07;100 nA
-0,050048828125;347,716357122101;-2,29034423828125E-08;-0,049713134765625;9;681;2,64199711382389E-07;-2,44214698672295E-07;100 nA
-0,10009765625;348,216845120837;-2,31719970703125E-08;-0,099609375;9;682;2,64199711382389E-07;-2,44214698672295E-07;100 nA
-0,150146484375;348,717333119573;-2,344970703125E-08;-0,1495361328125;9;683;2,64199711382389E-07;-2,44214698672295E-07;100 nA
-0,2001953125;349,21782111831;-2,38037109375E-08;-0,199432373046875;9;684;2,64199711382389E-07;-2,44214698672295E-07;100 nA
-0,250244140625;349,718309117046;-2,30743408203125E-08;-0,249267578125;9;685;2,64199711382389E-07;-2,44214698672295E-07;100 nA
-0,30029296875;350,218797115783;-1,95068359375E-08;-0,29925537109375;9;686;2,64199711382389E-07;-2,44214698672295E-07;100 nA
-0,350341796875;350,719285114519;-1,64825439453125E-08;-0,349151611328125;9;687;2,64199711382389E-07;-2,44214698672295E-07;100 nA
-0,400390625;351,219773113255;-1,56829833984375E-08;-0,3990478515625;9;688;2,64199711382389E-07;-2,44214698672295E-07;100 nA
-0,450439453125;351,720261111992;-1,50238037109375E-08;-0,448974609375;9;689;2,64199711382389E-07;-2,44214698672295E-07;100 nA
-0,50048828125;352,220749110728;-1,41876220703125E-08;-0,498809814453125;9;690;2,64199711382389E-07;-2,44214698672295E-07;100 nA
-0,550537109375;352,721237109464;-1,3201904296875E-08;-0,54876708984375;9;691;2,64199711382389E-07;-2,44214698672295E-07;100 nA
-0,6005859375;353,221725108201;-1,21917724609375E-08;-0,598724365234375;9;692;2,64199711382389E-07;-2,44214698672295E-07;100 nA
-0,650634765625;353,722213106937;-1,13372802734375E-08;-0,648651123046875;9;693;2,64199711382389E-07;-2,44214698672295E-07;100 nA
-0,70068359375;354,222701105674;-1,06597900390625E-08;-0,698577880859375;9;694;2,64199711382389E-07;-2,44214698672295E-07;100 nA
-0,750732421875;354,72318910441;-1,01287841796875E-08;-0,748565673828125;9;695;2,64199711382389E-07;-2,44214698672295E-07;100 nA
-0,80078125;355,223677103146;-9,7442626953125E-09;-0,79833984375;9;696;2,64199711382389E-07;-2,44214698672295E-07;100 nA
-0,850830078125;355,724165101883;-9,4970703125E-09;-0,84869384765625;9;697;2,64199711382389E-07;-2,44214698672295E-07;100 nA
-0,90087890625;356,224653100619;-9,3658447265625E-09;-0,89813232421875;9;698;2,64199711382389E-07;-2,44214698672295E-07;100 nA
-0,950927734375;356,725141099356;-9,3414306640625E-09;-0,9490966796875;9;699;2,64199711382389E-07;-2,44214698672295E-07;100 nA
-1,0009765625;357,225629098092;-9,4390869140625E-09;-0,99884033203125;9;700;2,64199711382389E-07;-2,44214698672295E-07;100 nA
-0,950927734375;357,726117096828;-5,914306640625E-09;-0,9490966796875;9;701;2,64199711382389E-07;-2,44214698672295E-07;100 nA
-0,90087890625;358,226605095565;-3,89404296875E-09;-0,89874267578125;9;702;2,64199711382389E-07;-2,44214698672295E-07;100 nA
-0,850830078125;358,727093094301;-2,7587890625E-09;-0,84930419921875;9;703;2,64199711382389E-07;-2,44214698672295E-07;100 nA
-0,80078125;359,227581093038;-1,81610107421875E-09;-0,79833984375;9;704;2,64199711382389E-07;-2,44214698672295E-07;100 nA
-0,750732421875;359,728069091774;-1,02691650390625E-09;-0,74859619140625;9;705;2,64199711382389E-07;-2,44214698672295E-07;100 nA
-0,70068359375;360,22855709051;-3,460693359375E-10;-0,69866943359375;9;706;2,64199711382389E-07;-2,44214698672295E-07;100 nA
-0,650634765625;360,729045089247;2,78625488281251E-10;-0,648590087890625;9;707;2,64199711382389E-07;-2,44214698672295E-07;100 nA
-0,6005859375;361,229533087983;8,75244140625001E-10;-0,598724365234375;9;708;2,64199711382389E-07;-2,44214698672295E-07;100 nA
-0,550537109375;361,730021086719;1,49749755859375E-09;-0,548797607421875;9;709;2,64199711382389E-07;-2,44214698672295E-07;100 nA
-0,50048828125;362,230509085456;2,2119140625E-09;-0,49884033203125;9;710;2,64199711382389E-07;-2,44214698672295E-07;100 nA
-0,450439453125;362,730997084192;2,9937744140625E-09;-0,448944091796875;9;711;2,64199711382389E-07;-2,44214698672295E-07;100 nA
-0,400390625;363,231485082929;3,7994384765625E-09;-0,39910888671875;9;712;2,64199711382389E-07;-2,44214698672295E-07;100 nA
-0,350341796875;363,731973081665;4,6478271484375E-09;-0,3492431640625;9;713;2,64199711382389E-07;-2,44214698672295E-07;100 nA
-0,30029296875;364,232461080401;5,5694580078125E-09;-0,29931640625;9;714;2,64199711382389E-07;-2,44214698672295E-07;100 nA
-0,250244140625;364,732949079138;6,54296875E-09;-0,249420166015625;9;715;2,64199711382389E-07;-2,44214698672295E-07;100 nA
-0,2001953125;365,233437077874;7,6141357421875E-09;-0,199493408203125;9;716;2,64199711382389E-07;-2,44214698672295E-07;100 nA
-0,150146484375;365,733925076611;9,0057373046875E-09;-0,14959716796875;9;717;2,64199711382389E-07;-2,44214698672295E-07;100 nA
-0,10009765625;366,234413075347;1,09893798828125E-08;-0,0997314453125;9;718;2,64199711382389E-07;-2,44214698672295E-07;100 nA
-0,050048828125;366,734901074083;1,35528564453125E-08;-0,049896240234375;9;719;2,64199711382389E-07;-2,44214698672295E-07;100 nA
0;367,23538907282;1,64459228515625E-08;0,000115966796875006;9;720;2,64199711382389E-07;-2,44214698672295E-07;100 nA
0,050048828125;367,735877071556;2,01904296875E-08;0,050018310546875;10;721;2,64254543930292E-07;-2,4432360008359E-07;100 nA
0,10009765625;368,236365070293;2,20428466796875E-08;0,100006103515625;10;722;2,64254543930292E-07;-2,4432360008359E-07;100 nA
0,150146484375;368,736853069029;2,154541015625E-08;0,150054931640625;10;723;2,64254543930292E-07;-2,4432360008359E-07;100 nA
0,2001953125;369,237341067765;1,83807373046875E-08;0,2000732421875;10;724;2,64254543930292E-07;-2,4432360008359E-07;100 nA
0,250244140625;369,737829066502;1,80816650390625E-08;0,250091552734375;10;725;2,64254543930292E-07;-2,4432360008359E-07;100 nA
0,30029296875;370,238317065238;1,8597412109375E-08;0,300079345703125;10;726;2,64254543930292E-07;-2,4432360008359E-07;100 nA
0,350341796875;370,738805063975;1,9281005859375E-08;0,350128173828125;10;727;2,64254543930292E-07;-2,4432360008359E-07;100 nA
0,400390625;371,239293062711;1,971435546875E-08;0,400054931640625;10;728;2,64254543930292E-07;-2,4432360008359E-07;100 nA
0,450439453125;371,739781061447;1,954345703125E-08;0,450103759765625;10;729;2,64254543930292E-07;-2,4432360008359E-07;100 nA
0,50048828125;372,240269060184;1,903076171875E-08;0,50006103515625;10;730;2,64254543930292E-07;-2,4432360008359E-07;100 nA
0,550537109375;372,74075705892;1,89239501953125E-08;0,550079345703125;10;731;2,64254543930292E-07;-2,4432360008359E-07;100 nA
0,6005859375;373,241245057656;1,91864013671875E-08;0,600128173828125;10;732;2,64254543930292E-07;-2,4432360008359E-07;100 nA
0,650634765625;373,741733056393;1,99554443359375E-08;0,6500244140625;10;733;2,64254543930292E-07;-2,4432360008359E-07;100 nA
0,70068359375;374,242221055129;2,09625244140625E-08;0,699951171875;10;734;2,64254543930292E-07;-2,4432360008359E-07;100 nA
0,750732421875;374,742709053866;2,18902587890625E-08;0,749847412109375;10;735;2,64254543930292E-07;-2,4432360008359E-07;100 nA
0,80078125;375,243197052602;2,25738525390625E-08;0,8001708984375;10;736;2,64254543930292E-07;-2,4432360008359E-07;100 nA
0,850830078125;375,743685051338;2,2894287109375E-08;0,84991455078125;10;737;2,64254543930292E-07;-2,4432360008359E-07;100 nA
0,90087890625;376,244173050075;2,28515625E-08;0,899658203125;10;738;2,64254543930292E-07;-2,4432360008359E-07;100 nA
0,950927734375;376,744661048811;2,25189208984375E-08;0,94879150390625;10;739;2,64254543930292E-07;-2,4432360008359E-07;100 nA
1,0009765625;377,245149047548;2,200927734375E-08;0,99945068359375;10;740;2,64254543930292E-07;-2,4432360008359E-07;100 nA
0,950927734375;377,745637046284;1,42303466796875E-08;0,94970703125;10;741;2,64254543930292E-07;-2,4432360008359E-07;100 nA
0,90087890625;378,24612504502;9,16748046875E-09;0,89996337890625;10;742;2,64254543930292E-07;-2,4432360008359E-07;100 nA
0,850830078125;378,746613043757;5,4473876953125E-09;0,84930419921875;10;743;2,64254543930292E-07;-2,4432360008359E-07;100 nA
0,80078125;379,247101042493;2,587890625E-09;0,8001708984375;10;744;2,64254543930292E-07;-2,4432360008359E-07;100 nA
0,750732421875;379,74758904123;3,35693359375E-10;0,749908447265625;10;745;2,64254543930292E-07;-2,4432360008359E-07;100 nA
0,70068359375;380,248077039966;-1,54815673828125E-09;0,7000732421875;10;746;2,64254543930292E-07;-2,4432360008359E-07;100 nA
0,650634765625;380,748565038702;-3,1707763671875E-09;0,65020751953125;10;747;2,64254543930292E-07;-2,4432360008359E-07;100 nA
0,6005859375;381,249053037439;-4,6630859375E-09;0,600189208984375;10;748;2,64254543930292E-07;-2,4432360008359E-07;100 nA
0,550537109375;381,749541036175;-6,005859375E-09;0,550201416015625;10;749;2,64254543930292E-07;-2,4432360008359E-07;100 nA
0,50048828125;382,250029034911;-7,1807861328125E-09;0,500213623046875;10;750;2,64254543930292E-07;-2,4432360008359E-07;100 nA
0,450439453125;382,750517033648;-8,2855224609375E-09;0,450164794921875;10;751;2,64254543930292E-07;-2,4432360008359E-07;100 nA
0,400390625;383,251005032384;-9,375E-09;0,400177001953125;10;752;2,64254543930292E-07;-2,4432360008359E-07;100 nA
0,350341796875;383,751493031121;-1,048583984375E-08;0,350250244140625;10;753;2,64254543930292E-07;-2,4432360008359E-07;100 nA
0,30029296875;384,251981029857;-1,16973876953125E-08;0,300201416015625;10;754;2,64254543930292E-07;-2,4432360008359E-07;100 nA
0,250244140625;384,752469028593;-1,3238525390625E-08;0,25018310546875;10;755;2,64254543930292E-07;-2,4432360008359E-07;100 nA
0,2001953125;385,25295702733;-1,53045654296875E-08;0,200164794921875;10;756;2,64254543930292E-07;-2,4432360008359E-07;100 nA
0,150146484375;385,753445026066;-1,7095947265625E-08;0,150115966796875;10;757;2,64254543930292E-07;-2,4432360008359E-07;100 nA
0,10009765625;386,253933024803;-1,8634033203125E-08;0,100128173828125;10;758;2,64254543930292E-07;-2,4432360008359E-07;100 nA
0,050048828125;386,754421023539;-2,071533203125E-08;0,050140380859375;10;759;2,64254543930292E-07;-2,4432360008359E-07;100 nA
0;387,254909022275;-2,22869873046875E-08;0,000177001953125006;10;760;2,64254543930292E-07;-2,4432360008359E-07;100 nA
-0,050048828125;387,755397021012;-2,2918701171875E-08;-0,04969482421875;10;761;2,64254543930292E-07;-2,4432360008359E-07;100 nA
-0,10009765625;388,255885019748;-2,3193359375E-08;-0,09967041015625;10;762;2,64254543930292E-07;-2,4432360008359E-07;100 nA
-0,150146484375;388,756373018485;-2,3486328125E-08;-0,149566650390625;10;763;2,64254543930292E-07;-2,4432360008359E-07;100 nA
-0,2001953125;389,256861017221;-2,38494873046875E-08;-0,199432373046875;10;764;2,64254543930292E-07;-2,4432360008359E-07;100 nA
-0,250244140625;389,757349015957;-2,31201171875E-08;-0,24932861328125;10;765;2,64254543930292E-07;-2,4432360008359E-07;100 nA
-0,30029296875;390,257837014694;-1,9549560546875E-08;-0,299224853515625;10;766;2,64254543930292E-07;-2,4432360008359E-07;100 nA
-0,350341796875;390,75832501343;-1,65130615234375E-08;-0,349151611328125;10;767;2,64254543930292E-07;-2,4432360008359E-07;100 nA
-0,400390625;391,258813012166;-1,5728759765625E-08;-0,399078369140625;10;768;2,64254543930292E-07;-2,4432360008359E-07;100 nA
-0,450439453125;391,759301010903;-1,49261474609375E-08;-0,449066162109375;10;769;2,64254543930292E-07;-2,4432360008359E-07;100 nA
-0,50048828125;392,259789009639;-1,4215087890625E-08;-0,49884033203125;10;770;2,64254543930292E-07;-2,4432360008359E-07;100 nA
-0,550537109375;392,760277008376;-1,32415771484375E-08;-0,548797607421875;10;771;2,64254543930292E-07;-2,4432360008359E-07;100 nA
-0,6005859375;393,260765007112;-1,22161865234375E-08;-0,59869384765625;10;772;2,64254543930292E-07;-2,4432360008359E-07;100 nA
-0,650634765625;393,761253005848;-1,136474609375E-08;-0,648681640625;10;773;2,64254543930292E-07;-2,4432360008359E-07;100 nA
-0,70068359375;394,261741004585;-1,0687255859375E-08;-0,69854736328125;10;774;2,64254543930292E-07;-2,4432360008359E-07;100 nA
-0,750732421875;394,762229003321;-1,0162353515625E-08;-0,748687744140625;10;775;2,64254543930292E-07;-2,4432360008359E-07;100 nA
-0,80078125;395,262717002058;-9,765625E-09;-0,79864501953125;10;776;2,64254543930292E-07;-2,4432360008359E-07;100 nA
-0,850830078125;395,763205000794;-9,5062255859375E-09;-0,84869384765625;10;777;2,64254543930292E-07;-2,4432360008359E-07;100 nA
-0,90087890625;396,26369299953;-9,3719482421875E-09;-0,8984375;10;778;2,64254543930292E-07;-2,4432360008359E-07;100 nA
-0,950927734375;396,764180998267;-9,3475341796875E-09;-0,94818115234375;10;779;2,64254543930292E-07;-2,4432360008359E-07;100 nA
-1,0009765625;397,264668997003;-9,43603515625E-09;-0,99945068359375;10;780;2,64254543930292E-07;-2,4432360008359E-07;100 nA
-0,950927734375;397,76515699574;-5,908203125E-09;-0,94818115234375;10;781;2,64254543930292E-07;-2,4432360008359E-07;100 nA
-0,90087890625;398,265644994476;-4,022216796875E-09;-0,89813232421875;10;782;2,64254543930292E-07;-2,4432360008359E-07;100 nA
-0,850830078125;398,766132993212;-2,7618408203125E-09;-0,84869384765625;10;783;2,64254543930292E-07;-2,4432360008359E-07;100 nA
-0,80078125;399,266620991949;-1,81488037109375E-09;-0,7989501953125;10;784;2,64254543930292E-07;-2,4432360008359E-07;100 nA
-0,750732421875;399,767108990685;-1,0333251953125E-09;-0,748687744140625;10;785;2,64254543930292E-07;-2,4432360008359E-07;100 nA
-0,70068359375;400,267596989421;-3,4210205078125E-10;-0,698638916015625;10;786;2,64254543930292E-07;-2,4432360008359E-07;100 nA
-0,650634765625;400,768084988158;2,79541015625E-10;-0,648651123046875;10;787;2,64254543930292E-07;-2,4432360008359E-07;100 nA
-0,6005859375;401,268572986894;8,7860107421875E-10;-0,5987548828125;10;788;2,64254543930292E-07;-2,4432360008359E-07;100 nA
-0,550537109375;401,769060985631;1,49658203125E-09;-0,548858642578125;10;789;2,64254543930292E-07;-2,4432360008359E-07;100 nA
-0,50048828125;402,269548984367;2,215576171875E-09;-0,498870849609375;10;790;2,64254543930292E-07;-2,4432360008359E-07;100 nA
-0,450439453125;402,770036983103;2,9998779296875E-09;-0,449005126953125;10;791;2,64254543930292E-07;-2,4432360008359E-07;100 nA
-0,400390625;403,27052498184;3,802490234375E-09;-0,399078369140625;10;792;2,64254543930292E-07;-2,4432360008359E-07;100 nA
-0,350341796875;403,771012980576;4,656982421875E-09;-0,3492431640625;10;793;2,64254543930292E-07;-2,4432360008359E-07;100 nA
-0,30029296875;404,271500979313;5,5816650390625E-09;-0,29937744140625;10;794;2,64254543930292E-07;-2,4432360008359E-07;100 nA
-0,250244140625;404,771988978049;6,55517578125E-09;-0,249420166015625;10;795;2,64254543930292E-07;-2,4432360008359E-07;100 nA
-0,2001953125;405,272476976785;7,6171875E-09;-0,199493408203125;10;796;2,64254543930292E-07;-2,4432360008359E-07;100 nA
-0,150146484375;405,772964975522;8,8897705078125E-09;-0,14959716796875;10;797;2,64254543930292E-07;-2,4432360008359E-07;100 nA
-0,10009765625;406,273452974258;1,10198974609375E-08;-0,0997314453125;10;798;2,64254543930292E-07;-2,4432360008359E-07;100 nA
-0,050048828125;406,773940972995;1,358642578125E-08;-0,049835205078125;10;799;2,64254543930292E-07;-2,4432360008359E-07;100 nA
0;407,274428971731;1,64703369140625E-08;0,0001068115234375;10;800;2,64254543930292E-07;-2,4432360008359E-07;100 nA
