Potential applied (V);Time (s);WE(1).Current (A);WE(1).Potential (V);Scan;Index;Q+;Q-;Current range
0,050048828125;7,36909498139482;5,0689697265625E-09;0,050048828125;1;1;3,37833561003208E-07;-4,30961985141039E-07;100 nA
0,10009765625;7,86958298013121;8,0780029296875E-09;0,10009765625;1;2;3,37833561003208E-07;-4,30961985141039E-07;100 nA
0,150146484375;8,3700709788676;1,01043701171875E-08;0,150054931640625;1;3;3,37833561003208E-07;-4,30961985141039E-07;100 nA
0,2001953125;8,87055897760399;1,1944580078125E-08;0,20001220703125;1;4;3,37833561003208E-07;-4,30961985141039E-07;100 nA
0,250244140625;9,37104697634038;1,41876220703125E-08;0,250091552734375;1;5;3,37833561003208E-07;-4,30961985141039E-07;100 nA
0,30029296875;9,87153497507677;1,65252685546875E-08;0,300079345703125;1;6;3,37833561003208E-07;-4,30961985141039E-07;100 nA
0,350341796875;10,3720229738132;1,87835693359375E-08;0,350128173828125;1;7;3,37833561003208E-07;-4,30961985141039E-07;100 nA
0,400390625;10,8725109725495;2,091064453125E-08;0,40008544921875;1;8;3,37833561003208E-07;-4,30961985141039E-07;100 nA
0,450439453125;11,3729989712859;2,28912353515625E-08;0,4500732421875;1;9;3,37833561003208E-07;-4,30961985141039E-07;100 nA
0,50048828125;11,8734869700223;2,4761962890625E-08;0,500091552734375;1;10;3,37833561003208E-07;-4,30961985141039E-07;100 nA
0,550537109375;12,3739749687587;2,6483154296875E-08;0,55010986328125;1;11;3,37833561003208E-07;-4,30961985141039E-07;100 nA
0,6005859375;12,8744629674951;2,78350830078125E-08;0,600067138671875;1;12;3,37833561003208E-07;-4,30961985141039E-07;100 nA
0,650634765625;13,3749509662315;2,85247802734375E-08;0,6500244140625;1;13;3,37833561003208E-07;-4,30961985141039E-07;100 nA
0,70068359375;13,8754389649679;2,88238525390625E-08;0,699951171875;1;14;3,37833561003208E-07;-4,30961985141039E-07;100 nA
0,750732421875;14,3759269637043;2,943115234375E-08;0,749847412109375;1;15;3,37833561003208E-07;-4,30961985141039E-07;100 nA
0,80078125;14,8764149624407;3,01239013671875E-08;0,79986572265625;1;16;3,37833561003208E-07;-4,30961985141039E-07;100 nA
0,850830078125;15,3769029611771;3,077392578125E-08;0,84991455078125;1;17;3,37833561003208E-07;-4,30961985141039E-07;100 nA
0,90087890625;15,8773909599134;3,14239501953125E-08;0,89935302734375;1;18;3,37833561003208E-07;-4,30961985141039E-07;100 nA
0,950927734375;16,3778789586498;3,2049560546875E-08;0,94940185546875;1;19;3,37833561003208E-07;-4,30961985141039E-07;100 nA
1,0009765625;16,8783669573862;3,27484130859375E-08;1,00006103515625;1;20;3,37833561003208E-07;-4,30961985141039E-07;100 nA
0,950927734375;17,3788549561226;2,4542236328125E-08;0,94970703125;1;21;3,37833561003208E-07;-4,30961985141039E-07;100 nA
0,90087890625;17,879342954859;1,88934326171875E-08;0,9002685546875;1;22;3,37833561003208E-07;-4,30961985141039E-07;100 nA
0,850830078125;18,3798309535954;1,4453125E-08;0,8502197265625;1;23;3,37833561003208E-07;-4,30961985141039E-07;100 nA
0,80078125;18,8803189523318;1,07391357421875E-08;0,8001708984375;1;24;3,37833561003208E-07;-4,30961985141039E-07;100 nA
0,750732421875;19,3808069510682;7,5286865234375E-09;0,749908447265625;1;25;3,37833561003208E-07;-4,30961985141039E-07;100 nA
0,70068359375;19,8812949498046;4,669189453125E-09;0,699951171875;1;26;3,37833561003208E-07;-4,30961985141039E-07;100 nA
0,650634765625;20,3817829485409;2,07855224609375E-09;0,650115966796875;1;27;3,37833561003208E-07;-4,30961985141039E-07;100 nA
0,6005859375;20,8822709472773;-3,6590576171875E-10;0,600250244140625;1;28;3,37833561003208E-07;-4,30961985141039E-07;100 nA
0,550537109375;21,3827589460137;-2,767333984375E-09;0,55023193359375;1;29;3,37833561003208E-07;-4,30961985141039E-07;100 nA
0,50048828125;21,8832469447501;-5,194091796875E-09;0,500244140625;1;30;3,37833561003208E-07;-4,30961985141039E-07;100 nA
0,450439453125;22,3837349434865;-7,6263427734375E-09;0,450225830078125;1;31;3,37833561003208E-07;-4,30961985141039E-07;100 nA
0,400390625;22,8842229422229;-1,01715087890625E-08;0,400177001953125;1;32;3,37833561003208E-07;-4,30961985141039E-07;100 nA
0,350341796875;23,3847109409593;-1,28753662109375E-08;0,35015869140625;1;33;3,37833561003208E-07;-4,30961985141039E-07;100 nA
0,30029296875;23,8851989396957;-1,5673828125E-08;0,300140380859375;1;34;3,37833561003208E-07;-4,30961985141039E-07;100 nA
0,250244140625;24,3856869384321;-1,856689453125E-08;0,25018310546875;1;35;3,37833561003208E-07;-4,30961985141039E-07;100 nA
0,2001953125;24,8861749371684;-2,15301513671875E-08;0,200164794921875;1;36;3,37833561003208E-07;-4,30961985141039E-07;100 nA
0,150146484375;25,3866629359048;-2,474365234375E-08;0,150177001953125;1;37;3,37833561003208E-07;-4,30961985141039E-07;100 nA
0,10009765625;25,8871509346412;-2,76611328125E-08;0,100189208984375;1;38;3,37833561003208E-07;-4,30961985141039E-07;100 nA
0,050048828125;26,3876389333776;-2,98553466796875E-08;0,0501708984375;1;39;3,37833561003208E-07;-4,30961985141039E-07;100 nA
0;26,888126932114;-3,1201171875E-08;0,0001678466796875;1;40;3,37833561003208E-07;-4,30961985141039E-07;100 nA
-0,050048828125;27,3886149308504;-3,1842041015625E-08;-0,0496978759765625;1;41;3,37833561003208E-07;-4,30961985141039E-07;100 nA
-0,10009765625;27,8891029295868;-3,22662353515625E-08;-0,099609375;1;42;3,37833561003208E-07;-4,30961985141039E-07;100 nA
-0,150146484375;28,3895909283232;-3,271484375E-08;-0,149566650390625;1;43;3,37833561003208E-07;-4,30961985141039E-07;100 nA
-0,2001953125;28,8900789270596;-3,3221435546875E-08;-0,199432373046875;1;44;3,37833561003208E-07;-4,30961985141039E-07;100 nA
-0,250244140625;29,390566925796;-3,3599853515625E-08;-0,24932861328125;1;45;3,37833561003208E-07;-4,30961985141039E-07;100 nA
-0,30029296875;29,8910549245323;-3,39691162109375E-08;-0,2991943359375;1;46;3,37833561003208E-07;-4,30961985141039E-07;100 nA
-0,350341796875;30,3915429232687;-3,4423828125E-08;-0,349090576171875;1;47;3,37833561003208E-07;-4,30961985141039E-07;100 nA
-0,400390625;30,8920309220051;-3,497314453125E-08;-0,399017333984375;1;48;3,37833561003208E-07;-4,30961985141039E-07;100 nA
-0,450439453125;31,3925189207415;-3,56964111328125E-08;-0,448883056640625;1;49;3,37833561003208E-07;-4,30961985141039E-07;100 nA
-0,50048828125;31,8930069194779;-3,60992431640625E-08;-0,49884033203125;1;50;3,37833561003208E-07;-4,30961985141039E-07;100 nA
-0,550537109375;32,3934949182143;-3,4112548828125E-08;-0,548736572265625;1;51;3,37833561003208E-07;-4,30961985141039E-07;100 nA
-0,6005859375;32,8939829169507;-3,033447265625E-08;-0,598663330078125;1;52;3,37833561003208E-07;-4,30961985141039E-07;100 nA
-0,650634765625;33,3944709156871;-2,90740966796875E-08;-0,6485595703125;1;53;3,37833561003208E-07;-4,30961985141039E-07;100 nA
-0,70068359375;33,8949589144235;-2,7825927734375E-08;-0,6986083984375;1;54;3,37833561003208E-07;-4,30961985141039E-07;100 nA
-0,750732421875;34,3954469131598;-2,640380859375E-08;-0,748565673828125;1;55;3,37833561003208E-07;-4,30961985141039E-07;100 nA
-0,80078125;34,8959349118962;-2,5341796875E-08;-0,7989501953125;1;56;3,37833561003208E-07;-4,30961985141039E-07;100 nA
-0,850830078125;35,3964229106326;-2,48809814453125E-08;-0,8489990234375;1;57;3,37833561003208E-07;-4,30961985141039E-07;100 nA
-0,90087890625;35,896910909369;-2,4853515625E-08;-0,89935302734375;1;58;3,37833561003208E-07;-4,30961985141039E-07;100 nA
-0,950927734375;36,3973989081054;-2,50274658203125E-08;-0,948486328125;1;59;3,37833561003208E-07;-4,30961985141039E-07;100 nA
-1,0009765625;36,8978869068418;-2,51129150390625E-08;-0,99945068359375;1;60;3,37833561003208E-07;-4,30961985141039E-07;100 nA
-0,950927734375;37,3983749055782;-1,61407470703125E-08;-0,948486328125;1;61;3,37833561003208E-07;-4,30961985141039E-07;100 nA
-0,90087890625;37,8988629043146;-1,08184814453125E-08;-0,8984375;1;62;3,37833561003208E-07;-4,30961985141039E-07;100 nA
-0,850830078125;38,399350903051;-7,147216796875E-09;-0,8489990234375;1;63;3,37833561003208E-07;-4,30961985141039E-07;100 nA
-0,80078125;38,8998389017873;-4,3670654296875E-09;-0,79833984375;1;64;3,37833561003208E-07;-4,30961985141039E-07;100 nA
-0,750732421875;39,4003269005237;-2,20367431640625E-09;-0,748687744140625;1;65;3,37833561003208E-07;-4,30961985141039E-07;100 nA
-0,70068359375;39,9008148992601;-3,9947509765625E-10;-0,69866943359375;1;66;3,37833561003208E-07;-4,30961985141039E-07;100 nA
-0,650634765625;40,4013028979965;1,17034912109375E-09;-0,648651123046875;1;67;3,37833561003208E-07;-4,30961985141039E-07;100 nA
-0,6005859375;40,9017908967329;2,5848388671875E-09;-0,598724365234375;1;68;3,37833561003208E-07;-4,30961985141039E-07;100 nA
-0,550537109375;41,4022788954693;3,9093017578125E-09;-0,548858642578125;1;69;3,37833561003208E-07;-4,30961985141039E-07;100 nA
-0,50048828125;41,9027668942057;5,1788330078125E-09;-0,4989013671875;1;70;3,37833561003208E-07;-4,30961985141039E-07;100 nA
-0,450439453125;42,4032548929421;6,48193359375E-09;-0,448944091796875;1;71;3,37833561003208E-07;-4,30961985141039E-07;100 nA
-0,400390625;42,9037428916785;7,8948974609375E-09;-0,399169921875;1;72;3,37833561003208E-07;-4,30961985141039E-07;100 nA
-0,350341796875;43,4042308904149;9,3170166015625E-09;-0,349212646484375;1;73;3,37833561003208E-07;-4,30961985141039E-07;100 nA
-0,30029296875;43,9047188891512;1,06231689453125E-08;-0,29931640625;1;74;3,37833561003208E-07;-4,30961985141039E-07;100 nA
-0,250244140625;44,4052068878876;1,18560791015625E-08;-0,2493896484375;1;75;3,37833561003208E-07;-4,30961985141039E-07;100 nA
-0,2001953125;44,905694886624;1,30767822265625E-08;-0,199462890625;1;76;3,37833561003208E-07;-4,30961985141039E-07;100 nA
-0,150146484375;45,4061828853604;1,43707275390625E-08;-0,149688720703125;1;77;3,37833561003208E-07;-4,30961985141039E-07;100 nA
-0,10009765625;45,9066708840968;1,5948486328125E-08;-0,09979248046875;1;78;3,37833561003208E-07;-4,30961985141039E-07;100 nA
-0,050048828125;46,4071588828332;1,7901611328125E-08;-0,049835205078125;1;79;3,37833561003208E-07;-4,30961985141039E-07;100 nA
0;46,9076468815696;2,03155517578125E-08;0,000100708007812506;1;80;3,37833561003208E-07;-4,30961985141039E-07;100 nA
0,050048828125;47,408134880306;2,2833251953125E-08;0,050048828125;2;81;4,27752830088139E-07;-4,2458613589406E-07;100 nA
0,10009765625;47,9086228790424;2,46673583984375E-08;0,100067138671875;2;82;4,27752830088139E-07;-4,2458613589406E-07;100 nA
0,150146484375;48,4091108777787;2,57965087890625E-08;0,149993896484375;2;83;4,27752830088139E-07;-4,2458613589406E-07;100 nA
0,2001953125;48,9095988765151;2,66357421875E-08;0,20001220703125;2;84;4,27752830088139E-07;-4,2458613589406E-07;100 nA
0,250244140625;49,4100868752515;2,762451171875E-08;0,25006103515625;2;85;4,27752830088139E-07;-4,2458613589406E-07;100 nA
0,30029296875;49,9105748739879;2,87628173828125E-08;0,300018310546875;2;86;4,27752830088139E-07;-4,2458613589406E-07;100 nA
0,350341796875;50,4110628727243;2,98553466796875E-08;0,35009765625;2;87;4,27752830088139E-07;-4,2458613589406E-07;100 nA
0,400390625;50,9115508714607;3,07830810546875E-08;0,40008544921875;2;88;4,27752830088139E-07;-4,2458613589406E-07;100 nA
0,450439453125;51,4120388701971;3,1640625E-08;0,450042724609375;2;89;4,27752830088139E-07;-4,2458613589406E-07;100 nA
0,50048828125;51,9125268689335;3,22357177734375E-08;0,500091552734375;2;90;4,27752830088139E-07;-4,2458613589406E-07;100 nA
0,550537109375;52,4130148676699;3,29345703125E-08;0,550048828125;2;91;4,27752830088139E-07;-4,2458613589406E-07;100 nA
0,6005859375;52,9135028664062;3,3367919921875E-08;0,600067138671875;2;92;4,27752830088139E-07;-4,2458613589406E-07;100 nA
0,650634765625;53,4139908651426;3,32763671875E-08;0,649993896484375;2;93;4,27752830088139E-07;-4,2458613589406E-07;100 nA
0,70068359375;53,914478863879;3,3172607421875E-08;0,699920654296875;2;94;4,27752830088139E-07;-4,2458613589406E-07;100 nA
0,750732421875;54,4149668626154;3,34808349609375E-08;0,749847412109375;2;95;4,27752830088139E-07;-4,2458613589406E-07;100 nA
0,80078125;54,9154548613518;3,37677001953125E-08;0,79986572265625;2;96;4,27752830088139E-07;-4,2458613589406E-07;100 nA
0,850830078125;55,4159428600882;3,40179443359375E-08;0,84991455078125;2;97;4,27752830088139E-07;-4,2458613589406E-07;100 nA
0,90087890625;55,9164308588246;3,42315673828125E-08;0,89996337890625;2;98;4,27752830088139E-07;-4,2458613589406E-07;100 nA
0,950927734375;56,416918857561;3,4515380859375E-08;0,94940185546875;2;99;4,27752830088139E-07;-4,2458613589406E-07;100 nA
1,0009765625;56,9174068562974;3,4869384765625E-08;0,999755859375;2;100;4,27752830088139E-07;-4,2458613589406E-07;100 nA
0,950927734375;57,4178948550338;2,64556884765625E-08;0,94970703125;2;101;4,27752830088139E-07;-4,2458613589406E-07;100 nA
0,90087890625;57,9183828537701;2,061767578125E-08;0,89935302734375;2;102;4,27752830088139E-07;-4,2458613589406E-07;100 nA
0,850830078125;58,4188708525065;1,6015625E-08;0,84991455078125;2;103;4,27752830088139E-07;-4,2458613589406E-07;100 nA
0,80078125;58,9193588512429;1,21673583984375E-08;0,8001708984375;2;104;4,27752830088139E-07;-4,2458613589406E-07;100 nA
0,750732421875;59,4198468499793;8,82568359375E-09;0,7498779296875;2;105;4,27752830088139E-07;-4,2458613589406E-07;100 nA
0,70068359375;59,9203348487157;5,8746337890625E-09;0,699981689453125;2;106;4,27752830088139E-07;-4,2458613589406E-07;100 nA
0,650634765625;60,4208228474521;3,1951904296875E-09;0,65008544921875;2;107;4,27752830088139E-07;-4,2458613589406E-07;100 nA
0,6005859375;60,9213108461885;7,04345703125E-10;0,600128173828125;2;108;4,27752830088139E-07;-4,2458613589406E-07;100 nA
0,550537109375;61,4217988449249;-1,719970703125E-09;0,550262451171875;2;109;4,27752830088139E-07;-4,2458613589406E-07;100 nA
0,50048828125;61,9222868436613;-4,168701171875E-09;0,500213623046875;2;110;4,27752830088139E-07;-4,2458613589406E-07;100 nA
0,450439453125;62,4227748423976;-6,6070556640625E-09;0,45013427734375;2;111;4,27752830088139E-07;-4,2458613589406E-07;100 nA
0,400390625;62,923262841134;-9,1278076171875E-09;0,400177001953125;2;112;4,27752830088139E-07;-4,2458613589406E-07;100 nA
0,350341796875;63,4237508398704;-1,1798095703125E-08;0,350189208984375;2;113;4,27752830088139E-07;-4,2458613589406E-07;100 nA
0,30029296875;63,9242388386068;-1,463623046875E-08;0,300201416015625;2;114;4,27752830088139E-07;-4,2458613589406E-07;100 nA
0,250244140625;64,4247268373432;-1,76025390625E-08;0,250152587890625;2;115;4,27752830088139E-07;-4,2458613589406E-07;100 nA
0,2001953125;64,9252148360796;-2,0672607421875E-08;0,20013427734375;2;116;4,27752830088139E-07;-4,2458613589406E-07;100 nA
0,150146484375;65,425702834816;-2,39288330078125E-08;0,150146484375;2;117;4,27752830088139E-07;-4,2458613589406E-07;100 nA
0,10009765625;65,9261908335524;-2,69989013671875E-08;0,1002197265625;2;118;4,27752830088139E-07;-4,2458613589406E-07;100 nA
0,050048828125;66,4266788322888;-2,93792724609375E-08;0,050140380859375;2;119;4,27752830088139E-07;-4,2458613589406E-07;100 nA
0;66,9271668310251;-3,08990478515625E-08;0,000189208984374994;2;120;4,27752830088139E-07;-4,2458613589406E-07;100 nA
-0,050048828125;67,4276548297615;-3,18450927734375E-08;-0,0496795654296875;2;121;4,27752830088139E-07;-4,2458613589406E-07;100 nA
-0,10009765625;67,9281428284979;-3,2452392578125E-08;-0,099609375;2;122;4,27752830088139E-07;-4,2458613589406E-07;100 nA
-0,150146484375;68,4286308272343;-3,3038330078125E-08;-0,149505615234375;2;123;4,27752830088139E-07;-4,2458613589406E-07;100 nA
-0,2001953125;68,9291188259707;-3,3782958984375E-08;-0,199371337890625;2;124;4,27752830088139E-07;-4,2458613589406E-07;100 nA
-0,250244140625;69,4296068247071;-3,43536376953125E-08;-0,249237060546875;2;125;4,27752830088139E-07;-4,2458613589406E-07;100 nA
-0,30029296875;69,9300948234435;-3,5003662109375E-08;-0,2991943359375;2;126;4,27752830088139E-07;-4,2458613589406E-07;100 nA
-0,350341796875;70,4305828221799;-3,5723876953125E-08;-0,34912109375;2;127;4,27752830088139E-07;-4,2458613589406E-07;100 nA
-0,400390625;70,9310708209163;-3,651123046875E-08;-0,3990478515625;2;128;4,27752830088139E-07;-4,2458613589406E-07;100 nA
-0,450439453125;71,4315588196527;-3,72589111328125E-08;-0,448944091796875;2;129;4,27752830088139E-07;-4,2458613589406E-07;100 nA
-0,50048828125;71,932046818389;-3,71551513671875E-08;-0,498809814453125;2;130;4,27752830088139E-07;-4,2458613589406E-07;100 nA
-0,550537109375;72,4325348171254;-3,41064453125E-08;-0,548736572265625;2;131;4,27752830088139E-07;-4,2458613589406E-07;100 nA
-0,6005859375;72,9330228158618;-3,033447265625E-08;-0,598663330078125;2;132;4,27752830088139E-07;-4,2458613589406E-07;100 nA
-0,650634765625;73,4335108145982;-2,8826904296875E-08;-0,648529052734375;2;133;4,27752830088139E-07;-4,2458613589406E-07;100 nA
-0,70068359375;73,9339988133346;-2,72216796875E-08;-0,698577880859375;2;134;4,27752830088139E-07;-4,2458613589406E-07;100 nA
-0,750732421875;74,434486812071;-2,56011962890625E-08;-0,748565673828125;2;135;4,27752830088139E-07;-4,2458613589406E-07;100 nA
-0,80078125;74,9349748108074;-2,44415283203125E-08;-0,79864501953125;2;136;4,27752830088139E-07;-4,2458613589406E-07;100 nA
-0,850830078125;75,4354628095438;-2,39227294921875E-08;-0,84930419921875;2;137;4,27752830088139E-07;-4,2458613589406E-07;100 nA
-0,90087890625;75,9359508082802;-2,3822021484375E-08;-0,8984375;2;138;4,27752830088139E-07;-4,2458613589406E-07;100 nA
-0,950927734375;76,4364388070165;-2,3870849609375E-08;-0,948486328125;2;139;4,27752830088139E-07;-4,2458613589406E-07;100 nA
-1,0009765625;76,9369268057529;-2,38128662109375E-08;-0,9991455078125;2;140;4,27752830088139E-07;-4,2458613589406E-07;100 nA
-0,950927734375;77,4374148044893;-1,5093994140625E-08;-0,94879150390625;2;141;4,27752830088139E-07;-4,2458613589406E-07;100 nA
-0,90087890625;77,9379028032257;-1,002197265625E-08;-0,89874267578125;2;142;4,27752830088139E-07;-4,2458613589406E-07;100 nA
-0,850830078125;78,4383908019621;-6,5643310546875E-09;-0,84869384765625;2;143;4,27752830088139E-07;-4,2458613589406E-07;100 nA
-0,80078125;78,9388788006985;-3,9703369140625E-09;-0,7989501953125;2;144;4,27752830088139E-07;-4,2458613589406E-07;100 nA
-0,750732421875;79,4393667994349;-1,9000244140625E-09;-0,748626708984375;2;145;4,27752830088139E-07;-4,2458613589406E-07;100 nA
-0,70068359375;79,9398547981713;-1,6815185546875E-10;-0,698638916015625;2;146;4,27752830088139E-07;-4,2458613589406E-07;100 nA
-0,650634765625;80,4403427969077;1,3543701171875E-09;-0,648651123046875;2;147;4,27752830088139E-07;-4,2458613589406E-07;100 nA
-0,6005859375;80,940830795644;2,7374267578125E-09;-0,598724365234375;2;148;4,27752830088139E-07;-4,2458613589406E-07;100 nA
-0,550537109375;81,4413187943804;4,0283203125E-09;-0,548797607421875;2;149;4,27752830088139E-07;-4,2458613589406E-07;100 nA
-0,50048828125;81,9418067931168;5,267333984375E-09;-0,498992919921875;2;150;4,27752830088139E-07;-4,2458613589406E-07;100 nA
-0,450439453125;82,4422947918532;6,5643310546875E-09;-0,449005126953125;2;151;4,27752830088139E-07;-4,2458613589406E-07;100 nA
-0,400390625;82,9427827905896;7,9833984375E-09;-0,399139404296875;2;152;4,27752830088139E-07;-4,2458613589406E-07;100 nA
-0,350341796875;83,443270789326;9,4085693359375E-09;-0,349273681640625;2;153;4,27752830088139E-07;-4,2458613589406E-07;100 nA
-0,30029296875;83,9437587880624;1,07086181640625E-08;-0,29937744140625;2;154;4,27752830088139E-07;-4,2458613589406E-07;100 nA
-0,250244140625;84,4442467867988;1,1932373046875E-08;-0,24945068359375;2;155;4,27752830088139E-07;-4,2458613589406E-07;100 nA
-0,2001953125;84,9447347855352;1,317138671875E-08;-0,199554443359375;2;156;4,27752830088139E-07;-4,2458613589406E-07;100 nA
-0,150146484375;85,4452227842716;1,4501953125E-08;-0,149627685546875;2;157;4,27752830088139E-07;-4,2458613589406E-07;100 nA
-0,10009765625;85,9457107830079;1,60858154296875E-08;-0,099761962890625;2;158;4,27752830088139E-07;-4,2458613589406E-07;100 nA
-0,050048828125;86,4461987817443;1,80816650390625E-08;-0,04986572265625;2;159;4,27752830088139E-07;-4,2458613589406E-07;100 nA
0;86,9466867804807;2,052001953125E-08;0,000112915039062494;2;160;4,27752830088139E-07;-4,2458613589406E-07;100 nA
0,050048828125;87,4471747792171;2,310791015625E-08;0,050048828125;3;161;4,3212141096592E-07;-4,25069089978933E-07;100 nA
0,10009765625;87,9476627779535;2,5018310546875E-08;0,100006103515625;3;162;4,3212141096592E-07;-4,25069089978933E-07;100 nA
0,150146484375;88,4481507766899;2,6239013671875E-08;0,150054931640625;3;163;4,3212141096592E-07;-4,25069089978933E-07;100 nA
0,2001953125;88,9486387754263;2,70843505859375E-08;0,200042724609375;3;164;4,3212141096592E-07;-4,25069089978933E-07;100 nA
0,250244140625;89,4491267741627;2,80426025390625E-08;0,250091552734375;3;165;4,3212141096592E-07;-4,25069089978933E-07;100 nA
0,30029296875;89,9496147728991;2,91748046875E-08;0,300048828125;3;166;4,3212141096592E-07;-4,25069089978933E-07;100 nA
0,350341796875;90,4501027716354;3,02764892578125E-08;0,350067138671875;3;167;4,3212141096592E-07;-4,25069089978933E-07;100 nA
0,400390625;90,9505907703718;3,12347412109375E-08;0,400054931640625;3;168;4,3212141096592E-07;-4,25069089978933E-07;100 nA
0,450439453125;91,4510787691082;3,2110595703125E-08;0,4500732421875;3;169;4,3212141096592E-07;-4,25069089978933E-07;100 nA
0,50048828125;91,9515667678446;3,26873779296875E-08;0,500030517578125;3;170;4,3212141096592E-07;-4,25069089978933E-07;100 nA
0,550537109375;92,452054766581;3,336181640625E-08;0,55010986328125;3;171;4,3212141096592E-07;-4,25069089978933E-07;100 nA
0,6005859375;92,9525427653174;3,3721923828125E-08;0,60003662109375;3;172;4,3212141096592E-07;-4,25069089978933E-07;100 nA
0,650634765625;93,4530307640538;3,353271484375E-08;0,649993896484375;3;173;4,3212141096592E-07;-4,25069089978933E-07;100 nA
0,70068359375;93,9535187627902;3,348388671875E-08;0,69989013671875;3;174;4,3212141096592E-07;-4,25069089978933E-07;100 nA
0,750732421875;94,4540067615266;3,3782958984375E-08;0,749847412109375;3;175;4,3212141096592E-07;-4,25069089978933E-07;100 nA
0,80078125;94,9544947602629;3,406982421875E-08;0,79986572265625;3;176;4,3212141096592E-07;-4,25069089978933E-07;100 nA
0,850830078125;95,4549827589993;3,43170166015625E-08;0,849609375;3;177;4,3212141096592E-07;-4,25069089978933E-07;100 nA
0,90087890625;95,9554707577357;3,4521484375E-08;0,899658203125;3;178;4,3212141096592E-07;-4,25069089978933E-07;100 nA
0,950927734375;96,4559587564721;3,47900390625E-08;0,9503173828125;3;179;4,3212141096592E-07;-4,25069089978933E-07;100 nA
1,0009765625;96,9564467552085;3,51165771484375E-08;0,99945068359375;3;180;4,3212141096592E-07;-4,25069089978933E-07;100 nA
0,950927734375;97,4569347539449;2,66693115234375E-08;0,9490966796875;3;181;4,3212141096592E-07;-4,25069089978933E-07;100 nA
0,90087890625;97,9574227526813;2,08099365234375E-08;0,9002685546875;3;182;4,3212141096592E-07;-4,25069089978933E-07;100 nA
0,850830078125;98,4579107514177;1,61956787109375E-08;0,84991455078125;3;183;4,3212141096592E-07;-4,25069089978933E-07;100 nA
0,80078125;98,9583987501541;1,23321533203125E-08;0,8001708984375;3;184;4,3212141096592E-07;-4,25069089978933E-07;100 nA
0,750732421875;99,4588867488905;8,9813232421875E-09;0,749908447265625;3;185;4,3212141096592E-07;-4,25069089978933E-07;100 nA
0,70068359375;99,9593747476268;6,01806640625E-09;0,699951171875;3;186;4,3212141096592E-07;-4,25069089978933E-07;100 nA
0,650634765625;100,459862746363;3,3233642578125E-09;0,650054931640625;3;187;4,3212141096592E-07;-4,25069089978933E-07;100 nA
0,6005859375;100,9603507451;8,2122802734375E-10;0,60015869140625;3;188;4,3212141096592E-07;-4,25069089978933E-07;100 nA
0,550537109375;101,460838743836;-1,61773681640625E-09;0,550262451171875;3;189;4,3212141096592E-07;-4,25069089978933E-07;100 nA
0,50048828125;101,961326742572;-4,0557861328125E-09;0,50018310546875;3;190;4,3212141096592E-07;-4,25069089978933E-07;100 nA
0,450439453125;102,461814741309;-6,4697265625E-09;0,450164794921875;3;191;4,3212141096592E-07;-4,25069089978933E-07;100 nA
0,400390625;102,962302740045;-8,9752197265625E-09;0,40020751953125;3;192;4,3212141096592E-07;-4,25069089978933E-07;100 nA
0,350341796875;103,462790738782;-1,16363525390625E-08;0,350250244140625;3;193;4,3212141096592E-07;-4,25069089978933E-07;100 nA
0,30029296875;103,963278737518;-1,4471435546875E-08;0,3001708984375;3;194;4,3212141096592E-07;-4,25069089978933E-07;100 nA
0,250244140625;104,463766736254;-1,74652099609375E-08;0,250213623046875;3;195;4,3212141096592E-07;-4,25069089978933E-07;100 nA
0,2001953125;104,964254734991;-2,061767578125E-08;0,200164794921875;3;196;4,3212141096592E-07;-4,25069089978933E-07;100 nA
0,150146484375;105,464742733727;-2,39654541015625E-08;0,150177001953125;3;197;4,3212141096592E-07;-4,25069089978933E-07;100 nA
0,10009765625;105,965230732464;-2,70416259765625E-08;0,100189208984375;3;198;4,3212141096592E-07;-4,25069089978933E-07;100 nA
0,050048828125;106,4657187312;-2,940673828125E-08;0,050201416015625;3;199;4,3212141096592E-07;-4,25069089978933E-07;100 nA
0;106,966206729936;-3,08990478515625E-08;0,000170898437499997;3;200;4,3212141096592E-07;-4,25069089978933E-07;100 nA
-0,050048828125;107,466694728673;-3,192138671875E-08;-0,049688720703125;3;201;4,3212141096592E-07;-4,25069089978933E-07;100 nA
-0,10009765625;107,967182727409;-3,255615234375E-08;-0,099578857421875;3;202;4,3212141096592E-07;-4,25069089978933E-07;100 nA
-0,150146484375;108,467670726145;-3,31298828125E-08;-0,1495361328125;3;203;4,3212141096592E-07;-4,25069089978933E-07;100 nA
-0,2001953125;108,968158724882;-3,39019775390625E-08;-0,199371337890625;3;204;4,3212141096592E-07;-4,25069089978933E-07;100 nA
-0,250244140625;109,468646723618;-3,45123291015625E-08;-0,24932861328125;3;205;4,3212141096592E-07;-4,25069089978933E-07;100 nA
-0,30029296875;109,969134722355;-3,51806640625E-08;-0,299224853515625;3;206;4,3212141096592E-07;-4,25069089978933E-07;100 nA
-0,350341796875;110,469622721091;-3,59283447265625E-08;-0,349090576171875;3;207;4,3212141096592E-07;-4,25069089978933E-07;100 nA
-0,400390625;110,970110719827;-3,671875E-08;-0,3990478515625;3;208;4,3212141096592E-07;-4,25069089978933E-07;100 nA
-0,450439453125;111,470598718564;-3,74908447265625E-08;-0,448883056640625;3;209;4,3212141096592E-07;-4,25069089978933E-07;100 nA
-0,50048828125;111,9710867173;-3,75152587890625E-08;-0,498779296875;3;210;4,3212141096592E-07;-4,25069089978933E-07;100 nA
-0,550537109375;112,471574716037;-3,48175048828125E-08;-0,548736572265625;3;211;4,3212141096592E-07;-4,25069089978933E-07;100 nA
-0,6005859375;112,972062714773;-3,06121826171875E-08;-0,5986328125;3;212;4,3212141096592E-07;-4,25069089978933E-07;100 nA
-0,650634765625;113,472550713509;-2,900390625E-08;-0,6485595703125;3;213;4,3212141096592E-07;-4,25069089978933E-07;100 nA
-0,70068359375;113,973038712246;-2,738037109375E-08;-0,69854736328125;3;214;4,3212141096592E-07;-4,25069089978933E-07;100 nA
-0,750732421875;114,473526710982;-2,56866455078125E-08;-0,748626708984375;3;215;4,3212141096592E-07;-4,25069089978933E-07;100 nA
-0,80078125;114,974014709719;-2,44659423828125E-08;-0,79864501953125;3;216;4,3212141096592E-07;-4,25069089978933E-07;100 nA
-0,850830078125;115,474502708455;-2,388916015625E-08;-0,848388671875;3;217;4,3212141096592E-07;-4,25069089978933E-07;100 nA
-0,90087890625;115,974990707191;-2,3712158203125E-08;-0,8990478515625;3;218;4,3212141096592E-07;-4,25069089978933E-07;100 nA
-0,950927734375;116,475478705928;-2,36663818359375E-08;-0,9490966796875;3;219;4,3212141096592E-07;-4,25069089978933E-07;100 nA
-1,0009765625;116,975966704664;-2,3468017578125E-08;-0,99884033203125;3;220;4,3212141096592E-07;-4,25069089978933E-07;100 nA
-0,950927734375;117,4764547034;-1,47979736328125E-08;-0,9490966796875;3;221;4,3212141096592E-07;-4,25069089978933E-07;100 nA
-0,90087890625;117,976942702137;-9,8358154296875E-09;-0,8984375;3;222;4,3212141096592E-07;-4,25069089978933E-07;100 nA
-0,850830078125;118,477430700873;-6,4697265625E-09;-0,84869384765625;3;223;4,3212141096592E-07;-4,25069089978933E-07;100 nA
-0,80078125;118,97791869961;-3,9398193359375E-09;-0,79864501953125;3;224;4,3212141096592E-07;-4,25069089978933E-07;100 nA
-0,750732421875;119,478406698346;-1,9036865234375E-09;-0,7486572265625;3;225;4,3212141096592E-07;-4,25069089978933E-07;100 nA
-0,70068359375;119,978894697082;-1,81884765625E-10;-0,698638916015625;3;226;4,3212141096592E-07;-4,25069089978933E-07;100 nA
-0,650634765625;120,479382695819;1,32965087890625E-09;-0,64862060546875;3;227;4,3212141096592E-07;-4,25069089978933E-07;100 nA
-0,6005859375;120,979870694555;2,7008056640625E-09;-0,59869384765625;3;228;4,3212141096592E-07;-4,25069089978933E-07;100 nA
-0,550537109375;121,480358693292;3,99169921875E-09;-0,548797607421875;3;229;4,3212141096592E-07;-4,25069089978933E-07;100 nA
-0,50048828125;121,980846692028;5,2398681640625E-09;-0,498870849609375;3;230;4,3212141096592E-07;-4,25069089978933E-07;100 nA
-0,450439453125;122,481334690764;6,5521240234375E-09;-0,44903564453125;3;231;4,3212141096592E-07;-4,25069089978933E-07;100 nA
-0,400390625;122,981822689501;7,97119140625E-09;-0,399169921875;3;232;4,3212141096592E-07;-4,25069089978933E-07;100 nA
-0,350341796875;123,482310688237;9,4024658203125E-09;-0,3492431640625;3;233;4,3212141096592E-07;-4,25069089978933E-07;100 nA
-0,30029296875;123,982798686974;1,070556640625E-08;-0,29931640625;3;234;4,3212141096592E-07;-4,25069089978933E-07;100 nA
-0,250244140625;124,48328668571;1,19415283203125E-08;-0,249420166015625;3;235;4,3212141096592E-07;-4,25069089978933E-07;100 nA
-0,2001953125;124,983774684446;1,31988525390625E-08;-0,199493408203125;3;236;4,3212141096592E-07;-4,25069089978933E-07;100 nA
-0,150146484375;125,484262683183;1,45477294921875E-08;-0,149688720703125;3;237;4,3212141096592E-07;-4,25069089978933E-07;100 nA
-0,10009765625;125,984750681919;1,61651611328125E-08;-0,099761962890625;3;238;4,3212141096592E-07;-4,25069089978933E-07;100 nA
-0,050048828125;126,485238680655;1,81884765625E-08;-0,0498046875;3;239;4,3212141096592E-07;-4,25069089978933E-07;100 nA
0;126,985726679392;2,06390380859375E-08;9,76562499999944E-05;3;240;4,3212141096592E-07;-4,25069089978933E-07;100 nA
0,050048828125;127,486214678128;2,3272705078125E-08;0,050048828125;4;241;4,33970138430595E-07;-4,25687674432993E-07;100 nA
0,10009765625;127,986702676865;2,5244140625E-08;0,10003662109375;4;242;4,33970138430595E-07;-4,25687674432993E-07;100 nA
0,150146484375;128,487190675601;2,6507568359375E-08;0,1500244140625;4;243;4,33970138430595E-07;-4,25687674432993E-07;100 nA
0,2001953125;128,987678674337;2,7349853515625E-08;0,20001220703125;4;244;4,33970138430595E-07;-4,25687674432993E-07;100 nA
0,250244140625;129,488166673074;2,82470703125E-08;0,250030517578125;4;245;4,33970138430595E-07;-4,25687674432993E-07;100 nA
0,30029296875;129,98865467181;2,935791015625E-08;0,300018310546875;4;246;4,33970138430595E-07;-4,25687674432993E-07;100 nA
0,350341796875;130,489142670547;3,0474853515625E-08;0,350067138671875;4;247;4,33970138430595E-07;-4,25687674432993E-07;100 nA
0,400390625;130,989630669283;3,14239501953125E-08;0,40008544921875;4;248;4,33970138430595E-07;-4,25687674432993E-07;100 nA
0,450439453125;131,490118668019;3,228759765625E-08;0,4500732421875;4;249;4,33970138430595E-07;-4,25687674432993E-07;100 nA
0,50048828125;131,990606666756;3,28460693359375E-08;0,500030517578125;4;250;4,33970138430595E-07;-4,25687674432993E-07;100 nA
0,550537109375;132,491094665492;3,35113525390625E-08;0,550048828125;4;251;4,33970138430595E-07;-4,25687674432993E-07;100 nA
0,6005859375;132,991582664229;3,38226318359375E-08;0,600067138671875;4;252;4,33970138430595E-07;-4,25687674432993E-07;100 nA
0,650634765625;133,492070662965;3,358154296875E-08;0,6500244140625;4;253;4,33970138430595E-07;-4,25687674432993E-07;100 nA
0,70068359375;133,992558661701;3,355712890625E-08;0,699920654296875;4;254;4,33970138430595E-07;-4,25687674432993E-07;100 nA
0,750732421875;134,493046660438;3,38775634765625E-08;0,74981689453125;4;255;4,33970138430595E-07;-4,25687674432993E-07;100 nA
0,80078125;134,993534659174;3,41796875E-08;0,8001708984375;4;256;4,33970138430595E-07;-4,25687674432993E-07;100 nA
0,850830078125;135,49402265791;3,4442138671875E-08;0,8502197265625;4;257;4,33970138430595E-07;-4,25687674432993E-07;100 nA
0,90087890625;135,994510656647;3,46405029296875E-08;0,9002685546875;4;258;4,33970138430595E-07;-4,25687674432993E-07;100 nA
0,950927734375;136,494998655383;3,49151611328125E-08;0,95001220703125;4;259;4,33970138430595E-07;-4,25687674432993E-07;100 nA
1,0009765625;136,99548665412;3,52203369140625E-08;0,99945068359375;4;260;4,33970138430595E-07;-4,25687674432993E-07;100 nA
0,950927734375;137,495974652856;2,6776123046875E-08;0,94970703125;4;261;4,33970138430595E-07;-4,25687674432993E-07;100 nA
0,90087890625;137,996462651592;2,08984375E-08;0,89996337890625;4;262;4,33970138430595E-07;-4,25687674432993E-07;100 nA
0,850830078125;138,496950650329;1,6278076171875E-08;0,84991455078125;4;263;4,33970138430595E-07;-4,25687674432993E-07;100 nA
0,80078125;138,997438649065;1,239013671875E-08;0,799560546875;4;264;4,33970138430595E-07;-4,25687674432993E-07;100 nA
0,750732421875;139,497926647802;9,0362548828125E-09;0,749908447265625;4;265;4,33970138430595E-07;-4,25687674432993E-07;100 nA
0,70068359375;139,998414646538;6,06689453125E-09;0,699981689453125;4;266;4,33970138430595E-07;-4,25687674432993E-07;100 nA
0,650634765625;140,498902645274;3,363037109375E-09;0,650146484375;4;267;4,33970138430595E-07;-4,25687674432993E-07;100 nA
0,6005859375;140,999390644011;8,58154296874999E-10;0,60015869140625;4;268;4,33970138430595E-07;-4,25687674432993E-07;100 nA
0,550537109375;141,499878642747;-1,578369140625E-09;0,5501708984375;4;269;4,33970138430595E-07;-4,25687674432993E-07;100 nA
0,50048828125;142,000366641484;-4,01611328125E-09;0,500213623046875;4;270;4,33970138430595E-07;-4,25687674432993E-07;100 nA
0,450439453125;142,50085464022;-6,43310546875E-09;0,4501953125;4;271;4,33970138430595E-07;-4,25687674432993E-07;100 nA
0,400390625;143,001342638956;-8,92333984375E-09;0,400177001953125;4;272;4,33970138430595E-07;-4,25687674432993E-07;100 nA
0,350341796875;143,501830637693;-1,156005859375E-08;0,350189208984375;4;273;4,33970138430595E-07;-4,25687674432993E-07;100 nA
0,30029296875;144,002318636429;-1,4404296875E-08;0,3001708984375;4;274;4,33970138430595E-07;-4,25687674432993E-07;100 nA
0,250244140625;144,502806635165;-1,74102783203125E-08;0,25018310546875;4;275;4,33970138430595E-07;-4,25687674432993E-07;100 nA
0,2001953125;145,003294633902;-2,06268310546875E-08;0,20013427734375;4;276;4,33970138430595E-07;-4,25687674432993E-07;100 nA
0,150146484375;145,503782632638;-2,40386962890625E-08;0,150146484375;4;277;4,33970138430595E-07;-4,25687674432993E-07;100 nA
0,10009765625;146,004270631375;-2,7099609375E-08;0,10015869140625;4;278;4,33970138430595E-07;-4,25687674432993E-07;100 nA
0,050048828125;146,504758630111;-2,9443359375E-08;0,0501708984375;4;279;4,33970138430595E-07;-4,25687674432993E-07;100 nA
0;147,005246628847;-3,09051513671875E-08;0,000173950195312494;4;280;4,33970138430595E-07;-4,25687674432993E-07;100 nA
-0,050048828125;147,505734627584;-3,19793701171875E-08;-0,0496856689453125;4;281;4,33970138430595E-07;-4,25687674432993E-07;100 nA
-0,10009765625;148,00622262632;-3,26446533203125E-08;-0,099578857421875;4;282;4,33970138430595E-07;-4,25687674432993E-07;100 nA
-0,150146484375;148,506710625057;-3,3203125E-08;-0,149566650390625;4;283;4,33970138430595E-07;-4,25687674432993E-07;100 nA
-0,2001953125;149,007198623793;-3,397216796875E-08;-0,199371337890625;4;284;4,33970138430595E-07;-4,25687674432993E-07;100 nA
-0,250244140625;149,507686622529;-3,45916748046875E-08;-0,249298095703125;4;285;4,33970138430595E-07;-4,25687674432993E-07;100 nA
-0,30029296875;150,008174621266;-3,52783203125E-08;-0,299224853515625;4;286;4,33970138430595E-07;-4,25687674432993E-07;100 nA
-0,350341796875;150,508662620002;-3,60382080078125E-08;-0,349090576171875;4;287;4,33970138430595E-07;-4,25687674432993E-07;100 nA
-0,400390625;151,009150618739;-3,68499755859375E-08;-0,39898681640625;4;288;4,33970138430595E-07;-4,25687674432993E-07;100 nA
-0,450439453125;151,509638617475;-3,76312255859375E-08;-0,448944091796875;4;289;4,33970138430595E-07;-4,25687674432993E-07;100 nA
-0,50048828125;152,010126616211;-3,77288818359375E-08;-0,498779296875;4;290;4,33970138430595E-07;-4,25687674432993E-07;100 nA
-0,550537109375;152,510614614948;-3,53302001953125E-08;-0,548797607421875;4;291;4,33970138430595E-07;-4,25687674432993E-07;100 nA
-0,6005859375;153,011102613684;-3,082275390625E-08;-0,5986328125;4;292;4,33970138430595E-07;-4,25687674432993E-07;100 nA
-0,650634765625;153,51159061242;-2,9132080078125E-08;-0,6485595703125;4;293;4,33970138430595E-07;-4,25687674432993E-07;100 nA
-0,70068359375;154,012078611157;-2,75146484375E-08;-0,69854736328125;4;294;4,33970138430595E-07;-4,25687674432993E-07;100 nA
-0,750732421875;154,512566609893;-2,57568359375E-08;-0,748626708984375;4;295;4,33970138430595E-07;-4,25687674432993E-07;100 nA
-0,80078125;155,01305460863;-2,449951171875E-08;-0,79833984375;4;296;4,33970138430595E-07;-4,25687674432993E-07;100 nA
-0,850830078125;155,513542607366;-2,38800048828125E-08;-0,848388671875;4;297;4,33970138430595E-07;-4,25687674432993E-07;100 nA
-0,90087890625;156,014030606102;-2,36480712890625E-08;-0,8984375;4;298;4,33970138430595E-07;-4,25687674432993E-07;100 nA
-0,950927734375;156,514518604839;-2,352294921875E-08;-0,94879150390625;4;299;4,33970138430595E-07;-4,25687674432993E-07;100 nA
-1,0009765625;157,015006603575;-2,32208251953125E-08;-0,9991455078125;4;300;4,33970138430595E-07;-4,25687674432993E-07;100 nA
-0,950927734375;157,515494602312;-1,46209716796875E-08;-0,94940185546875;4;301;4,33970138430595E-07;-4,25687674432993E-07;100 nA
-0,90087890625;158,015982601048;-9,7503662109375E-09;-0,89874267578125;4;302;4,33970138430595E-07;-4,25687674432993E-07;100 nA
-0,850830078125;158,516470599784;-6,427001953125E-09;-0,8489990234375;4;303;4,33970138430595E-07;-4,25687674432993E-07;100 nA
-0,80078125;159,016958598521;-3,9276123046875E-09;-0,7989501953125;4;304;4,33970138430595E-07;-4,25687674432993E-07;100 nA
-0,750732421875;159,517446597257;-1,9219970703125E-09;-0,74859619140625;4;305;4,33970138430595E-07;-4,25687674432993E-07;100 nA
-0,70068359375;160,017934595994;-2,1209716796875E-10;-0,69873046875;4;306;4,33970138430595E-07;-4,25687674432993E-07;100 nA
-0,650634765625;160,51842259473;1,2969970703125E-09;-0,648681640625;4;307;4,33970138430595E-07;-4,25687674432993E-07;100 nA
-0,6005859375;161,018910593466;2,67333984375E-09;-0,598724365234375;4;308;4,33970138430595E-07;-4,25687674432993E-07;100 nA
-0,550537109375;161,519398592203;3,9581298828125E-09;-0,548828125;4;309;4,33970138430595E-07;-4,25687674432993E-07;100 nA
-0,50048828125;162,019886590939;5,206298828125E-09;-0,4989013671875;4;310;4,33970138430595E-07;-4,25687674432993E-07;100 nA
-0,450439453125;162,520374589676;6,53076171875E-09;-0,449005126953125;4;311;4,33970138430595E-07;-4,25687674432993E-07;100 nA
-0,400390625;163,020862588412;7,9681396484375E-09;-0,399169921875;4;312;4,33970138430595E-07;-4,25687674432993E-07;100 nA
-0,350341796875;163,521350587148;9,393310546875E-09;-0,3492431640625;4;313;4,33970138430595E-07;-4,25687674432993E-07;100 nA
-0,30029296875;164,021838585885;1,0693359375E-08;-0,29931640625;4;314;4,33970138430595E-07;-4,25687674432993E-07;100 nA
-0,250244140625;164,522326584621;1,19415283203125E-08;-0,2493896484375;4;315;4,33970138430595E-07;-4,25687674432993E-07;100 nA
-0,2001953125;165,022814583357;1,32080078125E-08;-0,19952392578125;4;316;4,33970138430595E-07;-4,25687674432993E-07;100 nA
-0,150146484375;165,523302582094;1,45904541015625E-08;-0,149658203125;4;317;4,33970138430595E-07;-4,25687674432993E-07;100 nA
-0,10009765625;166,02379058083;1,62322998046875E-08;-0,099761962890625;4;318;4,33970138430595E-07;-4,25687674432993E-07;100 nA
-0,050048828125;166,524278579567;1,82647705078125E-08;-0,0499267578125;4;319;4,33970138430595E-07;-4,25687674432993E-07;100 nA
0;167,024766578303;2,0709228515625E-08;0,0001068115234375;4;320;4,33970138430595E-07;-4,25687674432993E-07;100 nA
0,050048828125;167,525254577039;2,3382568359375E-08;0,050018310546875;5;321;4,34880144894123E-07;-4,2586500197649E-07;100 nA
0,10009765625;168,025742575776;2,5396728515625E-08;0,10003662109375;5;322;4,34880144894123E-07;-4,2586500197649E-07;100 nA
0,150146484375;168,526230574512;2,66937255859375E-08;0,1500244140625;5;323;4,34880144894123E-07;-4,2586500197649E-07;100 nA
0,2001953125;169,026718573249;2,75177001953125E-08;0,199981689453125;5;324;4,34880144894123E-07;-4,2586500197649E-07;100 nA
0,250244140625;169,527206571985;2,83935546875E-08;0,250030517578125;5;325;4,34880144894123E-07;-4,2586500197649E-07;100 nA
0,30029296875;170,027694570721;2,9498291015625E-08;0,300048828125;5;326;4,34880144894123E-07;-4,2586500197649E-07;100 nA
0,350341796875;170,528182569458;3,05816650390625E-08;0,350067138671875;5;327;4,34880144894123E-07;-4,2586500197649E-07;100 nA
0,400390625;171,028670568194;3,1536865234375E-08;0,40008544921875;5;328;4,34880144894123E-07;-4,2586500197649E-07;100 nA
0,450439453125;171,529158566931;3,238525390625E-08;0,4500732421875;5;329;4,34880144894123E-07;-4,2586500197649E-07;100 nA
0,50048828125;172,029646565667;3,2928466796875E-08;0,500091552734375;5;330;4,34880144894123E-07;-4,2586500197649E-07;100 nA
0,550537109375;172,530134564403;3,35906982421875E-08;0,550018310546875;5;331;4,34880144894123E-07;-4,2586500197649E-07;100 nA
0,6005859375;173,03062256314;3,38531494140625E-08;0,600067138671875;5;332;4,34880144894123E-07;-4,2586500197649E-07;100 nA
0,650634765625;173,531110561876;3,359375E-08;0,650054931640625;5;333;4,34880144894123E-07;-4,2586500197649E-07;100 nA
0,70068359375;174,031598560612;3,35784912109375E-08;0,69989013671875;5;334;4,34880144894123E-07;-4,2586500197649E-07;100 nA
0,750732421875;174,532086559349;3,389892578125E-08;0,74981689453125;5;335;4,34880144894123E-07;-4,2586500197649E-07;100 nA
0,80078125;175,032574558085;3,421630859375E-08;0,79986572265625;5;336;4,34880144894123E-07;-4,2586500197649E-07;100 nA
0,850830078125;175,533062556822;3,4478759765625E-08;0,84930419921875;5;337;4,34880144894123E-07;-4,2586500197649E-07;100 nA
0,90087890625;176,033550555558;3,470458984375E-08;0,899658203125;5;338;4,34880144894123E-07;-4,2586500197649E-07;100 nA
0,950927734375;176,534038554294;3,49945068359375E-08;0,94940185546875;5;339;4,34880144894123E-07;-4,2586500197649E-07;100 nA
1,0009765625;177,034526553031;3,53179931640625E-08;1,00006103515625;5;340;4,34880144894123E-07;-4,2586500197649E-07;100 nA
0,950927734375;177,535014551767;2,68310546875E-08;0,94970703125;5;341;4,34880144894123E-07;-4,2586500197649E-07;100 nA
0,90087890625;178,035502550504;2,0947265625E-08;0,9002685546875;5;342;4,34880144894123E-07;-4,2586500197649E-07;100 nA
0,850830078125;178,53599054924;1,62994384765625E-08;0,84991455078125;5;343;4,34880144894123E-07;-4,2586500197649E-07;100 nA
0,80078125;179,036478547976;1,24237060546875E-08;0,80047607421875;5;344;4,34880144894123E-07;-4,2586500197649E-07;100 nA
0,750732421875;179,536966546713;9,0545654296875E-09;0,7498779296875;5;345;4,34880144894123E-07;-4,2586500197649E-07;100 nA
0,70068359375;180,037454545449;6,0882568359375E-09;0,699981689453125;5;346;4,34880144894123E-07;-4,2586500197649E-07;100 nA
0,650634765625;180,537942544186;3,387451171875E-09;0,65008544921875;5;347;4,34880144894123E-07;-4,2586500197649E-07;100 nA
0,6005859375;181,038430542922;8,7921142578125E-10;0,600128173828125;5;348;4,34880144894123E-07;-4,2586500197649E-07;100 nA
0,550537109375;181,538918541658;-1,56524658203125E-09;0,5501708984375;5;349;4,34880144894123E-07;-4,2586500197649E-07;100 nA
0,50048828125;182,039406540395;-4,0008544921875E-09;0,500274658203125;5;350;4,34880144894123E-07;-4,2586500197649E-07;100 nA
0,450439453125;182,539894539131;-6,4056396484375E-09;0,450164794921875;5;351;4,34880144894123E-07;-4,2586500197649E-07;100 nA
0,400390625;183,040382537867;-8,8836669921875E-09;0,400146484375;5;352;4,34880144894123E-07;-4,2586500197649E-07;100 nA
0,350341796875;183,540870536604;-1,15081787109375E-08;0,3502197265625;5;353;4,34880144894123E-07;-4,2586500197649E-07;100 nA
0,30029296875;184,04135853534;-1,43280029296875E-08;0,300140380859375;5;354;4,34880144894123E-07;-4,2586500197649E-07;100 nA
0,250244140625;184,541846534077;-1,7364501953125E-08;0,250152587890625;5;355;4,34880144894123E-07;-4,2586500197649E-07;100 nA
0,2001953125;185,042334532813;-2,06298828125E-08;0,2001953125;5;356;4,34880144894123E-07;-4,2586500197649E-07;100 nA
0,150146484375;185,542822531549;-2,40814208984375E-08;0,150177001953125;5;357;4,34880144894123E-07;-4,2586500197649E-07;100 nA
0,10009765625;186,043310530286;-2,71392822265625E-08;0,10015869140625;5;358;4,34880144894123E-07;-4,2586500197649E-07;100 nA
0,050048828125;186,543798529022;-2,9449462890625E-08;0,050201416015625;5;359;4,34880144894123E-07;-4,2586500197649E-07;100 nA
0;187,044286527759;-3,089599609375E-08;0,00018310546875;5;360;4,34880144894123E-07;-4,2586500197649E-07;100 nA
-0,050048828125;187,544774526495;-3,19915771484375E-08;-0,0496795654296875;5;361;4,34880144894123E-07;-4,2586500197649E-07;100 nA
-0,10009765625;188,045262525231;-3,26904296875E-08;-0,099578857421875;5;362;4,34880144894123E-07;-4,2586500197649E-07;100 nA
-0,150146484375;188,545750523968;-3,323974609375E-08;-0,149505615234375;5;363;4,34880144894123E-07;-4,2586500197649E-07;100 nA
-0,2001953125;189,046238522704;-3,399658203125E-08;-0,199462890625;5;364;4,34880144894123E-07;-4,2586500197649E-07;100 nA
-0,250244140625;189,546726521441;-3,46435546875E-08;-0,249298095703125;5;365;4,34880144894123E-07;-4,2586500197649E-07;100 nA
-0,30029296875;190,047214520177;-3,53240966796875E-08;-0,299224853515625;5;366;4,34880144894123E-07;-4,2586500197649E-07;100 nA
-0,350341796875;190,547702518913;-3,60809326171875E-08;-0,349090576171875;5;367;4,34880144894123E-07;-4,2586500197649E-07;100 nA
-0,400390625;191,04819051765;-3,68682861328125E-08;-0,399017333984375;5;368;4,34880144894123E-07;-4,2586500197649E-07;100 nA
-0,450439453125;191,548678516386;-3,768310546875E-08;-0,448944091796875;5;369;4,34880144894123E-07;-4,2586500197649E-07;100 nA
-0,50048828125;192,049166515122;-3,7872314453125E-08;-0,498779296875;5;370;4,34880144894123E-07;-4,2586500197649E-07;100 nA
-0,550537109375;192,549654513859;-3,5650634765625E-08;-0,54876708984375;5;371;4,34880144894123E-07;-4,2586500197649E-07;100 nA
-0,6005859375;193,050142512595;-3,096923828125E-08;-0,59857177734375;5;372;4,34880144894123E-07;-4,2586500197649E-07;100 nA
-0,650634765625;193,550630511332;-2,919921875E-08;-0,648590087890625;5;373;4,34880144894123E-07;-4,2586500197649E-07;100 nA
-0,70068359375;194,051118510068;-2,7569580078125E-08;-0,6986083984375;5;374;4,34880144894123E-07;-4,2586500197649E-07;100 nA
-0,750732421875;194,551606508804;-2,58209228515625E-08;-0,748565673828125;5;375;4,34880144894123E-07;-4,2586500197649E-07;100 nA
-0,80078125;195,052094507541;-2,4517822265625E-08;-0,79833984375;5;376;4,34880144894123E-07;-4,2586500197649E-07;100 nA
-0,850830078125;195,552582506277;-2,38555908203125E-08;-0,8489990234375;5;377;4,34880144894123E-07;-4,2586500197649E-07;100 nA
-0,90087890625;196,053070505014;-2,35748291015625E-08;-0,89874267578125;5;378;4,34880144894123E-07;-4,2586500197649E-07;100 nA
-0,950927734375;196,55355850375;-2,33978271484375E-08;-0,9490966796875;5;379;4,34880144894123E-07;-4,2586500197649E-07;100 nA
-1,0009765625;197,054046502486;-2,30224609375E-08;-0,9991455078125;5;380;4,34880144894123E-07;-4,2586500197649E-07;100 nA
-0,950927734375;197,554534501223;-1,4495849609375E-08;-0,9490966796875;5;381;4,34880144894123E-07;-4,2586500197649E-07;100 nA
-0,90087890625;198,055022499959;-9,6832275390625E-09;-0,8990478515625;5;382;4,34880144894123E-07;-4,2586500197649E-07;100 nA
-0,850830078125;198,555510498696;-6,3812255859375E-09;-0,8489990234375;5;383;4,34880144894123E-07;-4,2586500197649E-07;100 nA
-0,80078125;199,055998497432;-3,9337158203125E-09;-0,7989501953125;5;384;4,34880144894123E-07;-4,2586500197649E-07;100 nA
-0,750732421875;199,556486496168;-1,93939208984375E-09;-0,748687744140625;5;385;4,34880144894123E-07;-4,2586500197649E-07;100 nA
-0,70068359375;200,056974494905;-2,44750976562499E-10;-0,698638916015625;5;386;4,34880144894123E-07;-4,2586500197649E-07;100 nA
-0,650634765625;200,557462493641;1,26007080078125E-09;-0,64862060546875;5;387;4,34880144894123E-07;-4,2586500197649E-07;100 nA
-0,6005859375;201,057950492377;2,62451171875E-09;-0,5987548828125;5;388;4,34880144894123E-07;-4,2586500197649E-07;100 nA
-0,550537109375;201,558438491114;3,90625E-09;-0,54876708984375;5;389;4,34880144894123E-07;-4,2586500197649E-07;100 nA
-0,50048828125;202,05892648985;5,1605224609375E-09;-0,498931884765625;5;390;4,34880144894123E-07;-4,2586500197649E-07;100 nA
-0,450439453125;202,559414488587;6,4971923828125E-09;-0,449005126953125;5;391;4,34880144894123E-07;-4,2586500197649E-07;100 nA
-0,400390625;203,059902487323;7,9437255859375E-09;-0,39910888671875;5;392;4,34880144894123E-07;-4,2586500197649E-07;100 nA
-0,350341796875;203,560390486059;9,36279296875E-09;-0,3492431640625;5;393;4,34880144894123E-07;-4,2586500197649E-07;100 nA
-0,30029296875;204,060878484796;1,06658935546875E-08;-0,299285888671875;5;394;4,34880144894123E-07;-4,2586500197649E-07;100 nA
-0,250244140625;204,561366483532;1,1920166015625E-08;-0,249420166015625;5;395;4,34880144894123E-07;-4,2586500197649E-07;100 nA
-0,2001953125;205,061854482269;1,319580078125E-08;-0,19952392578125;5;396;4,34880144894123E-07;-4,2586500197649E-07;100 nA
-0,150146484375;205,562342481005;1,4605712890625E-08;-0,149627685546875;5;397;4,34880144894123E-07;-4,2586500197649E-07;100 nA
-0,10009765625;206,062830479741;1,62567138671875E-08;-0,0997314453125;5;398;4,34880144894123E-07;-4,2586500197649E-07;100 nA
-0,050048828125;206,563318478478;1,8304443359375E-08;-0,049896240234375;5;399;4,34880144894123E-07;-4,2586500197649E-07;100 nA
0;207,063806477214;2,07550048828125E-08;9,76562499999944E-05;5;400;4,34880144894123E-07;-4,2586500197649E-07;100 nA
0,050048828125;207,564294475951;2,344970703125E-08;0,050018310546875;6;401;4,35599382966757E-07;-4,2614084482193E-07;100 nA
0,10009765625;208,064782474687;2,548828125E-08;0,100006103515625;6;402;4,35599382966757E-07;-4,2614084482193E-07;100 nA
0,150146484375;208,565270473423;2,6806640625E-08;0,1500244140625;6;403;4,35599382966757E-07;-4,2614084482193E-07;100 nA
0,2001953125;209,06575847216;2,76397705078125E-08;0,2000732421875;6;404;4,35599382966757E-07;-4,2614084482193E-07;100 nA
0,250244140625;209,566246470896;2,84759521484375E-08;0,250030517578125;6;405;4,35599382966757E-07;-4,2614084482193E-07;100 nA
0,30029296875;210,066734469632;2,957763671875E-08;0,300018310546875;6;406;4,35599382966757E-07;-4,2614084482193E-07;100 nA
0,350341796875;210,567222468369;3,06640625E-08;0,350067138671875;6;407;4,35599382966757E-07;-4,2614084482193E-07;100 nA
0,400390625;211,067710467105;3,16070556640625E-08;0,400115966796875;6;408;4,35599382966757E-07;-4,2614084482193E-07;100 nA
0,450439453125;211,568198465842;3,2440185546875E-08;0,4500732421875;6;409;4,35599382966757E-07;-4,2614084482193E-07;100 nA
0,50048828125;212,068686464578;3,2989501953125E-08;0,50006103515625;6;410;4,35599382966757E-07;-4,2614084482193E-07;100 nA
0,550537109375;212,569174463314;3,36669921875E-08;0,550048828125;6;411;4,35599382966757E-07;-4,2614084482193E-07;100 nA
0,6005859375;213,069662462051;3,3868408203125E-08;0,600006103515625;6;412;4,35599382966757E-07;-4,2614084482193E-07;100 nA
0,650634765625;213,570150460787;3,35784912109375E-08;0,6500244140625;6;413;4,35599382966757E-07;-4,2614084482193E-07;100 nA
0,70068359375;214,070638459524;3,35845947265625E-08;0,699920654296875;6;414;4,35599382966757E-07;-4,2614084482193E-07;100 nA
0,750732421875;214,57112645826;3,39324951171875E-08;0,74981689453125;6;415;4,35599382966757E-07;-4,2614084482193E-07;100 nA
0,80078125;215,071614456996;3,4246826171875E-08;0,79986572265625;6;416;4,35599382966757E-07;-4,2614084482193E-07;100 nA
0,850830078125;215,572102455733;3,45184326171875E-08;0,849609375;6;417;4,35599382966757E-07;-4,2614084482193E-07;100 nA
0,90087890625;216,072590454469;3,4759521484375E-08;0,89996337890625;6;418;4,35599382966757E-07;-4,2614084482193E-07;100 nA
0,950927734375;216,573078453206;3,5064697265625E-08;0,95001220703125;6;419;4,35599382966757E-07;-4,2614084482193E-07;100 nA
1,0009765625;217,073566451942;3,5394287109375E-08;1,00006103515625;6;420;4,35599382966757E-07;-4,2614084482193E-07;100 nA
0,950927734375;217,574054450678;2,6885986328125E-08;0,95001220703125;6;421;4,35599382966757E-07;-4,2614084482193E-07;100 nA
0,90087890625;218,074542449415;2,09930419921875E-08;0,89996337890625;6;422;4,35599382966757E-07;-4,2614084482193E-07;100 nA
0,850830078125;218,575030448151;1,63360595703125E-08;0,8502197265625;6;423;4,35599382966757E-07;-4,2614084482193E-07;100 nA
0,80078125;219,075518446887;1,2445068359375E-08;0,79986572265625;6;424;4,35599382966757E-07;-4,2614084482193E-07;100 nA
0,750732421875;219,576006445624;9,0850830078125E-09;0,7498779296875;6;425;4,35599382966757E-07;-4,2614084482193E-07;100 nA
0,70068359375;220,07649444436;6,109619140625E-09;0,699951171875;6;426;4,35599382966757E-07;-4,2614084482193E-07;100 nA
0,650634765625;220,576982443097;3,40576171875E-09;0,65008544921875;6;427;4,35599382966757E-07;-4,2614084482193E-07;100 nA
0,6005859375;221,077470441833;8,93554687500001E-10;0,60015869140625;6;428;4,35599382966757E-07;-4,2614084482193E-07;100 nA
0,550537109375;221,577958440569;-1,549072265625E-09;0,550201416015625;6;429;4,35599382966757E-07;-4,2614084482193E-07;100 nA
0,50048828125;222,078446439306;-3,985595703125E-09;0,500213623046875;6;430;4,35599382966757E-07;-4,2614084482193E-07;100 nA
0,450439453125;222,578934438042;-6,38427734375E-09;0,45013427734375;6;431;4,35599382966757E-07;-4,2614084482193E-07;100 nA
0,400390625;223,079422436779;-8,8592529296875E-09;0,400177001953125;6;432;4,35599382966757E-07;-4,2614084482193E-07;100 nA
0,350341796875;223,579910435515;-1,1468505859375E-08;0,350189208984375;6;433;4,35599382966757E-07;-4,2614084482193E-07;100 nA
0,30029296875;224,080398434251;-1,42791748046875E-08;0,300201416015625;6;434;4,35599382966757E-07;-4,2614084482193E-07;100 nA
0,250244140625;224,580886432988;-1,73309326171875E-08;0,25018310546875;6;435;4,35599382966757E-07;-4,2614084482193E-07;100 nA
0,2001953125;225,081374431724;-2,06298828125E-08;0,200164794921875;6;436;4,35599382966757E-07;-4,2614084482193E-07;100 nA
0,150146484375;225,581862430461;-2,41180419921875E-08;0,15020751953125;6;437;4,35599382966757E-07;-4,2614084482193E-07;100 nA
0,10009765625;226,082350429197;-2,71759033203125E-08;0,10015869140625;6;438;4,35599382966757E-07;-4,2614084482193E-07;100 nA
0,050048828125;226,582838427933;-2,94525146484375E-08;0,0501708984375;6;439;4,35599382966757E-07;-4,2614084482193E-07;100 nA
0;227,08332642667;-3,08807373046875E-08;0,000173950195312494;6;440;4,35599382966757E-07;-4,2614084482193E-07;100 nA
-0,050048828125;227,583814425406;-3,199462890625E-08;-0,0496795654296875;6;441;4,35599382966757E-07;-4,2614084482193E-07;100 nA
-0,10009765625;228,084302424142;-3,27117919921875E-08;-0,099609375;6;442;4,35599382966757E-07;-4,2614084482193E-07;100 nA
-0,150146484375;228,584790422879;-3,326416015625E-08;-0,149566650390625;6;443;4,35599382966757E-07;-4,2614084482193E-07;100 nA
-0,2001953125;229,085278421615;-3,402099609375E-08;-0,199432373046875;6;444;4,35599382966757E-07;-4,2614084482193E-07;100 nA
-0,250244140625;229,585766420352;-3,46893310546875E-08;-0,249298095703125;6;445;4,35599382966757E-07;-4,2614084482193E-07;100 nA
-0,30029296875;230,086254419088;-3,53607177734375E-08;-0,2991943359375;6;446;4,35599382966757E-07;-4,2614084482193E-07;100 nA
-0,350341796875;230,586742417824;-3,6114501953125E-08;-0,34912109375;6;447;4,35599382966757E-07;-4,2614084482193E-07;100 nA
-0,400390625;231,087230416561;-3,69049072265625E-08;-0,39898681640625;6;448;4,35599382966757E-07;-4,2614084482193E-07;100 nA
-0,450439453125;231,587718415297;-3,77410888671875E-08;-0,448883056640625;6;449;4,35599382966757E-07;-4,2614084482193E-07;100 nA
-0,50048828125;232,088206414034;-3,7982177734375E-08;-0,498809814453125;6;450;4,35599382966757E-07;-4,2614084482193E-07;100 nA
-0,550537109375;232,58869441277;-3,59222412109375E-08;-0,54876708984375;6;451;4,35599382966757E-07;-4,2614084482193E-07;100 nA
-0,6005859375;233,089182411506;-3,11004638671875E-08;-0,598663330078125;6;452;4,35599382966757E-07;-4,2614084482193E-07;100 nA
-0,650634765625;233,589670410243;-2,92877197265625E-08;-0,6485595703125;6;453;4,35599382966757E-07;-4,2614084482193E-07;100 nA
-0,70068359375;234,090158408979;-2,76458740234375E-08;-0,6986083984375;6;454;4,35599382966757E-07;-4,2614084482193E-07;100 nA
-0,750732421875;234,590646407716;-2,58636474609375E-08;-0,74859619140625;6;455;4,35599382966757E-07;-4,2614084482193E-07;100 nA
-0,80078125;235,091134406452;-2,45391845703125E-08;-0,79864501953125;6;456;4,35599382966757E-07;-4,2614084482193E-07;100 nA
-0,850830078125;235,591622405188;-2,3846435546875E-08;-0,84808349609375;6;457;4,35599382966757E-07;-4,2614084482193E-07;100 nA
-0,90087890625;236,092110403925;-2,35382080078125E-08;-0,8990478515625;6;458;4,35599382966757E-07;-4,2614084482193E-07;100 nA
-0,950927734375;236,592598402661;-2,33062744140625E-08;-0,948486328125;6;459;4,35599382966757E-07;-4,2614084482193E-07;100 nA
-1,0009765625;237,093086401398;-2,28759765625E-08;-0,99853515625;6;460;4,35599382966757E-07;-4,2614084482193E-07;100 nA
-0,950927734375;237,593574400134;-1,44287109375E-08;-0,94940185546875;6;461;4,35599382966757E-07;-4,2614084482193E-07;100 nA
-0,90087890625;238,09406239887;-9,6466064453125E-09;-0,89874267578125;6;462;4,35599382966757E-07;-4,2614084482193E-07;100 nA
-0,850830078125;238,594550397607;-6,390380859375E-09;-0,84930419921875;6;463;4,35599382966757E-07;-4,2614084482193E-07;100 nA
-0,80078125;239,095038396343;-3,9337158203125E-09;-0,79864501953125;6;464;4,35599382966757E-07;-4,2614084482193E-07;100 nA
-0,750732421875;239,595526395079;-1,9586181640625E-09;-0,7486572265625;6;465;4,35599382966757E-07;-4,2614084482193E-07;100 nA
-0,70068359375;240,096014393816;-2,67944335937501E-10;-0,698638916015625;6;466;4,35599382966757E-07;-4,2614084482193E-07;100 nA
-0,650634765625;240,596502392552;1,23626708984375E-09;-0,648681640625;6;467;4,35599382966757E-07;-4,2614084482193E-07;100 nA
-0,6005859375;241,096990391289;2,6031494140625E-09;-0,598724365234375;6;468;4,35599382966757E-07;-4,2614084482193E-07;100 nA
-0,550537109375;241,597478390025;3,8848876953125E-09;-0,548828125;6;469;4,35599382966757E-07;-4,2614084482193E-07;100 nA
-0,50048828125;242,097966388761;5,13916015625E-09;-0,498931884765625;6;470;4,35599382966757E-07;-4,2614084482193E-07;100 nA
-0,450439453125;242,598454387498;6,48193359375E-09;-0,449005126953125;6;471;4,35599382966757E-07;-4,2614084482193E-07;100 nA
-0,400390625;243,098942386234;7,928466796875E-09;-0,399169921875;6;472;4,35599382966757E-07;-4,2614084482193E-07;100 nA
-0,350341796875;243,599430384971;9,3505859375E-09;-0,34918212890625;6;473;4,35599382966757E-07;-4,2614084482193E-07;100 nA
-0,30029296875;244,099918383707;1,06658935546875E-08;-0,299224853515625;6;474;4,35599382966757E-07;-4,2614084482193E-07;100 nA
-0,250244140625;244,600406382443;1,19232177734375E-08;-0,249420166015625;6;475;4,35599382966757E-07;-4,2614084482193E-07;100 nA
-0,2001953125;245,10089438118;1,319580078125E-08;-0,199432373046875;6;476;4,35599382966757E-07;-4,2614084482193E-07;100 nA
-0,150146484375;245,601382379916;1,4605712890625E-08;-0,149627685546875;6;477;4,35599382966757E-07;-4,2614084482193E-07;100 nA
-0,10009765625;246,101870378653;1,6290283203125E-08;-0,0997314453125;6;478;4,35599382966757E-07;-4,2614084482193E-07;100 nA
-0,050048828125;246,602358377389;1,8341064453125E-08;-0,049835205078125;6;479;4,35599382966757E-07;-4,2614084482193E-07;100 nA
0;247,102846376125;2,0794677734375E-08;8,54492187500056E-05;6;480;4,35599382966757E-07;-4,2614084482193E-07;100 nA
0,050048828125;247,603334374862;2,35015869140625E-08;0,050018310546875;7;481;4,35941055417061E-07;-4,26295261830091E-07;100 nA
0,10009765625;248,103822373598;2,55767822265625E-08;0,100006103515625;7;482;4,35941055417061E-07;-4,26295261830091E-07;100 nA
0,150146484375;248,604310372334;2,6910400390625E-08;0,1500244140625;7;483;4,35941055417061E-07;-4,26295261830091E-07;100 nA
0,2001953125;249,104798371071;2,7728271484375E-08;0,199951171875;7;484;4,35941055417061E-07;-4,26295261830091E-07;100 nA
0,250244140625;249,605286369807;2,85400390625E-08;0,250030517578125;7;485;4,35941055417061E-07;-4,26295261830091E-07;100 nA
0,30029296875;250,105774368544;2,96295166015625E-08;0,300018310546875;7;486;4,35941055417061E-07;-4,26295261830091E-07;100 nA
0,350341796875;250,60626236728;3,0712890625E-08;0,35009765625;7;487;4,35941055417061E-07;-4,26295261830091E-07;100 nA
0,400390625;251,106750366016;3,165283203125E-08;0,40008544921875;7;488;4,35941055417061E-07;-4,26295261830091E-07;100 nA
0,450439453125;251,607238364753;3,2476806640625E-08;0,4500732421875;7;489;4,35941055417061E-07;-4,26295261830091E-07;100 nA
0,50048828125;252,107726363489;3,30108642578125E-08;0,5;7;490;4,35941055417061E-07;-4,26295261830091E-07;100 nA
0,550537109375;252,608214362226;3,36639404296875E-08;0,550018310546875;7;491;4,35941055417061E-07;-4,26295261830091E-07;100 nA
0,6005859375;253,108702360962;3,385009765625E-08;0,60009765625;7;492;4,35941055417061E-07;-4,26295261830091E-07;100 nA
0,650634765625;253,609190359698;3,3544921875E-08;0,649993896484375;7;493;4,35941055417061E-07;-4,26295261830091E-07;100 nA
0,70068359375;254,109678358435;3,35662841796875E-08;0,69989013671875;7;494;4,35941055417061E-07;-4,26295261830091E-07;100 nA
0,750732421875;254,610166357171;3,39202880859375E-08;0,749786376953125;7;495;4,35941055417061E-07;-4,26295261830091E-07;100 nA
0,80078125;255,110654355908;3,4246826171875E-08;0,79986572265625;7;496;4,35941055417061E-07;-4,26295261830091E-07;100 nA
0,850830078125;255,611142354644;3,453369140625E-08;0,849609375;7;497;4,35941055417061E-07;-4,26295261830091E-07;100 nA
0,90087890625;256,11163035338;3,4783935546875E-08;0,89996337890625;7;498;4,35941055417061E-07;-4,26295261830091E-07;100 nA
0,950927734375;256,612118352117;3,509521484375E-08;0,94970703125;7;499;4,35941055417061E-07;-4,26295261830091E-07;100 nA
1,0009765625;257,112606350853;3,5430908203125E-08;0,9991455078125;7;500;4,35941055417061E-07;-4,26295261830091E-07;100 nA
0,950927734375;257,613094349589;2,6922607421875E-08;0,94970703125;7;501;4,35941055417061E-07;-4,26295261830091E-07;100 nA
0,90087890625;258,113582348326;2,10235595703125E-08;0,89935302734375;7;502;4,35941055417061E-07;-4,26295261830091E-07;100 nA
0,850830078125;258,614070347062;1,63665771484375E-08;0,84991455078125;7;503;4,35941055417061E-07;-4,26295261830091E-07;100 nA
0,80078125;259,114558345799;1,2481689453125E-08;0,79986572265625;7;504;4,35941055417061E-07;-4,26295261830091E-07;100 nA
0,750732421875;259,615046344535;9,11865234375E-09;0,749908447265625;7;505;4,35941055417061E-07;-4,26295261830091E-07;100 nA
0,70068359375;260,115534343271;6,134033203125E-09;0,70001220703125;7;506;4,35941055417061E-07;-4,26295261830091E-07;100 nA
0,650634765625;260,616022342008;3,4271240234375E-09;0,650146484375;7;507;4,35941055417061E-07;-4,26295261830091E-07;100 nA
0,6005859375;261,116510340744;9,01184082031251E-10;0,60015869140625;7;508;4,35941055417061E-07;-4,26295261830091E-07;100 nA
0,550537109375;261,616998339481;-1,561279296875E-09;0,550201416015625;7;509;4,35941055417061E-07;-4,26295261830091E-07;100 nA
0,50048828125;262,117486338217;-3,96728515625E-09;0,500274658203125;7;510;4,35941055417061E-07;-4,26295261830091E-07;100 nA
0,450439453125;262,617974336953;-6,3568115234375E-09;0,450164794921875;7;511;4,35941055417061E-07;-4,26295261830091E-07;100 nA
0,400390625;263,11846233569;-8,8287353515625E-09;0,400177001953125;7;512;4,35941055417061E-07;-4,26295261830091E-07;100 nA
0,350341796875;263,618950334426;-1,14410400390625E-08;0,350189208984375;7;513;4,35941055417061E-07;-4,26295261830091E-07;100 nA
0,30029296875;264,119438333163;-1,4239501953125E-08;0,300140380859375;7;514;4,35941055417061E-07;-4,26295261830091E-07;100 nA
0,250244140625;264,619926331899;-1,72943115234375E-08;0,250213623046875;7;515;4,35941055417061E-07;-4,26295261830091E-07;100 nA
0,2001953125;265,120414330635;-2,06298828125E-08;0,2001953125;7;516;4,35941055417061E-07;-4,26295261830091E-07;100 nA
0,150146484375;265,620902329372;-2,41424560546875E-08;0,150115966796875;7;517;4,35941055417061E-07;-4,26295261830091E-07;100 nA
0,10009765625;266,121390328108;-2,71942138671875E-08;0,10015869140625;7;518;4,35941055417061E-07;-4,26295261830091E-07;100 nA
0,050048828125;266,621878326844;-2,9437255859375E-08;0,050201416015625;7;519;4,35941055417061E-07;-4,26295261830091E-07;100 nA
0;267,122366325581;-3,08624267578125E-08;0,000195312500000003;7;520;4,35941055417061E-07;-4,26295261830091E-07;100 nA
-0,050048828125;267,622854324317;-3,19915771484375E-08;-0,0497039794921875;7;521;4,35941055417061E-07;-4,26295261830091E-07;100 nA
-0,10009765625;268,123342323054;-3,2745361328125E-08;-0,099578857421875;7;522;4,35941055417061E-07;-4,26295261830091E-07;100 nA
-0,150146484375;268,62383032179;-3,32977294921875E-08;-0,149566650390625;7;523;4,35941055417061E-07;-4,26295261830091E-07;100 nA
-0,2001953125;269,124318320526;-3,40423583984375E-08;-0,19940185546875;7;524;4,35941055417061E-07;-4,26295261830091E-07;100 nA
-0,250244140625;269,624806319263;-3,472900390625E-08;-0,249298095703125;7;525;4,35941055417061E-07;-4,26295261830091E-07;100 nA
-0,30029296875;270,125294317999;-3,54034423828125E-08;-0,299224853515625;7;526;4,35941055417061E-07;-4,26295261830091E-07;100 nA
-0,350341796875;270,625782316736;-3,61541748046875E-08;-0,34918212890625;7;527;4,35941055417061E-07;-4,26295261830091E-07;100 nA
-0,400390625;271,126270315472;-3,69415283203125E-08;-0,399078369140625;7;528;4,35941055417061E-07;-4,26295261830091E-07;100 nA
-0,450439453125;271,626758314208;-3,778076171875E-08;-0,448883056640625;7;529;4,35941055417061E-07;-4,26295261830091E-07;100 nA
-0,50048828125;272,127246312945;-3,80767822265625E-08;-0,498779296875;7;530;4,35941055417061E-07;-4,26295261830091E-07;100 nA
-0,550537109375;272,627734311681;-3,61328125E-08;-0,5487060546875;7;531;4,35941055417061E-07;-4,26295261830091E-07;100 nA
-0,6005859375;273,128222310418;-3,12225341796875E-08;-0,59857177734375;7;532;4,35941055417061E-07;-4,26295261830091E-07;100 nA
-0,650634765625;273,628710309154;-2,9339599609375E-08;-0,6485595703125;7;533;4,35941055417061E-07;-4,26295261830091E-07;100 nA
-0,70068359375;274,12919830789;-2,769775390625E-08;-0,698516845703125;7;534;4,35941055417061E-07;-4,26295261830091E-07;100 nA
-0,750732421875;274,629686306627;-2,59063720703125E-08;-0,74859619140625;7;535;4,35941055417061E-07;-4,26295261830091E-07;100 nA
-0,80078125;275,130174305363;-2,45391845703125E-08;-0,79864501953125;7;536;4,35941055417061E-07;-4,26295261830091E-07;100 nA
-0,850830078125;275,630662304099;-2,38189697265625E-08;-0,8489990234375;7;537;4,35941055417061E-07;-4,26295261830091E-07;100 nA
-0,90087890625;276,131150302836;-2,34832763671875E-08;-0,8984375;7;538;4,35941055417061E-07;-4,26295261830091E-07;100 nA
-0,950927734375;276,631638301572;-2,320556640625E-08;-0,94879150390625;7;539;4,35941055417061E-07;-4,26295261830091E-07;100 nA
-1,0009765625;277,132126300309;-2,27508544921875E-08;-0,99884033203125;7;540;4,35941055417061E-07;-4,26295261830091E-07;100 nA
-0,950927734375;277,632614299045;-1,43646240234375E-08;-0,94879150390625;7;541;4,35941055417061E-07;-4,26295261830091E-07;100 nA
-0,90087890625;278,133102297781;-9,613037109375E-09;-0,8990478515625;7;542;4,35941055417061E-07;-4,26295261830091E-07;100 nA
-0,850830078125;278,633590296518;-6,3720703125E-09;-0,8489990234375;7;543;4,35941055417061E-07;-4,26295261830091E-07;100 nA
-0,80078125;279,134078295254;-3,936767578125E-09;-0,79864501953125;7;544;4,35941055417061E-07;-4,26295261830091E-07;100 nA
-0,750732421875;279,634566293991;-1,968994140625E-09;-0,7486572265625;7;545;4,35941055417061E-07;-4,26295261830091E-07;100 nA
-0,70068359375;280,135054292727;-2,8839111328125E-10;-0,698577880859375;7;546;4,35941055417061E-07;-4,26295261830091E-07;100 nA
-0,650634765625;280,635542291463;1,20941162109375E-09;-0,648651123046875;7;547;4,35941055417061E-07;-4,26295261830091E-07;100 nA
-0,6005859375;281,1360302902;2,569580078125E-09;-0,598724365234375;7;548;4,35941055417061E-07;-4,26295261830091E-07;100 nA
-0,550537109375;281,636518288936;3,84521484375E-09;-0,548797607421875;7;549;4,35941055417061E-07;-4,26295261830091E-07;100 nA
-0,50048828125;282,137006287673;5,1116943359375E-09;-0,4989013671875;7;550;4,35941055417061E-07;-4,26295261830091E-07;100 nA
-0,450439453125;282,637494286409;6,463623046875E-09;-0,44903564453125;7;551;4,35941055417061E-07;-4,26295261830091E-07;100 nA
-0,400390625;283,137982285145;7,9132080078125E-09;-0,399169921875;7;552;4,35941055417061E-07;-4,26295261830091E-07;100 nA
-0,350341796875;283,638470283882;9,33837890625E-09;-0,3492431640625;7;553;4,35941055417061E-07;-4,26295261830091E-07;100 nA
-0,30029296875;284,138958282618;1,06414794921875E-08;-0,299285888671875;7;554;4,35941055417061E-07;-4,26295261830091E-07;100 nA
-0,250244140625;284,639446281354;1,19140625E-08;-0,24945068359375;7;555;4,35941055417061E-07;-4,26295261830091E-07;100 nA
-0,2001953125;285,139934280091;1,31988525390625E-08;-0,19952392578125;7;556;4,35941055417061E-07;-4,26295261830091E-07;100 nA
-0,150146484375;285,640422278827;1,46026611328125E-08;-0,14959716796875;7;557;4,35941055417061E-07;-4,26295261830091E-07;100 nA
-0,10009765625;286,140910277564;1,62994384765625E-08;-0,0997314453125;7;558;4,35941055417061E-07;-4,26295261830091E-07;100 nA
-0,050048828125;286,6413982763;1,8359375E-08;-0,049835205078125;7;559;4,35941055417061E-07;-4,26295261830091E-07;100 nA
0;287,141886275036;2,081298828125E-08;8,85009765625028E-05;7;560;4,35941055417061E-07;-4,26295261830091E-07;100 nA
0,050048828125;287,642374273773;2,35198974609375E-08;0,050018310546875;8;561;4,36268828809261E-07;-4,26426157355309E-07;100 nA
0,10009765625;288,142862272509;2,562255859375E-08;0,0999755859375;8;562;4,36268828809261E-07;-4,26426157355309E-07;100 nA
0,150146484375;288,643350271246;2,69622802734375E-08;0,1500244140625;8;563;4,36268828809261E-07;-4,26426157355309E-07;100 nA
0,2001953125;289,143838269982;2,77862548828125E-08;0,20001220703125;8;564;4,36268828809261E-07;-4,26426157355309E-07;100 nA
0,250244140625;289,644326268718;2,857666015625E-08;0,249969482421875;8;565;4,36268828809261E-07;-4,26426157355309E-07;100 nA
0,30029296875;290,144814267455;2,96661376953125E-08;0,300048828125;8;566;4,36268828809261E-07;-4,26426157355309E-07;100 nA
0,350341796875;290,645302266191;3,0743408203125E-08;0,350128173828125;8;567;4,36268828809261E-07;-4,26426157355309E-07;100 nA
0,400390625;291,145790264928;3,16864013671875E-08;0,400054931640625;8;568;4,36268828809261E-07;-4,26426157355309E-07;100 nA
0,450439453125;291,646278263664;3,24981689453125E-08;0,450103759765625;8;569;4,36268828809261E-07;-4,26426157355309E-07;100 nA
0,50048828125;292,1467662624;3,3038330078125E-08;0,50006103515625;8;570;4,36268828809261E-07;-4,26426157355309E-07;100 nA
0,550537109375;292,647254261137;3,370361328125E-08;0,550079345703125;8;571;4,36268828809261E-07;-4,26426157355309E-07;100 nA
0,6005859375;293,147742259873;3,38592529296875E-08;0,600006103515625;8;572;4,36268828809261E-07;-4,26426157355309E-07;100 nA
0,650634765625;293,648230258609;3,353271484375E-08;0,649993896484375;8;573;4,36268828809261E-07;-4,26426157355309E-07;100 nA
0,70068359375;294,148718257346;3,35601806640625E-08;0,699951171875;8;574;4,36268828809261E-07;-4,26426157355309E-07;100 nA
0,750732421875;294,649206256082;3,392333984375E-08;0,749786376953125;8;575;4,36268828809261E-07;-4,26426157355309E-07;100 nA
0,80078125;295,149694254819;3,426513671875E-08;0,799560546875;8;576;4,36268828809261E-07;-4,26426157355309E-07;100 nA
0,850830078125;295,650182253555;3,45550537109375E-08;0,84991455078125;8;577;4,36268828809261E-07;-4,26426157355309E-07;100 nA
0,90087890625;296,150670252291;3,4820556640625E-08;0,899658203125;8;578;4,36268828809261E-07;-4,26426157355309E-07;100 nA
0,950927734375;296,651158251028;3,5137939453125E-08;0,95001220703125;8;579;4,36268828809261E-07;-4,26426157355309E-07;100 nA
1,0009765625;297,151646249764;3,54827880859375E-08;1,00006103515625;8;580;4,36268828809261E-07;-4,26426157355309E-07;100 nA
0,950927734375;297,652134248501;2,6971435546875E-08;0,95001220703125;8;581;4,36268828809261E-07;-4,26426157355309E-07;100 nA
0,90087890625;298,152622247237;2,10479736328125E-08;0,89996337890625;8;582;4,36268828809261E-07;-4,26426157355309E-07;100 nA
0,850830078125;298,653110245973;1,63848876953125E-08;0,8502197265625;8;583;4,36268828809261E-07;-4,26426157355309E-07;100 nA
0,80078125;299,15359824471;1,24969482421875E-08;0,79986572265625;8;584;4,36268828809261E-07;-4,26426157355309E-07;100 nA
0,750732421875;299,654086243446;9,1339111328125E-09;0,74993896484375;8;585;4,36268828809261E-07;-4,26426157355309E-07;100 nA
0,70068359375;300,154574242183;6,146240234375E-09;0,699981689453125;8;586;4,36268828809261E-07;-4,26426157355309E-07;100 nA
0,650634765625;300,655062240919;3,4454345703125E-09;0,65008544921875;8;587;4,36268828809261E-07;-4,26426157355309E-07;100 nA
0,6005859375;301,155550239655;9,16748046875E-10;0,60015869140625;8;588;4,36268828809261E-07;-4,26426157355309E-07;100 nA
0,550537109375;301,656038238392;-1,53778076171875E-09;0,550262451171875;8;589;4,36268828809261E-07;-4,26426157355309E-07;100 nA
0,50048828125;302,156526237128;-3,9703369140625E-09;0,500244140625;8;590;4,36268828809261E-07;-4,26426157355309E-07;100 nA
0,450439453125;302,657014235864;-6,3446044921875E-09;0,4501953125;8;591;4,36268828809261E-07;-4,26426157355309E-07;100 nA
0,400390625;303,157502234601;-8,80126953125E-09;0,400177001953125;8;592;4,36268828809261E-07;-4,26426157355309E-07;100 nA
0,350341796875;303,657990233337;-1,14105224609375E-08;0,350250244140625;8;593;4,36268828809261E-07;-4,26426157355309E-07;100 nA
0,30029296875;304,158478232074;-1,4208984375E-08;0,300140380859375;8;594;4,36268828809261E-07;-4,26426157355309E-07;100 nA
0,250244140625;304,65896623081;-1,727294921875E-08;0,25018310546875;8;595;4,36268828809261E-07;-4,26426157355309E-07;100 nA
0,2001953125;305,159454229546;-2,06268310546875E-08;0,200225830078125;8;596;4,36268828809261E-07;-4,26426157355309E-07;100 nA
0,150146484375;305,659942228283;-2,41668701171875E-08;0,15020751953125;8;597;4,36268828809261E-07;-4,26426157355309E-07;100 nA
0,10009765625;306,160430227019;-2,72125244140625E-08;0,10015869140625;8;598;4,36268828809261E-07;-4,26426157355309E-07;100 nA
0,050048828125;306,660918225756;-2,9437255859375E-08;0,050140380859375;8;599;4,36268828809261E-07;-4,26426157355309E-07;100 nA
0;307,161406224492;-3,0859375E-08;0,000164794921875003;8;600;4,36268828809261E-07;-4,26426157355309E-07;100 nA
-0,050048828125;307,661894223228;-3,19915771484375E-08;-0,0496917724609375;8;601;4,36268828809261E-07;-4,26426157355309E-07;100 nA
-0,10009765625;308,162382221965;-3,2757568359375E-08;-0,099578857421875;8;602;4,36268828809261E-07;-4,26426157355309E-07;100 nA
-0,150146484375;308,662870220701;-3,33099365234375E-08;-0,149566650390625;8;603;4,36268828809261E-07;-4,26426157355309E-07;100 nA
-0,2001953125;309,163358219438;-3,40667724609375E-08;-0,19940185546875;8;604;4,36268828809261E-07;-4,26426157355309E-07;100 nA
-0,250244140625;309,663846218174;-3,47625732421875E-08;-0,249298095703125;8;605;4,36268828809261E-07;-4,26426157355309E-07;100 nA
-0,30029296875;310,16433421691;-3,54248046875E-08;-0,2991943359375;8;606;4,36268828809261E-07;-4,26426157355309E-07;100 nA
-0,350341796875;310,664822215647;-3,616943359375E-08;-0,349151611328125;8;607;4,36268828809261E-07;-4,26426157355309E-07;100 nA
-0,400390625;311,165310214383;-3,6962890625E-08;-0,399017333984375;8;608;4,36268828809261E-07;-4,26426157355309E-07;100 nA
-0,450439453125;311,66579821312;-3,78143310546875E-08;-0,448883056640625;8;609;4,36268828809261E-07;-4,26426157355309E-07;100 nA
-0,50048828125;312,166286211856;-3,81439208984375E-08;-0,498809814453125;8;610;4,36268828809261E-07;-4,26426157355309E-07;100 nA
-0,550537109375;312,666774210592;-3,629150390625E-08;-0,5487060546875;8;611;4,36268828809261E-07;-4,26426157355309E-07;100 nA
-0,6005859375;313,167262209329;-3,13079833984375E-08;-0,598602294921875;8;612;4,36268828809261E-07;-4,26426157355309E-07;100 nA
-0,650634765625;313,667750208065;-2,93853759765625E-08;-0,6485595703125;8;613;4,36268828809261E-07;-4,26426157355309E-07;100 nA
-0,70068359375;314,168238206801;-2,77435302734375E-08;-0,698577880859375;8;614;4,36268828809261E-07;-4,26426157355309E-07;100 nA
-0,750732421875;314,668726205538;-2,5927734375E-08;-0,748565673828125;8;615;4,36268828809261E-07;-4,26426157355309E-07;100 nA
-0,80078125;315,169214204274;-2,45452880859375E-08;-0,79864501953125;8;616;4,36268828809261E-07;-4,26426157355309E-07;100 nA
-0,850830078125;315,669702203011;-2,38128662109375E-08;-0,848388671875;8;617;4,36268828809261E-07;-4,26426157355309E-07;100 nA
-0,90087890625;316,170190201747;-2,34466552734375E-08;-0,8984375;8;618;4,36268828809261E-07;-4,26426157355309E-07;100 nA
-0,950927734375;316,670678200483;-2,31170654296875E-08;-0,94879150390625;8;619;4,36268828809261E-07;-4,26426157355309E-07;100 nA
-1,0009765625;317,17116619922;-2,26593017578125E-08;-0,9991455078125;8;620;4,36268828809261E-07;-4,26426157355309E-07;100 nA
-0,950927734375;317,671654197956;-1,43463134765625E-08;-0,9490966796875;8;621;4,36268828809261E-07;-4,26426157355309E-07;100 nA
-0,90087890625;318,172142196693;-9,5916748046875E-09;-0,8990478515625;8;622;4,36268828809261E-07;-4,26426157355309E-07;100 nA
-0,850830078125;318,672630195429;-6,365966796875E-09;-0,8489990234375;8;623;4,36268828809261E-07;-4,26426157355309E-07;100 nA
-0,80078125;319,173118194165;-3,936767578125E-09;-0,79864501953125;8;624;4,36268828809261E-07;-4,26426157355309E-07;100 nA
-0,750732421875;319,673606192902;-1,98028564453125E-09;-0,7486572265625;8;625;4,36268828809261E-07;-4,26426157355309E-07;100 nA
-0,70068359375;320,174094191638;-3,08837890624999E-10;-0,6986083984375;8;626;4,36268828809261E-07;-4,26426157355309E-07;100 nA
-0,650634765625;320,674582190375;1,1865234375E-09;-0,64862060546875;8;627;4,36268828809261E-07;-4,26426157355309E-07;100 nA
-0,6005859375;321,175070189111;2,5482177734375E-09;-0,598663330078125;8;628;4,36268828809261E-07;-4,26426157355309E-07;100 nA
-0,550537109375;321,675558187847;3,826904296875E-09;-0,548797607421875;8;629;4,36268828809261E-07;-4,26426157355309E-07;100 nA
-0,50048828125;322,176046186584;5,0872802734375E-09;-0,4989013671875;8;630;4,36268828809261E-07;-4,26426157355309E-07;100 nA
-0,450439453125;322,67653418532;6,439208984375E-09;-0,449005126953125;8;631;4,36268828809261E-07;-4,26426157355309E-07;100 nA
-0,400390625;323,177022184056;7,9010009765625E-09;-0,399139404296875;8;632;4,36268828809261E-07;-4,26426157355309E-07;100 nA
-0,350341796875;323,677510182793;9,3231201171875E-09;-0,349273681640625;8;633;4,36268828809261E-07;-4,26426157355309E-07;100 nA
-0,30029296875;324,177998181529;1,06353759765625E-08;-0,29937744140625;8;634;4,36268828809261E-07;-4,26426157355309E-07;100 nA
-0,250244140625;324,678486180266;1,18804931640625E-08;-0,249420166015625;8;635;4,36268828809261E-07;-4,26426157355309E-07;100 nA
-0,2001953125;325,178974179002;1,32080078125E-08;-0,19952392578125;8;636;4,36268828809261E-07;-4,26426157355309E-07;100 nA
-0,150146484375;325,679462177738;1,46209716796875E-08;-0,149688720703125;8;637;4,36268828809261E-07;-4,26426157355309E-07;100 nA
-0,10009765625;326,179950176475;1,632080078125E-08;-0,09979248046875;8;638;4,36268828809261E-07;-4,26426157355309E-07;100 nA
-0,050048828125;326,680438175211;1,83868408203125E-08;-0,04986572265625;8;639;4,36268828809261E-07;-4,26426157355309E-07;100 nA
0;327,180926173948;2,083740234375E-08;0,000100708007812506;8;640;4,36268828809261E-07;-4,26426157355309E-07;100 nA
0,050048828125;327,681414172684;2,357177734375E-08;0,04998779296875;9;641;4,36416983604431E-07;-4,26432877779007E-07;100 nA
0,10009765625;328,18190217142;2,56683349609375E-08;0,10003662109375;9;642;4,36416983604431E-07;-4,26432877779007E-07;100 nA
0,150146484375;328,682390170157;2,7032470703125E-08;0,1500244140625;9;643;4,36416983604431E-07;-4,26432877779007E-07;100 nA
0,2001953125;329,182878168893;2,78472900390625E-08;0,199981689453125;9;644;4,36416983604431E-07;-4,26432877779007E-07;100 nA
0,250244140625;329,68336616763;2,86376953125E-08;0,249969482421875;9;645;4,36416983604431E-07;-4,26432877779007E-07;100 nA
0,30029296875;330,183854166366;2,9705810546875E-08;0,300079345703125;9;646;4,36416983604431E-07;-4,26432877779007E-07;100 nA
0,350341796875;330,684342165102;3,07769775390625E-08;0,350067138671875;9;647;4,36416983604431E-07;-4,26432877779007E-07;100 nA
0,400390625;331,184830163839;3,1719970703125E-08;0,400115966796875;9;648;4,36416983604431E-07;-4,26432877779007E-07;100 nA
0,450439453125;331,685318162575;3,2501220703125E-08;0,4500732421875;9;649;4,36416983604431E-07;-4,26432877779007E-07;100 nA
0,50048828125;332,185806161311;3,306884765625E-08;0,50006103515625;9;650;4,36416983604431E-07;-4,26432877779007E-07;100 nA
0,550537109375;332,686294160048;3,37066650390625E-08;0,550048828125;9;651;4,36416983604431E-07;-4,26432877779007E-07;100 nA
0,6005859375;333,186782158784;3,3837890625E-08;0,60009765625;9;652;4,36416983604431E-07;-4,26432877779007E-07;100 nA
0,650634765625;333,687270157521;3,34930419921875E-08;0,649993896484375;9;653;4,36416983604431E-07;-4,26432877779007E-07;100 nA
0,70068359375;334,187758156257;3,35235595703125E-08;0,699920654296875;9;654;4,36416983604431E-07;-4,26432877779007E-07;100 nA
0,750732421875;334,688246154993;3,39080810546875E-08;0,749755859375;9;655;4,36416983604431E-07;-4,26432877779007E-07;100 nA
0,80078125;335,18873415373;3,42498779296875E-08;0,80047607421875;9;656;4,36416983604431E-07;-4,26432877779007E-07;100 nA
0,850830078125;335,689222152466;3,45550537109375E-08;0,85052490234375;9;657;4,36416983604431E-07;-4,26432877779007E-07;100 nA
0,90087890625;336,189710151203;3,4832763671875E-08;0,8990478515625;9;658;4,36416983604431E-07;-4,26432877779007E-07;100 nA
0,950927734375;336,690198149939;3,51593017578125E-08;0,9490966796875;9;659;4,36416983604431E-07;-4,26432877779007E-07;100 nA
1,0009765625;337,190686148675;3,55010986328125E-08;0,999755859375;9;660;4,36416983604431E-07;-4,26432877779007E-07;100 nA
0,950927734375;337,691174147412;2,69805908203125E-08;0,94940185546875;9;661;4,36416983604431E-07;-4,26432877779007E-07;100 nA
0,90087890625;338,191662146148;2,10693359375E-08;0,899658203125;9;662;4,36416983604431E-07;-4,26432877779007E-07;100 nA
0,850830078125;338,692150144885;1,6400146484375E-08;0,84930419921875;9;663;4,36416983604431E-07;-4,26432877779007E-07;100 nA
0,80078125;339,192638143621;1,25152587890625E-08;0,8001708984375;9;664;4,36416983604431E-07;-4,26432877779007E-07;100 nA
0,750732421875;339,693126142357;9,136962890625E-09;0,7498779296875;9;665;4,36416983604431E-07;-4,26432877779007E-07;100 nA
0,70068359375;340,193614141094;6,1492919921875E-09;0,70001220703125;9;666;4,36416983604431E-07;-4,26432877779007E-07;100 nA
0,650634765625;340,69410213983;3,4423828125E-09;0,65008544921875;9;667;4,36416983604431E-07;-4,26432877779007E-07;100 nA
0,6005859375;341,194590138566;9,2620849609375E-10;0,60015869140625;9;668;4,36416983604431E-07;-4,26432877779007E-07;100 nA
0,550537109375;341,695078137303;-1,5277099609375E-09;0,55023193359375;9;669;4,36416983604431E-07;-4,26432877779007E-07;100 nA
0,50048828125;342,195566136039;-3,955078125E-09;0,500213623046875;9;670;4,36416983604431E-07;-4,26432877779007E-07;100 nA
0,450439453125;342,696054134776;-6,341552734375E-09;0,4501953125;9;671;4,36416983604431E-07;-4,26432877779007E-07;100 nA
0,400390625;343,196542133512;-8,7921142578125E-09;0,400177001953125;9;672;4,36416983604431E-07;-4,26432877779007E-07;100 nA
0,350341796875;343,697030132248;-1,1383056640625E-08;0,350189208984375;9;673;4,36416983604431E-07;-4,26432877779007E-07;100 nA
0,30029296875;344,197518130985;-1,41815185546875E-08;0,300201416015625;9;674;4,36416983604431E-07;-4,26432877779007E-07;100 nA
0,250244140625;344,698006129721;-1,72576904296875E-08;0,25018310546875;9;675;4,36416983604431E-07;-4,26432877779007E-07;100 nA
0,2001953125;345,198494128458;-2,06207275390625E-08;0,20013427734375;9;676;4,36416983604431E-07;-4,26432877779007E-07;100 nA
0,150146484375;345,698982127194;-2,4176025390625E-08;0,150177001953125;9;677;4,36416983604431E-07;-4,26432877779007E-07;100 nA
0,10009765625;346,19947012593;-2,72216796875E-08;0,1002197265625;9;678;4,36416983604431E-07;-4,26432877779007E-07;100 nA
0,050048828125;346,699958124667;-2,94189453125E-08;0,050201416015625;9;679;4,36416983604431E-07;-4,26432877779007E-07;100 nA
0;347,200446123403;-3,08319091796875E-08;0,0001678466796875;9;680;4,36416983604431E-07;-4,26432877779007E-07;100 nA
-0,050048828125;347,70093412214;-3,1976318359375E-08;-0,049688720703125;9;681;4,36416983604431E-07;-4,26432877779007E-07;100 nA
-0,10009765625;348,201422120876;-3,2763671875E-08;-0,099578857421875;9;682;4,36416983604431E-07;-4,26432877779007E-07;100 nA
-0,150146484375;348,701910119612;-3,33251953125E-08;-0,149505615234375;9;683;4,36416983604431E-07;-4,26432877779007E-07;100 nA
-0,2001953125;349,202398118349;-3,406982421875E-08;-0,199432373046875;9;684;4,36416983604431E-07;-4,26432877779007E-07;100 nA
-0,250244140625;349,702886117085;-3,4759521484375E-08;-0,249298095703125;9;685;4,36416983604431E-07;-4,26432877779007E-07;100 nA
-0,30029296875;350,203374115821;-3,543701171875E-08;-0,2991943359375;9;686;4,36416983604431E-07;-4,26432877779007E-07;100 nA
-0,350341796875;350,703862114558;-3,6187744140625E-08;-0,349151611328125;9;687;4,36416983604431E-07;-4,26432877779007E-07;100 nA
-0,400390625;351,204350113294;-3,69720458984375E-08;-0,399078369140625;9;688;4,36416983604431E-07;-4,26432877779007E-07;100 nA
-0,450439453125;351,704838112031;-3,7841796875E-08;-0,448974609375;9;689;4,36416983604431E-07;-4,26432877779007E-07;100 nA
-0,50048828125;352,205326110767;-3,8189697265625E-08;-0,498779296875;9;690;4,36416983604431E-07;-4,26432877779007E-07;100 nA
-0,550537109375;352,705814109503;-3,643798828125E-08;-0,5487060546875;9;691;4,36416983604431E-07;-4,26432877779007E-07;100 nA
-0,6005859375;353,20630210824;-3,13873291015625E-08;-0,5986328125;9;692;4,36416983604431E-07;-4,26432877779007E-07;100 nA
-0,650634765625;353,706790106976;-2,94189453125E-08;-0,648529052734375;9;693;4,36416983604431E-07;-4,26432877779007E-07;100 nA
-0,70068359375;354,207278105713;-2,77679443359375E-08;-0,698638916015625;9;694;4,36416983604431E-07;-4,26432877779007E-07;100 nA
-0,750732421875;354,707766104449;-2,5946044921875E-08;-0,748565673828125;9;695;4,36416983604431E-07;-4,26432877779007E-07;100 nA
-0,80078125;355,208254103185;-2,4542236328125E-08;-0,79833984375;9;696;4,36416983604431E-07;-4,26432877779007E-07;100 nA
-0,850830078125;355,708742101922;-2,37823486328125E-08;-0,84869384765625;9;697;4,36416983604431E-07;-4,26432877779007E-07;100 nA
-0,90087890625;356,209230100658;-2,340087890625E-08;-0,89813232421875;9;698;4,36416983604431E-07;-4,26432877779007E-07;100 nA
-0,950927734375;356,709718099395;-2,30438232421875E-08;-0,94879150390625;9;699;4,36416983604431E-07;-4,26432877779007E-07;100 nA
-1,0009765625;357,210206098131;-2,25860595703125E-08;-0,99945068359375;9;700;4,36416983604431E-07;-4,26432877779007E-07;100 nA
-0,950927734375;357,710694096867;-1,42974853515625E-08;-0,94879150390625;9;701;4,36416983604431E-07;-4,26432877779007E-07;100 nA
-0,90087890625;358,211182095604;-9,5733642578125E-09;-0,8984375;9;702;4,36416983604431E-07;-4,26432877779007E-07;100 nA
-0,850830078125;358,71167009434;-6,3568115234375E-09;-0,8489990234375;9;703;4,36416983604431E-07;-4,26432877779007E-07;100 nA
-0,80078125;359,212158093076;-3,9398193359375E-09;-0,79864501953125;9;704;4,36416983604431E-07;-4,26432877779007E-07;100 nA
-0,750732421875;359,712646091813;-2,00836181640625E-09;-0,748626708984375;9;705;4,36416983604431E-07;-4,26432877779007E-07;100 nA
-0,70068359375;360,213134090549;-3,13415527343749E-10;-0,698638916015625;9;706;4,36416983604431E-07;-4,26432877779007E-07;100 nA
-0,650634765625;360,713622089286;1,17401123046875E-09;-0,64862060546875;9;707;4,36416983604431E-07;-4,26432877779007E-07;100 nA
-0,6005859375;361,214110088022;2,52685546875E-09;-0,598663330078125;9;708;4,36416983604431E-07;-4,26432877779007E-07;100 nA
-0,550537109375;361,714598086758;3,79638671875E-09;-0,548797607421875;9;709;4,36416983604431E-07;-4,26432877779007E-07;100 nA
-0,50048828125;362,215086085495;5,06591796875E-09;-0,498870849609375;9;710;4,36416983604431E-07;-4,26432877779007E-07;100 nA
-0,450439453125;362,715574084231;6,4208984375E-09;-0,448974609375;9;711;4,36416983604431E-07;-4,26432877779007E-07;100 nA
-0,400390625;363,216062082968;7,8826904296875E-09;-0,399139404296875;9;712;4,36416983604431E-07;-4,26432877779007E-07;100 nA
-0,350341796875;363,716550081704;9,3048095703125E-09;-0,3492431640625;9;713;4,36416983604431E-07;-4,26432877779007E-07;100 nA
-0,30029296875;364,21703808044;1,0614013671875E-08;-0,299285888671875;9;714;4,36416983604431E-07;-4,26432877779007E-07;100 nA
-0,250244140625;364,717526079177;1,1895751953125E-08;-0,249420166015625;9;715;4,36416983604431E-07;-4,26432877779007E-07;100 nA
-0,2001953125;365,218014077913;1,3189697265625E-08;-0,199493408203125;9;716;4,36416983604431E-07;-4,26432877779007E-07;100 nA
-0,150146484375;365,71850207665;1,4630126953125E-08;-0,149627685546875;9;717;4,36416983604431E-07;-4,26432877779007E-07;100 nA
-0,10009765625;366,218990075386;1,6326904296875E-08;-0,099761962890625;9;718;4,36416983604431E-07;-4,26432877779007E-07;100 nA
-0,050048828125;366,719478074122;1,83807373046875E-08;-0,0499267578125;9;719;4,36416983604431E-07;-4,26432877779007E-07;100 nA
0;367,219966072859;2,0855712890625E-08;0,000109863281249997;9;720;4,36416983604431E-07;-4,26432877779007E-07;100 nA
0,050048828125;367,720454071595;2,3577880859375E-08;0,050048828125;10;721;4,36520081013441E-07;-4,26410119980574E-07;100 nA
0,10009765625;368,220942070331;2,5701904296875E-08;0,10003662109375;10;722;4,36520081013441E-07;-4,26410119980574E-07;100 nA
0,150146484375;368,721430069068;2,7069091796875E-08;0,150054931640625;10;723;4,36520081013441E-07;-4,26410119980574E-07;100 nA
0,2001953125;369,221918067804;2,7880859375E-08;0,20001220703125;10;724;4,36520081013441E-07;-4,26410119980574E-07;100 nA
0,250244140625;369,722406066541;2,86529541015625E-08;0,249969482421875;10;725;4,36520081013441E-07;-4,26410119980574E-07;100 nA
0,30029296875;370,222894065277;2,972412109375E-08;0,300018310546875;10;726;4,36520081013441E-07;-4,26410119980574E-07;100 nA
0,350341796875;370,723382064013;3,079833984375E-08;0,35009765625;10;727;4,36520081013441E-07;-4,26410119980574E-07;100 nA
0,400390625;371,22387006275;3,17413330078125E-08;0,400054931640625;10;728;4,36520081013441E-07;-4,26410119980574E-07;100 nA
0,450439453125;371,724358061486;3,25164794921875E-08;0,4500732421875;10;729;4,36520081013441E-07;-4,26410119980574E-07;100 nA
0,50048828125;372,224846060223;3,30810546875E-08;0,500030517578125;10;730;4,36520081013441E-07;-4,26410119980574E-07;100 nA
0,550537109375;372,725334058959;3,37249755859375E-08;0,55010986328125;10;731;4,36520081013441E-07;-4,26410119980574E-07;100 nA
0,6005859375;373,225822057695;3,3831787109375E-08;0,600006103515625;10;732;4,36520081013441E-07;-4,26410119980574E-07;100 nA
0,650634765625;373,726310056432;3,34503173828125E-08;0,6500244140625;10;733;4,36520081013441E-07;-4,26410119980574E-07;100 nA
0,70068359375;374,226798055168;3,35174560546875E-08;0,69989013671875;10;734;4,36520081013441E-07;-4,26410119980574E-07;100 nA
0,750732421875;374,727286053905;3,3905029296875E-08;0,749847412109375;10;735;4,36520081013441E-07;-4,26410119980574E-07;100 nA
0,80078125;375,227774052641;3,42620849609375E-08;0,8001708984375;10;736;4,36520081013441E-07;-4,26410119980574E-07;100 nA
0,850830078125;375,728262051377;3,45672607421875E-08;0,849609375;10;737;4,36520081013441E-07;-4,26410119980574E-07;100 nA
0,90087890625;376,228750050114;3,48602294921875E-08;0,89996337890625;10;738;4,36520081013441E-07;-4,26410119980574E-07;100 nA
0,950927734375;376,72923804885;3,5186767578125E-08;0,94970703125;10;739;4,36520081013441E-07;-4,26410119980574E-07;100 nA
1,0009765625;377,229726047587;3,55316162109375E-08;1,00006103515625;10;740;4,36520081013441E-07;-4,26410119980574E-07;100 nA
0,950927734375;377,730214046323;2,7008056640625E-08;0,94970703125;10;741;4,36520081013441E-07;-4,26410119980574E-07;100 nA
0,90087890625;378,230702045059;2,109375E-08;0,89996337890625;10;742;4,36520081013441E-07;-4,26410119980574E-07;100 nA
0,850830078125;378,731190043796;1,6424560546875E-08;0,849609375;10;743;4,36520081013441E-07;-4,26410119980574E-07;100 nA
0,80078125;379,231678042532;1,25152587890625E-08;0,79986572265625;10;744;4,36520081013441E-07;-4,26410119980574E-07;100 nA
0,750732421875;379,732166041268;9,149169921875E-09;0,749908447265625;10;745;4,36520081013441E-07;-4,26410119980574E-07;100 nA
0,70068359375;380,232654040005;6,1614990234375E-09;0,70001220703125;10;746;4,36520081013441E-07;-4,26410119980574E-07;100 nA
0,650634765625;380,733142038741;3,43017578125E-09;0,650146484375;10;747;4,36520081013441E-07;-4,26410119980574E-07;100 nA
0,6005859375;381,233630037478;9,2864990234375E-10;0,600128173828125;10;748;4,36520081013441E-07;-4,26410119980574E-07;100 nA
0,550537109375;381,734118036214;-1,5301513671875E-09;0,550201416015625;10;749;4,36520081013441E-07;-4,26410119980574E-07;100 nA
0,50048828125;382,23460603495;-3,948974609375E-09;0,500213623046875;10;750;4,36520081013441E-07;-4,26410119980574E-07;100 nA
0,450439453125;382,735094033687;-6,33544921875E-09;0,450164794921875;10;751;4,36520081013441E-07;-4,26410119980574E-07;100 nA
0,400390625;383,235582032423;-8,782958984375E-09;0,400238037109375;10;752;4,36520081013441E-07;-4,26410119980574E-07;100 nA
0,350341796875;383,73607003116;-1,13677978515625E-08;0,350189208984375;10;753;4,36520081013441E-07;-4,26410119980574E-07;100 nA
0,30029296875;384,236558029896;-1,41632080078125E-08;0,300140380859375;10;754;4,36520081013441E-07;-4,26410119980574E-07;100 nA
0,250244140625;384,737046028632;-1,72332763671875E-08;0,250213623046875;10;755;4,36520081013441E-07;-4,26410119980574E-07;100 nA
0,2001953125;385,237534027369;-2,06207275390625E-08;0,200164794921875;10;756;4,36520081013441E-07;-4,26410119980574E-07;100 nA
0,150146484375;385,738022026105;-2,41912841796875E-08;0,150177001953125;10;757;4,36520081013441E-07;-4,26410119980574E-07;100 nA
0,10009765625;386,238510024842;-2,7239990234375E-08;0,100128173828125;10;758;4,36520081013441E-07;-4,26410119980574E-07;100 nA
0,050048828125;386,738998023578;-2,94158935546875E-08;0,0501708984375;10;759;4,36520081013441E-07;-4,26410119980574E-07;100 nA
0;387,239486022314;-3,0828857421875E-08;0,000158691406249994;10;760;4,36520081013441E-07;-4,26410119980574E-07;100 nA
-0,050048828125;387,739974021051;-3,197021484375E-08;-0,049688720703125;10;761;4,36520081013441E-07;-4,26410119980574E-07;100 nA
-0,10009765625;388,240462019787;-3,27789306640625E-08;-0,099609375;10;762;4,36520081013441E-07;-4,26410119980574E-07;100 nA
-0,150146484375;388,740950018523;-3,33404541015625E-08;-0,1495361328125;10;763;4,36520081013441E-07;-4,26410119980574E-07;100 nA
-0,2001953125;389,24143801726;-3,4075927734375E-08;-0,19940185546875;10;764;4,36520081013441E-07;-4,26410119980574E-07;100 nA
-0,250244140625;389,741926015996;-3,47808837890625E-08;-0,249267578125;10;765;4,36520081013441E-07;-4,26410119980574E-07;100 nA
-0,30029296875;390,242414014733;-3,5443115234375E-08;-0,299224853515625;10;766;4,36520081013441E-07;-4,26410119980574E-07;100 nA
-0,350341796875;390,742902013469;-3,61846923828125E-08;-0,349151611328125;10;767;4,36520081013441E-07;-4,26410119980574E-07;100 nA
-0,400390625;391,243390012205;-3,697509765625E-08;-0,3990478515625;10;768;4,36520081013441E-07;-4,26410119980574E-07;100 nA
-0,450439453125;391,743878010942;-3,78448486328125E-08;-0,448883056640625;10;769;4,36520081013441E-07;-4,26410119980574E-07;100 nA
-0,50048828125;392,244366009678;-3,8226318359375E-08;-0,498809814453125;10;770;4,36520081013441E-07;-4,26410119980574E-07;100 nA
-0,550537109375;392,744854008415;-3,6505126953125E-08;-0,548736572265625;10;771;4,36520081013441E-07;-4,26410119980574E-07;100 nA
-0,6005859375;393,245342007151;-3,14453125E-08;-0,5986328125;10;772;4,36520081013441E-07;-4,26410119980574E-07;100 nA
-0,650634765625;393,745830005887;-2,943115234375E-08;-0,648529052734375;10;773;4,36520081013441E-07;-4,26410119980574E-07;100 nA
-0,70068359375;394,246318004624;-2,7783203125E-08;-0,698638916015625;10;774;4,36520081013441E-07;-4,26410119980574E-07;100 nA
-0,750732421875;394,74680600336;-2,59521484375E-08;-0,748565673828125;10;775;4,36520081013441E-07;-4,26410119980574E-07;100 nA
-0,80078125;395,247294002097;-2,45330810546875E-08;-0,79864501953125;10;776;4,36520081013441E-07;-4,26410119980574E-07;100 nA
-0,850830078125;395,747782000833;-2,3760986328125E-08;-0,84930419921875;10;777;4,36520081013441E-07;-4,26410119980574E-07;100 nA
-0,90087890625;396,248269999569;-2,335205078125E-08;-0,8984375;10;778;4,36520081013441E-07;-4,26410119980574E-07;100 nA
-0,950927734375;396,748757998306;-2,29705810546875E-08;-0,94879150390625;10;779;4,36520081013441E-07;-4,26410119980574E-07;100 nA
-1,0009765625;397,249245997042;-2,25250244140625E-08;-0,99884033203125;10;780;4,36520081013441E-07;-4,26410119980574E-07;100 nA
-0,950927734375;397,749733995778;-1,427001953125E-08;-0,9490966796875;10;781;4,36520081013441E-07;-4,26410119980574E-07;100 nA
-0,90087890625;398,250221994515;-9,55810546875E-09;-0,8984375;10;782;4,36520081013441E-07;-4,26410119980574E-07;100 nA
-0,850830078125;398,750709993251;-6,3507080078125E-09;-0,84869384765625;10;783;4,36520081013441E-07;-4,26410119980574E-07;100 nA
-0,80078125;399,251197991988;-3,936767578125E-09;-0,7989501953125;10;784;4,36520081013441E-07;-4,26410119980574E-07;100 nA
-0,750732421875;399,751685990724;-1,99737548828125E-09;-0,748626708984375;10;785;4,36520081013441E-07;-4,26410119980574E-07;100 nA
-0,70068359375;400,25217398946;-3,375244140625E-10;-0,698638916015625;10;786;4,36520081013441E-07;-4,26410119980574E-07;100 nA
-0,650634765625;400,752661988197;1,15478515625E-09;-0,648681640625;10;787;4,36520081013441E-07;-4,26410119980574E-07;100 nA
-0,6005859375;401,253149986933;2,50244140625E-09;-0,59869384765625;10;788;4,36520081013441E-07;-4,26410119980574E-07;100 nA
-0,550537109375;401,75363798567;3,77197265625E-09;-0,548828125;10;789;4,36520081013441E-07;-4,26410119980574E-07;100 nA
-0,50048828125;402,254125984406;5,0323486328125E-09;-0,498870849609375;10;790;4,36520081013441E-07;-4,26410119980574E-07;100 nA
-0,450439453125;402,754613983142;6,390380859375E-09;-0,449005126953125;10;791;4,36520081013441E-07;-4,26410119980574E-07;100 nA
-0,400390625;403,255101981879;7,855224609375E-09;-0,39910888671875;10;792;4,36520081013441E-07;-4,26410119980574E-07;100 nA
-0,350341796875;403,755589980615;9,283447265625E-09;-0,3492431640625;10;793;4,36520081013441E-07;-4,26410119980574E-07;100 nA
-0,30029296875;404,256077979352;1,05926513671875E-08;-0,29931640625;10;794;4,36520081013441E-07;-4,26410119980574E-07;100 nA
-0,250244140625;404,756565978088;1,187744140625E-08;-0,249420166015625;10;795;4,36520081013441E-07;-4,26410119980574E-07;100 nA
-0,2001953125;405,257053976824;1,31866455078125E-08;-0,19952392578125;10;796;4,36520081013441E-07;-4,26410119980574E-07;100 nA
-0,150146484375;405,757541975561;1,46270751953125E-08;-0,149658203125;10;797;4,36520081013441E-07;-4,26410119980574E-07;100 nA
-0,10009765625;406,258029974297;1,63421630859375E-08;-0,099761962890625;10;798;4,36520081013441E-07;-4,26410119980574E-07;100 nA
-0,050048828125;406,758517973033;1,84112548828125E-08;-0,0499267578125;10;799;4,36520081013441E-07;-4,26410119980574E-07;100 nA
0;407,25900597177;2,0867919921875E-08;0,0001220703125;10;800;4,36520081013441E-07;-4,26410119980574E-07;100 nA
