Potential applied (V);Time (s);WE(1).Current (A);WE(1).Potential (V);Scan;Index;Q+;Q-;Current range
0,050048828125;7,43355298123208;1,1627197265625E-09;0,05010986328125;1;1;8,29300284385681E-08;-1,22884474694729E-07;100 nA
0,10009765625;7,93404097996847;1,6204833984375E-09;0,100189208984375;1;2;8,29300284385681E-08;-1,22884474694729E-07;100 nA
0,150146484375;8,43452897870486;1,9927978515625E-09;0,15008544921875;1;3;8,29300284385681E-08;-1,22884474694729E-07;100 nA
0,2001953125;8,93501697744125;2,3773193359375E-09;0,2000732421875;1;4;8,29300284385681E-08;-1,22884474694729E-07;100 nA
0,250244140625;9,43550497617764;2,79541015625E-09;0,250091552734375;1;5;8,29300284385681E-08;-1,22884474694729E-07;100 nA
0,30029296875;9,93599297491403;3,2562255859375E-09;0,30010986328125;1;6;8,29300284385681E-08;-1,22884474694729E-07;100 nA
0,350341796875;10,4364809736504;3,6956787109375E-09;0,350128173828125;1;7;8,29300284385681E-08;-1,22884474694729E-07;100 nA
0,400390625;10,9369689723868;4,3304443359375E-09;0,400177001953125;1;8;8,29300284385681E-08;-1,22884474694729E-07;100 nA
0,450439453125;11,4374569711232;4,8492431640625E-09;0,4501953125;1;9;8,29300284385681E-08;-1,22884474694729E-07;100 nA
0,50048828125;11,9379449698596;5,48095703125E-09;0,500091552734375;1;10;8,29300284385681E-08;-1,22884474694729E-07;100 nA
0,550537109375;12,438432968596;6,0699462890625E-09;0,550140380859375;1;11;8,29300284385681E-08;-1,22884474694729E-07;100 nA
0,6005859375;12,9389209673324;6,5185546875E-09;0,600128173828125;1;12;8,29300284385681E-08;-1,22884474694729E-07;100 nA
0,650634765625;13,4394089660688;6,79931640625E-09;0,650054931640625;1;13;8,29300284385681E-08;-1,22884474694729E-07;100 nA
0,70068359375;13,9398969648051;6,988525390625E-09;0,699951171875;1;14;8,29300284385681E-08;-1,22884474694729E-07;100 nA
0,750732421875;14,4403849635415;7,0220947265625E-09;0,7498779296875;1;15;8,29300284385681E-08;-1,22884474694729E-07;100 nA
0,80078125;14,9408729622779;6,9091796875E-09;0,8001708984375;1;16;8,29300284385681E-08;-1,22884474694729E-07;100 nA
0,850830078125;15,4413609610143;6,7230224609375E-09;0,84991455078125;1;17;8,29300284385681E-08;-1,22884474694729E-07;100 nA
0,90087890625;15,9418489597507;6,610107421875E-09;0,89935302734375;1;18;8,29300284385681E-08;-1,22884474694729E-07;100 nA
0,950927734375;16,4423369584871;6,5399169921875E-09;0,94970703125;1;19;8,29300284385681E-08;-1,22884474694729E-07;100 nA
1,0009765625;16,9428249572235;6,4727783203125E-09;0,999755859375;1;20;8,29300284385681E-08;-1,22884474694729E-07;100 nA
0,950927734375;17,4433129559599;3,7994384765625E-09;0,94940185546875;1;21;8,29300284385681E-08;-1,22884474694729E-07;100 nA
0,90087890625;17,9438009546963;2,4444580078125E-09;0,89996337890625;1;22;8,29300284385681E-08;-1,22884474694729E-07;100 nA
0,850830078125;18,4442889534326;1,611328125E-09;0,84991455078125;1;23;8,29300284385681E-08;-1,22884474694729E-07;100 nA
0,80078125;18,944776952169;9,613037109375E-10;0,79986572265625;1;24;8,29300284385681E-08;-1,22884474694729E-07;100 nA
0,750732421875;19,4452649509054;4,33349609375E-10;0,749908447265625;1;25;8,29300284385681E-08;-1,22884474694729E-07;100 nA
0,70068359375;19,9457529496418;-7,9345703125E-11;0,70001220703125;1;26;8,29300284385681E-08;-1,22884474694729E-07;100 nA
0,650634765625;20,4462409483782;-6,195068359375E-10;0,650115966796875;1;27;8,29300284385681E-08;-1,22884474694729E-07;100 nA
0,6005859375;20,9467289471146;-1,1871337890625E-09;0,60009765625;1;28;8,29300284385681E-08;-1,22884474694729E-07;100 nA
0,550537109375;21,447216945851;-1,7822265625E-09;0,550140380859375;1;29;8,29300284385681E-08;-1,22884474694729E-07;100 nA
0,50048828125;21,9477049445874;-2,34375E-09;0,500152587890625;1;30;8,29300284385681E-08;-1,22884474694729E-07;100 nA
0,450439453125;22,4481929433238;-2,838134765625E-09;0,45013427734375;1;31;8,29300284385681E-08;-1,22884474694729E-07;100 nA
0,400390625;22,9486809420602;-3,28369140625E-09;0,400177001953125;1;32;8,29300284385681E-08;-1,22884474694729E-07;100 nA
0,350341796875;23,4491689407965;-3,6956787109375E-09;0,35015869140625;1;33;8,29300284385681E-08;-1,22884474694729E-07;100 nA
0,30029296875;23,9496569395329;-4,21142578125E-09;0,300140380859375;1;34;8,29300284385681E-08;-1,22884474694729E-07;100 nA
0,250244140625;24,4501449382693;-4,57763671875E-09;0,250091552734375;1;35;8,29300284385681E-08;-1,22884474694729E-07;100 nA
0,2001953125;24,9506329370057;-4,8980712890625E-09;0,2000732421875;1;36;8,29300284385681E-08;-1,22884474694729E-07;100 nA
0,150146484375;25,4511209357421;-5,2276611328125E-09;0,150115966796875;1;37;8,29300284385681E-08;-1,22884474694729E-07;100 nA
0,10009765625;25,9516089344785;-5,6976318359375E-09;0,100128173828125;1;38;8,29300284385681E-08;-1,22884474694729E-07;100 nA
0,050048828125;26,4520969332149;-6,4483642578125E-09;0,050079345703125;1;39;8,29300284385681E-08;-1,22884474694729E-07;100 nA
0;26,9525849319513;-7,867431640625E-09;0,000164794921875003;1;40;8,29300284385681E-08;-1,22884474694729E-07;100 nA
-0,050048828125;27,4530729306877;-1,01043701171875E-08;-0,049774169921875;1;41;8,29300284385681E-08;-1,22884474694729E-07;100 nA
-0,10009765625;27,953560929424;-1,1761474609375E-08;-0,099700927734375;1;42;8,29300284385681E-08;-1,22884474694729E-07;100 nA
-0,150146484375;28,4540489281604;-1,32415771484375E-08;-0,14959716796875;1;43;8,29300284385681E-08;-1,22884474694729E-07;100 nA
-0,2001953125;28,9545369268968;-1,42486572265625E-08;-0,199462890625;1;44;8,29300284385681E-08;-1,22884474694729E-07;100 nA
-0,250244140625;29,4550249256332;-1,4410400390625E-08;-0,249298095703125;1;45;8,29300284385681E-08;-1,22884474694729E-07;100 nA
-0,30029296875;29,9555129243696;-1,365966796875E-08;-0,299285888671875;1;46;8,29300284385681E-08;-1,22884474694729E-07;100 nA
-0,350341796875;30,456000923106;-1,03851318359375E-08;-0,349212646484375;1;47;8,29300284385681E-08;-1,22884474694729E-07;100 nA
-0,400390625;30,9564889218424;-8,0474853515625E-09;-0,39910888671875;1;48;8,29300284385681E-08;-1,22884474694729E-07;100 nA
-0,450439453125;31,4569769205788;-8,0047607421875E-09;-0,448974609375;1;49;8,29300284385681E-08;-1,22884474694729E-07;100 nA
-0,50048828125;31,9574649193152;-7,928466796875E-09;-0,498931884765625;1;50;8,29300284385681E-08;-1,22884474694729E-07;100 nA
-0,550537109375;32,4579529180515;-7,51953125E-09;-0,54876708984375;1;51;8,29300284385681E-08;-1,22884474694729E-07;100 nA
-0,6005859375;32,9584409167879;-7,159423828125E-09;-0,5987548828125;1;52;8,29300284385681E-08;-1,22884474694729E-07;100 nA
-0,650634765625;33,4589289155243;-6,9183349609375E-09;-0,648651123046875;1;53;8,29300284385681E-08;-1,22884474694729E-07;100 nA
-0,70068359375;33,9594169142607;-6,793212890625E-09;-0,69854736328125;1;54;8,29300284385681E-08;-1,22884474694729E-07;100 nA
-0,750732421875;34,4599049129971;-6,7230224609375E-09;-0,748626708984375;1;55;8,29300284385681E-08;-1,22884474694729E-07;100 nA
-0,80078125;34,9603929117335;-6,671142578125E-09;-0,79833984375;1;56;8,29300284385681E-08;-1,22884474694729E-07;100 nA
-0,850830078125;35,4608809104699;-6,695556640625E-09;-0,84869384765625;1;57;8,29300284385681E-08;-1,22884474694729E-07;100 nA
-0,90087890625;35,9613689092063;-6,7901611328125E-09;-0,89874267578125;1;58;8,29300284385681E-08;-1,22884474694729E-07;100 nA
-0,950927734375;36,4618569079427;-6,9061279296875E-09;-0,94879150390625;1;59;8,29300284385681E-08;-1,22884474694729E-07;100 nA
-1,0009765625;36,9623449066791;-7,159423828125E-09;-0,99884033203125;1;60;8,29300284385681E-08;-1,22884474694729E-07;100 nA
-0,950927734375;37,4628329054154;-4,150390625E-09;-0,9490966796875;1;61;8,29300284385681E-08;-1,22884474694729E-07;100 nA
-0,90087890625;37,9633209041518;-2,60009765625E-09;-0,8984375;1;62;8,29300284385681E-08;-1,22884474694729E-07;100 nA
-0,850830078125;38,4638089028882;-1,629638671875E-09;-0,848388671875;1;63;8,29300284385681E-08;-1,22884474694729E-07;100 nA
-0,80078125;38,9642969016246;-9,21630859375E-10;-0,79864501953125;1;64;8,29300284385681E-08;-1,22884474694729E-07;100 nA
-0,750732421875;39,464784900361;-3,41796875E-10;-0,7486572265625;1;65;8,29300284385681E-08;-1,22884474694729E-07;100 nA
-0,70068359375;39,9652728990974;1,922607421875E-10;-0,69866943359375;1;66;8,29300284385681E-08;-1,22884474694729E-07;100 nA
-0,650634765625;40,4657608978338;7,232666015625E-10;-0,648651123046875;1;67;8,29300284385681E-08;-1,22884474694729E-07;100 nA
-0,6005859375;40,9662488965702;1,2359619140625E-09;-0,59869384765625;1;68;8,29300284385681E-08;-1,22884474694729E-07;100 nA
-0,550537109375;41,4667368953066;1,751708984375E-09;-0,548858642578125;1;69;8,29300284385681E-08;-1,22884474694729E-07;100 nA
-0,50048828125;41,9672248940429;2,2705078125E-09;-0,4989013671875;1;70;8,29300284385681E-08;-1,22884474694729E-07;100 nA
-0,450439453125;42,4677128927793;2,8717041015625E-09;-0,448974609375;1;71;8,29300284385681E-08;-1,22884474694729E-07;100 nA
-0,400390625;42,9682008915157;3,607177734375E-09;-0,399078369140625;1;72;8,29300284385681E-08;-1,22884474694729E-07;100 nA
-0,350341796875;43,4686888902521;4,437255859375E-09;-0,3492431640625;1;73;8,29300284385681E-08;-1,22884474694729E-07;100 nA
-0,30029296875;43,9691768889885;4,9530029296875E-09;-0,299285888671875;1;74;8,29300284385681E-08;-1,22884474694729E-07;100 nA
-0,250244140625;44,4696648877249;5,1971435546875E-09;-0,249359130859375;1;75;8,29300284385681E-08;-1,22884474694729E-07;100 nA
-0,2001953125;44,9701528864613;5,3558349609375E-09;-0,1995849609375;1;76;8,29300284385681E-08;-1,22884474694729E-07;100 nA
-0,150146484375;45,4706408851977;5,4840087890625E-09;-0,149566650390625;1;77;8,29300284385681E-08;-1,22884474694729E-07;100 nA
-0,10009765625;45,9711288839341;5,743408203125E-09;-0,099700927734375;1;78;8,29300284385681E-08;-1,22884474694729E-07;100 nA
-0,050048828125;46,4716168826704;6,524658203125E-09;-0,0498046875;1;79;8,29300284385681E-08;-1,22884474694729E-07;100 nA
0;46,9721048814068;7,8857421875E-09;9,76562499999944E-05;1;80;8,29300284385681E-08;-1,22884474694729E-07;100 nA
0,050048828125;47,4725928801432;9,063720703125E-09;0,050079345703125;2;81;1,10410451889038E-07;-1,16774998605251E-07;100 nA
0,10009765625;47,9730808788796;8,2794189453125E-09;0,10009765625;2;82;1,10410451889038E-07;-1,16774998605251E-07;100 nA
0,150146484375;48,473568877616;6,671142578125E-09;0,15008544921875;2;83;1,10410451889038E-07;-1,16774998605251E-07;100 nA
0,2001953125;48,9740568763524;6,4422607421875E-09;0,200042724609375;2;84;1,10410451889038E-07;-1,16774998605251E-07;100 nA
0,250244140625;49,4745448750888;6,6009521484375E-09;0,250091552734375;2;85;1,10410451889038E-07;-1,16774998605251E-07;100 nA
0,30029296875;49,9750328738252;6,817626953125E-09;0,30010986328125;2;86;1,10410451889038E-07;-1,16774998605251E-07;100 nA
0,350341796875;50,4755208725616;7,0068359375E-09;0,350128173828125;2;87;1,10410451889038E-07;-1,16774998605251E-07;100 nA
0,400390625;50,976008871298;7,2418212890625E-09;0,400115966796875;2;88;1,10410451889038E-07;-1,16774998605251E-07;100 nA
0,450439453125;51,4764968700343;7,489013671875E-09;0,45013427734375;2;89;1,10410451889038E-07;-1,16774998605251E-07;100 nA
0,50048828125;51,9769848687707;7,8033447265625E-09;0,50018310546875;2;90;1,10410451889038E-07;-1,16774998605251E-07;100 nA
0,550537109375;52,4774728675071;8,1298828125E-09;0,55010986328125;2;91;1,10410451889038E-07;-1,16774998605251E-07;100 nA
0,6005859375;52,9779608662435;8,367919921875E-09;0,60009765625;2;92;1,10410451889038E-07;-1,16774998605251E-07;100 nA
0,650634765625;53,4784488649799;8,447265625E-09;0,65008544921875;2;93;1,10410451889038E-07;-1,16774998605251E-07;100 nA
0,70068359375;53,9789368637163;8,3831787109375E-09;0,699981689453125;2;94;1,10410451889038E-07;-1,16774998605251E-07;100 nA
0,750732421875;54,4794248624527;8,123779296875E-09;0,749847412109375;2;95;1,10410451889038E-07;-1,16774998605251E-07;100 nA
0,80078125;54,9799128611891;7,8125E-09;0,799560546875;2;96;1,10410451889038E-07;-1,16774998605251E-07;100 nA
0,850830078125;55,4804008599255;7,4737548828125E-09;0,84991455078125;2;97;1,10410451889038E-07;-1,16774998605251E-07;100 nA
0,90087890625;55,9808888586618;7,2113037109375E-09;0,899658203125;2;98;1,10410451889038E-07;-1,16774998605251E-07;100 nA
0,950927734375;56,4813768573982;7,012939453125E-09;0,94970703125;2;99;1,10410451889038E-07;-1,16774998605251E-07;100 nA
1,0009765625;56,9818648561346;6,915283203125E-09;0,99945068359375;2;100;1,10410451889038E-07;-1,16774998605251E-07;100 nA
0,950927734375;57,482352854871;4,2205810546875E-09;0,94940185546875;2;101;1,10410451889038E-07;-1,16774998605251E-07;100 nA
0,90087890625;57,9828408536074;2,7923583984375E-09;0,899658203125;2;102;1,10410451889038E-07;-1,16774998605251E-07;100 nA
0,850830078125;58,4833288523438;1,910400390625E-09;0,849609375;2;103;1,10410451889038E-07;-1,16774998605251E-07;100 nA
0,80078125;58,9838168510802;1,2542724609375E-09;0,799560546875;2;104;1,10410451889038E-07;-1,16774998605251E-07;100 nA
0,750732421875;59,4843048498166;6,927490234375E-10;0,749908447265625;2;105;1,10410451889038E-07;-1,16774998605251E-07;100 nA
0,70068359375;59,984792848553;1,617431640625E-10;0,699981689453125;2;106;1,10410451889038E-07;-1,16774998605251E-07;100 nA
0,650634765625;60,4852808472893;-4,180908203125E-10;0,650115966796875;2;107;1,10410451889038E-07;-1,16774998605251E-07;100 nA
0,6005859375;60,9857688460257;-1,0162353515625E-09;0,60015869140625;2;108;1,10410451889038E-07;-1,16774998605251E-07;100 nA
0,550537109375;61,4862568447621;-1,6510009765625E-09;0,5501708984375;2;109;1,10410451889038E-07;-1,16774998605251E-07;100 nA
0,50048828125;61,9867448434985;-2,2705078125E-09;0,5001220703125;2;110;1,10410451889038E-07;-1,16774998605251E-07;100 nA
0,450439453125;62,4872328422349;-2,801513671875E-09;0,450164794921875;2;111;1,10410451889038E-07;-1,16774998605251E-07;100 nA
0,400390625;62,9877208409713;-3,2501220703125E-09;0,400177001953125;2;112;1,10410451889038E-07;-1,16774998605251E-07;100 nA
0,350341796875;63,4882088397077;-3,662109375E-09;0,3502197265625;2;113;1,10410451889038E-07;-1,16774998605251E-07;100 nA
0,30029296875;63,9886968384441;-4,193115234375E-09;0,30010986328125;2;114;1,10410451889038E-07;-1,16774998605251E-07;100 nA
0,250244140625;64,4891848371805;-4,620361328125E-09;0,25006103515625;2;115;1,10410451889038E-07;-1,16774998605251E-07;100 nA
0,2001953125;64,9896728359168;-4,9774169921875E-09;0,2000732421875;2;116;1,10410451889038E-07;-1,16774998605251E-07;100 nA
0,150146484375;65,4901608346532;-5,3558349609375E-09;0,150115966796875;2;117;1,10410451889038E-07;-1,16774998605251E-07;100 nA
0,10009765625;65,9906488333896;-5,841064453125E-09;0,100067138671875;2;118;1,10410451889038E-07;-1,16774998605251E-07;100 nA
0,050048828125;66,491136832126;-6,5704345703125E-09;0,05010986328125;2;119;1,10410451889038E-07;-1,16774998605251E-07;100 nA
0;66,9916248308624;-7,97119140625E-09;0,000155639648437497;2;120;1,10410451889038E-07;-1,16774998605251E-07;100 nA
-0,050048828125;67,4921128295988;-1,03363037109375E-08;-0,049835205078125;2;121;1,10410451889038E-07;-1,16774998605251E-07;100 nA
-0,10009765625;67,9926008283352;-1,22039794921875E-08;-0,09967041015625;2;122;1,10410451889038E-07;-1,16774998605251E-07;100 nA
-0,150146484375;68,4930888270716;-1,37359619140625E-08;-0,1495361328125;2;123;1,10410451889038E-07;-1,16774998605251E-07;100 nA
-0,2001953125;68,993576825808;-1,4654541015625E-08;-0,199432373046875;2;124;1,10410451889038E-07;-1,16774998605251E-07;100 nA
-0,250244140625;69,4940648245444;-1,45111083984375E-08;-0,249359130859375;2;125;1,10410451889038E-07;-1,16774998605251E-07;100 nA
-0,30029296875;69,9945528232807;-1,28204345703125E-08;-0,299224853515625;2;126;1,10410451889038E-07;-1,16774998605251E-07;100 nA
-0,350341796875;70,4950408220171;-8,6212158203125E-09;-0,349212646484375;2;127;1,10410451889038E-07;-1,16774998605251E-07;100 nA
-0,400390625;70,9955288207535;-7,6416015625E-09;-0,399139404296875;2;128;1,10410451889038E-07;-1,16774998605251E-07;100 nA
-0,450439453125;71,4960168194899;-7,513427734375E-09;-0,448974609375;2;129;1,10410451889038E-07;-1,16774998605251E-07;100 nA
-0,50048828125;71,9965048182263;-7,2052001953125E-09;-0,498809814453125;2;130;1,10410451889038E-07;-1,16774998605251E-07;100 nA
-0,550537109375;72,4969928169627;-6,695556640625E-09;-0,548828125;2;131;1,10410451889038E-07;-1,16774998605251E-07;100 nA
-0,6005859375;72,9974808156991;-6,3262939453125E-09;-0,59869384765625;2;132;1,10410451889038E-07;-1,16774998605251E-07;100 nA
-0,650634765625;73,4979688144355;-6,0943603515625E-09;-0,64862060546875;2;133;1,10410451889038E-07;-1,16774998605251E-07;100 nA
-0,70068359375;73,9984568131719;-5,9478759765625E-09;-0,698638916015625;2;134;1,10410451889038E-07;-1,16774998605251E-07;100 nA
-0,750732421875;74,4989448119082;-5,859375E-09;-0,7486572265625;2;135;1,10410451889038E-07;-1,16774998605251E-07;100 nA
-0,80078125;74,9994328106446;-5,804443359375E-09;-0,7989501953125;2;136;1,10410451889038E-07;-1,16774998605251E-07;100 nA
-0,850830078125;75,499920809381;-5,84716796875E-09;-0,84869384765625;2;137;1,10410451889038E-07;-1,16774998605251E-07;100 nA
-0,90087890625;76,0004088081174;-5,96923828125E-09;-0,8990478515625;2;138;1,10410451889038E-07;-1,16774998605251E-07;100 nA
-0,950927734375;76,5008968068538;-6,1798095703125E-09;-0,94940185546875;2;139;1,10410451889038E-07;-1,16774998605251E-07;100 nA
-1,0009765625;77,0013848055902;-6,4849853515625E-09;-0,99884033203125;2;140;1,10410451889038E-07;-1,16774998605251E-07;100 nA
-0,950927734375;77,5018728043266;-3,704833984375E-09;-0,9490966796875;2;141;1,10410451889038E-07;-1,16774998605251E-07;100 nA
-0,90087890625;78,002360803063;-2,28271484375E-09;-0,89874267578125;2;142;1,10410451889038E-07;-1,16774998605251E-07;100 nA
-0,850830078125;78,5028488017994;-1,385498046875E-09;-0,84869384765625;2;143;1,10410451889038E-07;-1,16774998605251E-07;100 nA
-0,80078125;79,0033368005357;-7,26318359375E-10;-0,7989501953125;2;144;1,10410451889038E-07;-1,16774998605251E-07;100 nA
-0,750732421875;79,5038247992721;-1,708984375E-10;-0,748687744140625;2;145;1,10410451889038E-07;-1,16774998605251E-07;100 nA
-0,70068359375;80,0043127980085;3,47900390625E-10;-0,698699951171875;2;146;1,10410451889038E-07;-1,16774998605251E-07;100 nA
-0,650634765625;80,5048007967449;8,30078125E-10;-0,64862060546875;2;147;1,10410451889038E-07;-1,16774998605251E-07;100 nA
-0,6005859375;81,0052887954813;1,3214111328125E-09;-0,598785400390625;2;148;1,10410451889038E-07;-1,16774998605251E-07;100 nA
-0,550537109375;81,5057767942177;1,8218994140625E-09;-0,548797607421875;2;149;1,10410451889038E-07;-1,16774998605251E-07;100 nA
-0,50048828125;82,0062647929541;2,3193359375E-09;-0,4989013671875;2;150;1,10410451889038E-07;-1,16774998605251E-07;100 nA
-0,450439453125;82,5067527916905;2,8350830078125E-09;-0,449005126953125;2;151;1,10410451889038E-07;-1,16774998605251E-07;100 nA
-0,400390625;83,0072407904269;3,5003662109375E-09;-0,39910888671875;2;152;1,10410451889038E-07;-1,16774998605251E-07;100 nA
-0,350341796875;83,5077287891633;4,3426513671875E-09;-0,349273681640625;2;153;1,10410451889038E-07;-1,16774998605251E-07;100 nA
-0,30029296875;84,0082167878996;5,0018310546875E-09;-0,29931640625;2;154;1,10410451889038E-07;-1,16774998605251E-07;100 nA
-0,250244140625;84,508704786636;5,255126953125E-09;-0,249420166015625;2;155;1,10410451889038E-07;-1,16774998605251E-07;100 nA
-0,2001953125;85,0091927853724;5,3924560546875E-09;-0,199493408203125;2;156;1,10410451889038E-07;-1,16774998605251E-07;100 nA
-0,150146484375;85,5096807841088;5,5145263671875E-09;-0,149627685546875;2;157;1,10410451889038E-07;-1,16774998605251E-07;100 nA
-0,10009765625;86,0101687828452;5,72509765625E-09;-0,099700927734375;2;158;1,10410451889038E-07;-1,16774998605251E-07;100 nA
-0,050048828125;86,5106567815816;6,4117431640625E-09;-0,0498046875;2;159;1,10410451889038E-07;-1,16774998605251E-07;100 nA
0;87,011144780318;7,659912109375E-09;0,000143432617187494;2;160;1,10410451889038E-07;-1,16774998605251E-07;100 nA
0,050048828125;87,5116327790544;8,69140625E-09;0,05010986328125;3;161;1,08530260622501E-07;-1,12605281174183E-07;100 nA
0,10009765625;88,0121207777908;7,80029296875E-09;0,10003662109375;3;162;1,08530260622501E-07;-1,12605281174183E-07;100 nA
0,150146484375;88,5126087765271;6,50634765625E-09;0,150054931640625;3;163;1,08530260622501E-07;-1,12605281174183E-07;100 nA
0,2001953125;89,0130967752635;6,3995361328125E-09;0,2000732421875;3;164;1,08530260622501E-07;-1,12605281174183E-07;100 nA
0,250244140625;89,5135847739999;6,573486328125E-09;0,250152587890625;3;165;1,08530260622501E-07;-1,12605281174183E-07;100 nA
0,30029296875;90,0140727727363;6,7962646484375E-09;0,300140380859375;3;166;1,08530260622501E-07;-1,12605281174183E-07;100 nA
0,350341796875;90,5145607714727;6,9854736328125E-09;0,350128173828125;3;167;1,08530260622501E-07;-1,12605281174183E-07;100 nA
0,400390625;91,0150487702091;7,171630859375E-09;0,400146484375;3;168;1,08530260622501E-07;-1,12605281174183E-07;100 nA
0,450439453125;91,5155367689455;7,4066162109375E-09;0,450103759765625;3;169;1,08530260622501E-07;-1,12605281174183E-07;100 nA
0,50048828125;92,0160247676819;7,6904296875E-09;0,5001220703125;3;170;1,08530260622501E-07;-1,12605281174183E-07;100 nA
0,550537109375;92,5165127664183;7,989501953125E-09;0,550201416015625;3;171;1,08530260622501E-07;-1,12605281174183E-07;100 nA
0,6005859375;93,0170007651546;8,21533203125E-09;0,60015869140625;3;172;1,08530260622501E-07;-1,12605281174183E-07;100 nA
0,650634765625;93,517488763891;8,3099365234375E-09;0,650054931640625;3;173;1,08530260622501E-07;-1,12605281174183E-07;100 nA
0,70068359375;94,0179767626274;8,2427978515625E-09;0,70001220703125;3;174;1,08530260622501E-07;-1,12605281174183E-07;100 nA
0,750732421875;94,5184647613638;8,0322265625E-09;0,7498779296875;3;175;1,08530260622501E-07;-1,12605281174183E-07;100 nA
0,80078125;95,0189527601002;7,67822265625E-09;0,80047607421875;3;176;1,08530260622501E-07;-1,12605281174183E-07;100 nA
0,850830078125;95,5194407588366;7,3577880859375E-09;0,84991455078125;3;177;1,08530260622501E-07;-1,12605281174183E-07;100 nA
0,90087890625;96,019928757573;7,080078125E-09;0,899658203125;3;178;1,08530260622501E-07;-1,12605281174183E-07;100 nA
0,950927734375;96,5204167563094;6,9427490234375E-09;0,94970703125;3;179;1,08530260622501E-07;-1,12605281174183E-07;100 nA
1,0009765625;97,0209047550458;6,8878173828125E-09;0,99945068359375;3;180;1,08530260622501E-07;-1,12605281174183E-07;100 nA
0,950927734375;97,5213927537822;4,18701171875E-09;0,95001220703125;3;181;1,08530260622501E-07;-1,12605281174183E-07;100 nA
0,90087890625;98,0218807525185;2,79541015625E-09;0,89996337890625;3;182;1,08530260622501E-07;-1,12605281174183E-07;100 nA
0,850830078125;98,5223687512549;1,9317626953125E-09;0,84991455078125;3;183;1,08530260622501E-07;-1,12605281174183E-07;100 nA
0,80078125;99,0228567499913;1,2359619140625E-09;0,79986572265625;3;184;1,08530260622501E-07;-1,12605281174183E-07;100 nA
0,750732421875;99,5233447487277;7,080078125E-10;0,7498779296875;3;185;1,08530260622501E-07;-1,12605281174183E-07;100 nA
0,70068359375;100,023832747464;1,8310546875E-10;0,70001220703125;3;186;1,08530260622501E-07;-1,12605281174183E-07;100 nA
0,650634765625;100,5243207462;-3,448486328125E-10;0,650146484375;3;187;1,08530260622501E-07;-1,12605281174183E-07;100 nA
0,6005859375;101,024808744937;-9,613037109375E-10;0,600128173828125;3;188;1,08530260622501E-07;-1,12605281174183E-07;100 nA
0,550537109375;101,525296743673;-1,5838623046875E-09;0,550140380859375;3;189;1,08530260622501E-07;-1,12605281174183E-07;100 nA
0,50048828125;102,02578474241;-2,2064208984375E-09;0,50018310546875;3;190;1,08530260622501E-07;-1,12605281174183E-07;100 nA
0,450439453125;102,526272741146;-2,7801513671875E-09;0,45013427734375;3;191;1,08530260622501E-07;-1,12605281174183E-07;100 nA
0,400390625;103,026760739882;-3,21044921875E-09;0,40008544921875;3;192;1,08530260622501E-07;-1,12605281174183E-07;100 nA
0,350341796875;103,527248738619;-3,594970703125E-09;0,350189208984375;3;193;1,08530260622501E-07;-1,12605281174183E-07;100 nA
0,30029296875;104,027736737355;-4,1229248046875E-09;0,300140380859375;3;194;1,08530260622501E-07;-1,12605281174183E-07;100 nA
0,250244140625;104,528224736092;-4,6051025390625E-09;0,250091552734375;3;195;1,08530260622501E-07;-1,12605281174183E-07;100 nA
0,2001953125;105,028712734828;-4,9072265625E-09;0,200103759765625;3;196;1,08530260622501E-07;-1,12605281174183E-07;100 nA
0,150146484375;105,529200733564;-5,3253173828125E-09;0,15008544921875;3;197;1,08530260622501E-07;-1,12605281174183E-07;100 nA
0,10009765625;106,029688732301;-5,76171875E-09;0,100067138671875;3;198;1,08530260622501E-07;-1,12605281174183E-07;100 nA
0,050048828125;106,530176731037;-6,451416015625E-09;0,05010986328125;3;199;1,08530260622501E-07;-1,12605281174183E-07;100 nA
0;107,030664729774;-7,84912109375E-09;0,000146484375000006;3;200;1,08530260622501E-07;-1,12605281174183E-07;100 nA
-0,050048828125;107,53115272851;-1,02142333984375E-08;-0,0498046875;3;201;1,08530260622501E-07;-1,12605281174183E-07;100 nA
-0,10009765625;108,031640727246;-1,21856689453125E-08;-0,09967041015625;3;202;1,08530260622501E-07;-1,12605281174183E-07;100 nA
-0,150146484375;108,532128725983;-1,36627197265625E-08;-0,149627685546875;3;203;1,08530260622501E-07;-1,12605281174183E-07;100 nA
-0,2001953125;109,032616724719;-1,448974609375E-08;-0,199462890625;3;204;1,08530260622501E-07;-1,12605281174183E-07;100 nA
-0,250244140625;109,533104723455;-1,41326904296875E-08;-0,249298095703125;3;205;1,08530260622501E-07;-1,12605281174183E-07;100 nA
-0,30029296875;110,033592722192;-1,1444091796875E-08;-0,299285888671875;3;206;1,08530260622501E-07;-1,12605281174183E-07;100 nA
-0,350341796875;110,534080720928;-7,9010009765625E-09;-0,34918212890625;3;207;1,08530260622501E-07;-1,12605281174183E-07;100 nA
-0,400390625;111,034568719665;-7,4127197265625E-09;-0,39910888671875;3;208;1,08530260622501E-07;-1,12605281174183E-07;100 nA
-0,450439453125;111,535056718401;-7,2418212890625E-09;-0,448974609375;3;209;1,08530260622501E-07;-1,12605281174183E-07;100 nA
-0,50048828125;112,035544717137;-6,8389892578125E-09;-0,498870849609375;3;210;1,08530260622501E-07;-1,12605281174183E-07;100 nA
-0,550537109375;112,536032715874;-6,378173828125E-09;-0,548828125;3;211;1,08530260622501E-07;-1,12605281174183E-07;100 nA
-0,6005859375;113,03652071461;-6,0455322265625E-09;-0,598663330078125;3;212;1,08530260622501E-07;-1,12605281174183E-07;100 nA
-0,650634765625;113,537008713347;-5,7861328125E-09;-0,648590087890625;3;213;1,08530260622501E-07;-1,12605281174183E-07;100 nA
-0,70068359375;114,037496712083;-5,596923828125E-09;-0,6986083984375;3;214;1,08530260622501E-07;-1,12605281174183E-07;100 nA
-0,750732421875;114,537984710819;-5,5511474609375E-09;-0,748626708984375;3;215;1,08530260622501E-07;-1,12605281174183E-07;100 nA
-0,80078125;115,038472709556;-5,523681640625E-09;-0,7989501953125;3;216;1,08530260622501E-07;-1,12605281174183E-07;100 nA
-0,850830078125;115,538960708292;-5,5816650390625E-09;-0,84869384765625;3;217;1,08530260622501E-07;-1,12605281174183E-07;100 nA
-0,90087890625;116,039448707029;-5,70068359375E-09;-0,89874267578125;3;218;1,08530260622501E-07;-1,12605281174183E-07;100 nA
-0,950927734375;116,539936705765;-5,8929443359375E-09;-0,94879150390625;3;219;1,08530260622501E-07;-1,12605281174183E-07;100 nA
-1,0009765625;117,040424704501;-6,21337890625E-09;-0,99853515625;3;220;1,08530260622501E-07;-1,12605281174183E-07;100 nA
-0,950927734375;117,540912703238;-3,5186767578125E-09;-0,9490966796875;3;221;1,08530260622501E-07;-1,12605281174183E-07;100 nA
-0,90087890625;118,041400701974;-2,1148681640625E-09;-0,89874267578125;3;222;1,08530260622501E-07;-1,12605281174183E-07;100 nA
-0,850830078125;118,541888700711;-1,2359619140625E-09;-0,84869384765625;3;223;1,08530260622501E-07;-1,12605281174183E-07;100 nA
-0,80078125;119,042376699447;-5,645751953125E-10;-0,7989501953125;3;224;1,08530260622501E-07;-1,12605281174183E-07;100 nA
-0,750732421875;119,542864698183;-5,79833984375E-11;-0,748626708984375;3;225;1,08530260622501E-07;-1,12605281174183E-07;100 nA
-0,70068359375;120,04335269692;3,7841796875E-10;-0,6986083984375;3;226;1,08530260622501E-07;-1,12605281174183E-07;100 nA
-0,650634765625;120,543840695656;8,48388671875E-10;-0,648651123046875;3;227;1,08530260622501E-07;-1,12605281174183E-07;100 nA
-0,6005859375;121,044328694392;1,336669921875E-09;-0,59869384765625;3;228;1,08530260622501E-07;-1,12605281174183E-07;100 nA
-0,550537109375;121,544816693129;1,8341064453125E-09;-0,54876708984375;3;229;1,08530260622501E-07;-1,12605281174183E-07;100 nA
-0,50048828125;122,045304691865;2,2918701171875E-09;-0,498931884765625;3;230;1,08530260622501E-07;-1,12605281174183E-07;100 nA
-0,450439453125;122,545792690602;2,7923583984375E-09;-0,449005126953125;3;231;1,08530260622501E-07;-1,12605281174183E-07;100 nA
-0,400390625;123,046280689338;3,38134765625E-09;-0,399139404296875;3;232;1,08530260622501E-07;-1,12605281174183E-07;100 nA
-0,350341796875;123,546768688074;4,18701171875E-09;-0,3492431640625;3;233;1,08530260622501E-07;-1,12605281174183E-07;100 nA
-0,30029296875;124,047256686811;4,8919677734375E-09;-0,29931640625;3;234;1,08530260622501E-07;-1,12605281174183E-07;100 nA
-0,250244140625;124,547744685547;5,1666259765625E-09;-0,249420166015625;3;235;1,08530260622501E-07;-1,12605281174183E-07;100 nA
-0,2001953125;125,048232684284;5,2886962890625E-09;-0,19952392578125;3;236;1,08530260622501E-07;-1,12605281174183E-07;100 nA
-0,150146484375;125,54872068302;5,43212890625E-09;-0,14959716796875;3;237;1,08530260622501E-07;-1,12605281174183E-07;100 nA
-0,10009765625;126,049208681756;5,6304931640625E-09;-0,099700927734375;3;238;1,08530260622501E-07;-1,12605281174183E-07;100 nA
-0,050048828125;126,549696680493;6,23779296875E-09;-0,049835205078125;3;239;1,08530260622501E-07;-1,12605281174183E-07;100 nA
0;127,050184679229;7,3516845703125E-09;0,000109863281249997;3;240;1,08530260622501E-07;-1,12605281174183E-07;100 nA
0,050048828125;127,550672677966;8,2061767578125E-09;0,050018310546875;4;241;1,06223933398724E-07;-1,103600487113E-07;100 nA
0,10009765625;128,051160676702;7,147216796875E-09;0,100006103515625;4;242;1,06223933398724E-07;-1,103600487113E-07;100 nA
0,150146484375;128,551648675438;6,1859130859375E-09;0,1500244140625;4;243;1,06223933398724E-07;-1,103600487113E-07;100 nA
0,2001953125;129,052136674175;6,1492919921875E-09;0,20001220703125;4;244;1,06223933398724E-07;-1,103600487113E-07;100 nA
0,250244140625;129,552624672911;6,341552734375E-09;0,250030517578125;4;245;1,06223933398724E-07;-1,103600487113E-07;100 nA
0,30029296875;130,053112671647;6,5185546875E-09;0,300048828125;4;246;1,06223933398724E-07;-1,103600487113E-07;100 nA
0,350341796875;130,553600670384;6,732177734375E-09;0,35003662109375;4;247;1,06223933398724E-07;-1,103600487113E-07;100 nA
0,400390625;131,05408866912;6,915283203125E-09;0,400054931640625;4;248;1,06223933398724E-07;-1,103600487113E-07;100 nA
0,450439453125;131,554576667857;7,1380615234375E-09;0,450103759765625;4;249;1,06223933398724E-07;-1,103600487113E-07;100 nA
0,50048828125;132,055064666593;7,476806640625E-09;0,50006103515625;4;250;1,06223933398724E-07;-1,103600487113E-07;100 nA
0,550537109375;132,555552665329;7,763671875E-09;0,55010986328125;4;251;1,06223933398724E-07;-1,103600487113E-07;100 nA
0,6005859375;133,056040664066;7,99560546875E-09;0,60009765625;4;252;1,06223933398724E-07;-1,103600487113E-07;100 nA
0,650634765625;133,556528662802;8,0780029296875E-09;0,650054931640625;4;253;1,06223933398724E-07;-1,103600487113E-07;100 nA
0,70068359375;134,057016661539;7,9742431640625E-09;0,699951171875;4;254;1,06223933398724E-07;-1,103600487113E-07;100 nA
0,750732421875;134,557504660275;7,7301025390625E-09;0,74981689453125;4;255;1,06223933398724E-07;-1,103600487113E-07;100 nA
0,80078125;135,057992659011;7,4188232421875E-09;0,79986572265625;4;256;1,06223933398724E-07;-1,103600487113E-07;100 nA
0,850830078125;135,558480657748;7,1319580078125E-09;0,84991455078125;4;257;1,06223933398724E-07;-1,103600487113E-07;100 nA
0,90087890625;136,058968656484;6,9854736328125E-09;0,899658203125;4;258;1,06223933398724E-07;-1,103600487113E-07;100 nA
0,950927734375;136,559456655221;6,8572998046875E-09;0,95001220703125;4;259;1,06223933398724E-07;-1,103600487113E-07;100 nA
1,0009765625;137,059944653957;6,84814453125E-09;0,99945068359375;4;260;1,06223933398724E-07;-1,103600487113E-07;100 nA
0,950927734375;137,560432652693;4,205322265625E-09;0,95001220703125;4;261;1,06223933398724E-07;-1,103600487113E-07;100 nA
0,90087890625;138,06092065143;2,8106689453125E-09;0,89996337890625;4;262;1,06223933398724E-07;-1,103600487113E-07;100 nA
0,850830078125;138,561408650166;1,953125E-09;0,84991455078125;4;263;1,06223933398724E-07;-1,103600487113E-07;100 nA
0,80078125;139,061896648902;1,2786865234375E-09;0,799560546875;4;264;1,06223933398724E-07;-1,103600487113E-07;100 nA
0,750732421875;139,562384647639;7,843017578125E-10;0,749908447265625;4;265;1,06223933398724E-07;-1,103600487113E-07;100 nA
0,70068359375;140,062872646375;2,899169921875E-10;0,699981689453125;4;266;1,06223933398724E-07;-1,103600487113E-07;100 nA
0,650634765625;140,563360645112;-1,89208984375E-10;0,650115966796875;4;267;1,06223933398724E-07;-1,103600487113E-07;100 nA
0,6005859375;141,063848643848;-8,1787109375E-10;0,6002197265625;4;268;1,06223933398724E-07;-1,103600487113E-07;100 nA
0,550537109375;141,564336642584;-1,4862060546875E-09;0,550201416015625;4;269;1,06223933398724E-07;-1,103600487113E-07;100 nA
0,50048828125;142,064824641321;-2,1026611328125E-09;0,500152587890625;4;270;1,06223933398724E-07;-1,103600487113E-07;100 nA
0,450439453125;142,565312640057;-2,6397705078125E-09;0,450225830078125;4;271;1,06223933398724E-07;-1,103600487113E-07;100 nA
0,400390625;143,065800638794;-3,106689453125E-09;0,400115966796875;4;272;1,06223933398724E-07;-1,103600487113E-07;100 nA
0,350341796875;143,56628863753;-3,5400390625E-09;0,350128173828125;4;273;1,06223933398724E-07;-1,103600487113E-07;100 nA
0,30029296875;144,066776636266;-4,0069580078125E-09;0,30010986328125;4;274;1,06223933398724E-07;-1,103600487113E-07;100 nA
0,250244140625;144,567264635003;-4,5013427734375E-09;0,2501220703125;4;275;1,06223933398724E-07;-1,103600487113E-07;100 nA
0,2001953125;145,067752633739;-4,82177734375E-09;0,200103759765625;4;276;1,06223933398724E-07;-1,103600487113E-07;100 nA
0,150146484375;145,568240632476;-5,23681640625E-09;0,150115966796875;4;277;1,06223933398724E-07;-1,103600487113E-07;100 nA
0,10009765625;146,068728631212;-5,670166015625E-09;0,10009765625;4;278;1,06223933398724E-07;-1,103600487113E-07;100 nA
0,050048828125;146,569216629948;-6,38427734375E-09;0,05010986328125;4;279;1,06223933398724E-07;-1,103600487113E-07;100 nA
0;147,069704628685;-7,684326171875E-09;0,000140380859374997;4;280;1,06223933398724E-07;-1,103600487113E-07;100 nA
-0,050048828125;147,570192627421;-1,002197265625E-08;-0,049774169921875;4;281;1,06223933398724E-07;-1,103600487113E-07;100 nA
-0,10009765625;148,070680626157;-1,20697021484375E-08;-0,099700927734375;4;282;1,06223933398724E-07;-1,103600487113E-07;100 nA
-0,150146484375;148,571168624894;-1,35345458984375E-08;-0,149566650390625;4;283;1,06223933398724E-07;-1,103600487113E-07;100 nA
-0,2001953125;149,07165662363;-1,4300537109375E-08;-0,199432373046875;4;284;1,06223933398724E-07;-1,103600487113E-07;100 nA
-0,250244140625;149,572144622367;-1,3677978515625E-08;-0,249359130859375;4;285;1,06223933398724E-07;-1,103600487113E-07;100 nA
-0,30029296875;150,072632621103;-1,00982666015625E-08;-0,2991943359375;4;286;1,06223933398724E-07;-1,103600487113E-07;100 nA
-0,350341796875;150,573120619839;-7,5927734375E-09;-0,34918212890625;4;287;1,06223933398724E-07;-1,103600487113E-07;100 nA
-0,400390625;151,073608618576;-7,305908203125E-09;-0,39910888671875;4;288;1,06223933398724E-07;-1,103600487113E-07;100 nA
-0,450439453125;151,574096617312;-7,098388671875E-09;-0,449005126953125;4;289;1,06223933398724E-07;-1,103600487113E-07;100 nA
-0,50048828125;152,074584616049;-6,67724609375E-09;-0,4989013671875;4;290;1,06223933398724E-07;-1,103600487113E-07;100 nA
-0,550537109375;152,575072614785;-6,2835693359375E-09;-0,548828125;4;291;1,06223933398724E-07;-1,103600487113E-07;100 nA
-0,6005859375;153,075560613521;-6,011962890625E-09;-0,5987548828125;4;292;1,06223933398724E-07;-1,103600487113E-07;100 nA
-0,650634765625;153,576048612258;-5,792236328125E-09;-0,648651123046875;4;293;1,06223933398724E-07;-1,103600487113E-07;100 nA
-0,70068359375;154,076536610994;-5,6396484375E-09;-0,69866943359375;4;294;1,06223933398724E-07;-1,103600487113E-07;100 nA
-0,750732421875;154,577024609731;-5,5419921875E-09;-0,748626708984375;4;295;1,06223933398724E-07;-1,103600487113E-07;100 nA
-0,80078125;155,077512608467;-5,572509765625E-09;-0,79833984375;4;296;1,06223933398724E-07;-1,103600487113E-07;100 nA
-0,850830078125;155,578000607203;-5,57861328125E-09;-0,848388671875;4;297;1,06223933398724E-07;-1,103600487113E-07;100 nA
-0,90087890625;156,07848860594;-5,706787109375E-09;-0,89874267578125;4;298;1,06223933398724E-07;-1,103600487113E-07;100 nA
-0,950927734375;156,578976604676;-5,9326171875E-09;-0,94879150390625;4;299;1,06223933398724E-07;-1,103600487113E-07;100 nA
-1,0009765625;157,079464603412;-6,201171875E-09;-0,9991455078125;4;300;1,06223933398724E-07;-1,103600487113E-07;100 nA
-0,950927734375;157,579952602149;-3,4942626953125E-09;-0,9490966796875;4;301;1,06223933398724E-07;-1,103600487113E-07;100 nA
-0,90087890625;158,080440600885;-2,13623046875E-09;-0,8984375;4;302;1,06223933398724E-07;-1,103600487113E-07;100 nA
-0,850830078125;158,580928599622;-1,2847900390625E-09;-0,84869384765625;4;303;1,06223933398724E-07;-1,103600487113E-07;100 nA
-0,80078125;159,081416598358;-6,439208984375E-10;-0,79925537109375;4;304;1,06223933398724E-07;-1,103600487113E-07;100 nA
-0,750732421875;159,581904597094;-1,190185546875E-10;-0,748626708984375;4;305;1,06223933398724E-07;-1,103600487113E-07;100 nA
-0,70068359375;160,082392595831;3,692626953125E-10;-0,6986083984375;4;306;1,06223933398724E-07;-1,103600487113E-07;100 nA
-0,650634765625;160,582880594567;8,453369140625E-10;-0,648681640625;4;307;1,06223933398724E-07;-1,103600487113E-07;100 nA
-0,6005859375;161,083368593304;1,33056640625E-09;-0,598724365234375;4;308;1,06223933398724E-07;-1,103600487113E-07;100 nA
-0,550537109375;161,58385659204;1,824951171875E-09;-0,548858642578125;4;309;1,06223933398724E-07;-1,103600487113E-07;100 nA
-0,50048828125;162,084344590776;2,3590087890625E-09;-0,4989013671875;4;310;1,06223933398724E-07;-1,103600487113E-07;100 nA
-0,450439453125;162,584832589513;2,81982421875E-09;-0,44903564453125;4;311;1,06223933398724E-07;-1,103600487113E-07;100 nA
-0,400390625;163,085320588249;3,363037109375E-09;-0,39910888671875;4;312;1,06223933398724E-07;-1,103600487113E-07;100 nA
-0,350341796875;163,585808586986;4,1717529296875E-09;-0,349273681640625;4;313;1,06223933398724E-07;-1,103600487113E-07;100 nA
-0,30029296875;164,086296585722;4,9041748046875E-09;-0,29931640625;4;314;1,06223933398724E-07;-1,103600487113E-07;100 nA
-0,250244140625;164,586784584458;5,23681640625E-09;-0,2493896484375;4;315;1,06223933398724E-07;-1,103600487113E-07;100 nA
-0,2001953125;165,087272583195;5,38330078125E-09;-0,19952392578125;4;316;1,06223933398724E-07;-1,103600487113E-07;100 nA
-0,150146484375;165,587760581931;5,5419921875E-09;-0,149658203125;4;317;1,06223933398724E-07;-1,103600487113E-07;100 nA
-0,10009765625;166,088248580667;5,70068359375E-09;-0,0997314453125;4;318;1,06223933398724E-07;-1,103600487113E-07;100 nA
-0,050048828125;166,588736579404;6,21337890625E-09;-0,0498046875;4;319;1,06223933398724E-07;-1,103600487113E-07;100 nA
0;167,08922457814;7,2601318359375E-09;8,54492187500056E-05;4;320;1,06223933398724E-07;-1,103600487113E-07;100 nA
0,050048828125;167,589712576877;7,9345703125E-09;0,05010986328125;5;321;1,0401077568531E-07;-1,07403062283993E-07;100 nA
0,10009765625;168,090200575613;6,8634033203125E-09;0,100067138671875;5;322;1,0401077568531E-07;-1,07403062283993E-07;100 nA
0,150146484375;168,590688574349;6,1065673828125E-09;0,15008544921875;5;323;1,0401077568531E-07;-1,07403062283993E-07;100 nA
0,2001953125;169,091176573086;6,2103271484375E-09;0,200103759765625;5;324;1,0401077568531E-07;-1,07403062283993E-07;100 nA
0,250244140625;169,591664571822;6,3995361328125E-09;0,25018310546875;5;325;1,0401077568531E-07;-1,07403062283993E-07;100 nA
0,30029296875;170,092152570559;6,5643310546875E-09;0,30010986328125;5;326;1,0401077568531E-07;-1,07403062283993E-07;100 nA
0,350341796875;170,592640569295;6,7657470703125E-09;0,35009765625;5;327;1,0401077568531E-07;-1,07403062283993E-07;100 nA
0,400390625;171,093128568031;6,927490234375E-09;0,400115966796875;5;328;1,0401077568531E-07;-1,07403062283993E-07;100 nA
0,450439453125;171,593616566768;7,147216796875E-09;0,450103759765625;5;329;1,0401077568531E-07;-1,07403062283993E-07;100 nA
0,50048828125;172,094104565504;7,4798583984375E-09;0,500091552734375;5;330;1,0401077568531E-07;-1,07403062283993E-07;100 nA
0,550537109375;172,594592564241;7,7606201171875E-09;0,5501708984375;5;331;1,0401077568531E-07;-1,07403062283993E-07;100 nA
0,6005859375;173,095080562977;7,958984375E-09;0,600128173828125;5;332;1,0401077568531E-07;-1,07403062283993E-07;100 nA
0,650634765625;173,595568561713;7,9925537109375E-09;0,650115966796875;5;333;1,0401077568531E-07;-1,07403062283993E-07;100 nA
0,70068359375;174,09605656045;7,8216552734375E-09;0,699981689453125;5;334;1,0401077568531E-07;-1,07403062283993E-07;100 nA
0,750732421875;174,596544559186;7,58056640625E-09;0,749908447265625;5;335;1,0401077568531E-07;-1,07403062283993E-07;100 nA
0,80078125;175,097032557922;7,2540283203125E-09;0,79986572265625;5;336;1,0401077568531E-07;-1,07403062283993E-07;100 nA
0,850830078125;175,597520556659;6,988525390625E-09;0,84991455078125;5;337;1,0401077568531E-07;-1,07403062283993E-07;100 nA
0,90087890625;176,098008555395;6,7901611328125E-09;0,899658203125;5;338;1,0401077568531E-07;-1,07403062283993E-07;100 nA
0,950927734375;176,598496554132;6,683349609375E-09;0,95001220703125;5;339;1,0401077568531E-07;-1,07403062283993E-07;100 nA
1,0009765625;177,098984552868;6,6558837890625E-09;1,00006103515625;5;340;1,0401077568531E-07;-1,07403062283993E-07;100 nA
0,950927734375;177,599472551604;4,046630859375E-09;0,94970703125;5;341;1,0401077568531E-07;-1,07403062283993E-07;100 nA
0,90087890625;178,099960550341;2,67333984375E-09;0,899658203125;5;342;1,0401077568531E-07;-1,07403062283993E-07;100 nA
0,850830078125;178,600448549077;1,8096923828125E-09;0,84930419921875;5;343;1,0401077568531E-07;-1,07403062283993E-07;100 nA
0,80078125;179,100936547814;1,1932373046875E-09;0,79986572265625;5;344;1,0401077568531E-07;-1,07403062283993E-07;100 nA
0,750732421875;179,60142454655;6,622314453125E-10;0,749908447265625;5;345;1,0401077568531E-07;-1,07403062283993E-07;100 nA
0,70068359375;180,101912545286;1,708984375E-10;0,70001220703125;5;346;1,0401077568531E-07;-1,07403062283993E-07;100 nA
0,650634765625;180,602400544023;-3,631591796875E-10;0,650115966796875;5;347;1,0401077568531E-07;-1,07403062283993E-07;100 nA
0,6005859375;181,102888542759;-9,21630859375E-10;0,60015869140625;5;348;1,0401077568531E-07;-1,07403062283993E-07;100 nA
0,550537109375;181,603376541496;-1,5411376953125E-09;0,55010986328125;5;349;1,0401077568531E-07;-1,07403062283993E-07;100 nA
0,50048828125;182,103864540232;-2,154541015625E-09;0,5001220703125;5;350;1,0401077568531E-07;-1,07403062283993E-07;100 nA
0,450439453125;182,604352538968;-2,728271484375E-09;0,4500732421875;5;351;1,0401077568531E-07;-1,07403062283993E-07;100 nA
0,400390625;183,104840537705;-3,204345703125E-09;0,400146484375;5;352;1,0401077568531E-07;-1,07403062283993E-07;100 nA
0,350341796875;183,605328536441;-3,5888671875E-09;0,35009765625;5;353;1,0401077568531E-07;-1,07403062283993E-07;100 nA
0,30029296875;184,105816535178;-4,0191650390625E-09;0,300079345703125;5;354;1,0401077568531E-07;-1,07403062283993E-07;100 nA
0,250244140625;184,606304533914;-4,5501708984375E-09;0,25006103515625;5;355;1,0401077568531E-07;-1,07403062283993E-07;100 nA
0,2001953125;185,10679253265;-4,833984375E-09;0,20013427734375;5;356;1,0401077568531E-07;-1,07403062283993E-07;100 nA
0,150146484375;185,607280531387;-5,2032470703125E-09;0,150054931640625;5;357;1,0401077568531E-07;-1,07403062283993E-07;100 nA
0,10009765625;186,107768530123;-5,645751953125E-09;0,10009765625;5;358;1,0401077568531E-07;-1,07403062283993E-07;100 nA
0,050048828125;186,608256528859;-6,2774658203125E-09;0,05010986328125;5;359;1,0401077568531E-07;-1,07403062283993E-07;100 nA
0;187,108744527596;-7,5469970703125E-09;0,000140380859374997;5;360;1,0401077568531E-07;-1,07403062283993E-07;100 nA
-0,050048828125;187,609232526332;-9,8236083984375E-09;-0,049713134765625;5;361;1,0401077568531E-07;-1,07403062283993E-07;100 nA
-0,10009765625;188,109720525069;-1,1956787109375E-08;-0,099700927734375;5;362;1,0401077568531E-07;-1,07403062283993E-07;100 nA
-0,150146484375;188,610208523805;-1,33697509765625E-08;-0,1495361328125;5;363;1,0401077568531E-07;-1,07403062283993E-07;100 nA
-0,2001953125;189,110696522541;-1,40106201171875E-08;-0,199493408203125;5;364;1,0401077568531E-07;-1,07403062283993E-07;100 nA
-0,250244140625;189,611184521278;-1,30218505859375E-08;-0,249359130859375;5;365;1,0401077568531E-07;-1,07403062283993E-07;100 nA
-0,30029296875;190,111672520014;-8,8653564453125E-09;-0,299224853515625;5;366;1,0401077568531E-07;-1,07403062283993E-07;100 nA
-0,350341796875;190,612160518751;-7,257080078125E-09;-0,34918212890625;5;367;1,0401077568531E-07;-1,07403062283993E-07;100 nA
-0,400390625;191,112648517487;-7,04345703125E-09;-0,39910888671875;5;368;1,0401077568531E-07;-1,07403062283993E-07;100 nA
-0,450439453125;191,613136516223;-6,7901611328125E-09;-0,448974609375;5;369;1,0401077568531E-07;-1,07403062283993E-07;100 nA
-0,50048828125;192,11362451496;-6,3934326171875E-09;-0,4989013671875;5;370;1,0401077568531E-07;-1,07403062283993E-07;100 nA
-0,550537109375;192,614112513696;-5,9844970703125E-09;-0,548797607421875;5;371;1,0401077568531E-07;-1,07403062283993E-07;100 nA
-0,6005859375;193,114600512433;-5,7403564453125E-09;-0,598663330078125;5;372;1,0401077568531E-07;-1,07403062283993E-07;100 nA
-0,650634765625;193,615088511169;-5,5267333984375E-09;-0,6485595703125;5;373;1,0401077568531E-07;-1,07403062283993E-07;100 nA
-0,70068359375;194,115576509905;-5,3924560546875E-09;-0,698577880859375;5;374;1,0401077568531E-07;-1,07403062283993E-07;100 nA
-0,750732421875;194,616064508642;-5,303955078125E-09;-0,748565673828125;5;375;1,0401077568531E-07;-1,07403062283993E-07;100 nA
-0,80078125;195,116552507378;-5,3131103515625E-09;-0,7989501953125;5;376;1,0401077568531E-07;-1,07403062283993E-07;100 nA
-0,850830078125;195,617040506114;-5,37109375E-09;-0,84869384765625;5;377;1,0401077568531E-07;-1,07403062283993E-07;100 nA
-0,90087890625;196,117528504851;-5,52978515625E-09;-0,8990478515625;5;378;1,0401077568531E-07;-1,07403062283993E-07;100 nA
-0,950927734375;196,618016503587;-5,743408203125E-09;-0,94879150390625;5;379;1,0401077568531E-07;-1,07403062283993E-07;100 nA
-1,0009765625;197,118504502324;-6,0394287109375E-09;-0,99853515625;5;380;1,0401077568531E-07;-1,07403062283993E-07;100 nA
-0,950927734375;197,61899250106;-3,375244140625E-09;-0,9490966796875;5;381;1,0401077568531E-07;-1,07403062283993E-07;100 nA
-0,90087890625;198,119480499796;-2,11181640625E-09;-0,89874267578125;5;382;1,0401077568531E-07;-1,07403062283993E-07;100 nA
-0,850830078125;198,619968498533;-1,2603759765625E-09;-0,849609375;5;383;1,0401077568531E-07;-1,07403062283993E-07;100 nA
-0,80078125;199,120456497269;-6,65283203125E-10;-0,79864501953125;5;384;1,0401077568531E-07;-1,07403062283993E-07;100 nA
-0,750732421875;199,620944496006;-1,28173828125E-10;-0,748626708984375;5;385;1,0401077568531E-07;-1,07403062283993E-07;100 nA
-0,70068359375;200,121432494742;3,35693359375E-10;-0,698638916015625;5;386;1,0401077568531E-07;-1,07403062283993E-07;100 nA
-0,650634765625;200,621920493478;8,148193359375E-10;-0,648681640625;5;387;1,0401077568531E-07;-1,07403062283993E-07;100 nA
-0,6005859375;201,122408492215;1,2664794921875E-09;-0,598785400390625;5;388;1,0401077568531E-07;-1,07403062283993E-07;100 nA
-0,550537109375;201,622896490951;1,7578125E-09;-0,548828125;5;389;1,0401077568531E-07;-1,07403062283993E-07;100 nA
-0,50048828125;202,123384489688;2,23388671875E-09;-0,498870849609375;5;390;1,0401077568531E-07;-1,07403062283993E-07;100 nA
-0,450439453125;202,623872488424;2,6885986328125E-09;-0,449066162109375;5;391;1,0401077568531E-07;-1,07403062283993E-07;100 nA
-0,400390625;203,12436048716;3,240966796875E-09;-0,399139404296875;5;392;1,0401077568531E-07;-1,07403062283993E-07;100 nA
-0,350341796875;203,624848485897;3,9337158203125E-09;-0,3492431640625;5;393;1,0401077568531E-07;-1,07403062283993E-07;100 nA
-0,30029296875;204,125336484633;4,7821044921875E-09;-0,299285888671875;5;394;1,0401077568531E-07;-1,07403062283993E-07;100 nA
-0,250244140625;204,625824483369;5,1025390625E-09;-0,249359130859375;5;395;1,0401077568531E-07;-1,07403062283993E-07;100 nA
-0,2001953125;205,126312482106;5,230712890625E-09;-0,19952392578125;5;396;1,0401077568531E-07;-1,07403062283993E-07;100 nA
-0,150146484375;205,626800480842;5,38330078125E-09;-0,149658203125;5;397;1,0401077568531E-07;-1,07403062283993E-07;100 nA
-0,10009765625;206,127288479579;5,57861328125E-09;-0,0997314453125;5;398;1,0401077568531E-07;-1,07403062283993E-07;100 nA
-0,050048828125;206,627776478315;6,0516357421875E-09;-0,04986572265625;5;399;1,0401077568531E-07;-1,07403062283993E-07;100 nA
0;207,128264477051;6,976318359375E-09;8,23974609374944E-05;5;400;1,0401077568531E-07;-1,07403062283993E-07;100 nA
0,050048828125;207,628752475788;7,4920654296875E-09;0,050048828125;6;401;1,02704875171185E-07;-1,05142556130886E-07;100 nA
0,10009765625;208,129240474524;6,40869140625E-09;0,100067138671875;6;402;1,02704875171185E-07;-1,05142556130886E-07;100 nA
0,150146484375;208,629728473261;5,8197021484375E-09;0,15008544921875;6;403;1,02704875171185E-07;-1,05142556130886E-07;100 nA
0,2001953125;209,130216471997;5,975341796875E-09;0,2000732421875;6;404;1,02704875171185E-07;-1,05142556130886E-07;100 nA
0,250244140625;209,630704470733;6,2255859375E-09;0,250091552734375;6;405;1,02704875171185E-07;-1,05142556130886E-07;100 nA
0,30029296875;210,13119246947;6,500244140625E-09;0,300079345703125;6;406;1,02704875171185E-07;-1,05142556130886E-07;100 nA
0,350341796875;210,631680468206;6,6925048828125E-09;0,35015869140625;6;407;1,02704875171185E-07;-1,05142556130886E-07;100 nA
0,400390625;211,132168466943;6,8756103515625E-09;0,40008544921875;6;408;1,02704875171185E-07;-1,05142556130886E-07;100 nA
0,450439453125;211,632656465679;7,11669921875E-09;0,45013427734375;6;409;1,02704875171185E-07;-1,05142556130886E-07;100 nA
0,50048828125;212,133144464415;7,43408203125E-09;0,5001220703125;6;410;1,02704875171185E-07;-1,05142556130886E-07;100 nA
0,550537109375;212,633632463152;7,7178955078125E-09;0,550140380859375;6;411;1,02704875171185E-07;-1,05142556130886E-07;100 nA
0,6005859375;213,134120461888;7,8826904296875E-09;0,600128173828125;6;412;1,02704875171185E-07;-1,05142556130886E-07;100 nA
0,650634765625;213,634608460624;7,9254150390625E-09;0,65008544921875;6;413;1,02704875171185E-07;-1,05142556130886E-07;100 nA
0,70068359375;214,135096459361;7,8125E-09;0,699981689453125;6;414;1,02704875171185E-07;-1,05142556130886E-07;100 nA
0,750732421875;214,635584458097;7,4951171875E-09;0,749908447265625;6;415;1,02704875171185E-07;-1,05142556130886E-07;100 nA
0,80078125;215,136072456834;7,147216796875E-09;0,79986572265625;6;416;1,02704875171185E-07;-1,05142556130886E-07;100 nA
0,850830078125;215,63656045557;6,8817138671875E-09;0,84991455078125;6;417;1,02704875171185E-07;-1,05142556130886E-07;100 nA
0,90087890625;216,137048454306;6,7138671875E-09;0,89996337890625;6;418;1,02704875171185E-07;-1,05142556130886E-07;100 nA
0,950927734375;216,637536453043;6,6314697265625E-09;0,94970703125;6;419;1,02704875171185E-07;-1,05142556130886E-07;100 nA
1,0009765625;217,138024451779;6,6375732421875E-09;0,99945068359375;6;420;1,02704875171185E-07;-1,05142556130886E-07;100 nA
0,950927734375;217,638512450516;4,00390625E-09;0,9503173828125;6;421;1,02704875171185E-07;-1,05142556130886E-07;100 nA
0,90087890625;218,139000449252;2,6519775390625E-09;0,89996337890625;6;422;1,02704875171185E-07;-1,05142556130886E-07;100 nA
0,850830078125;218,639488447988;1,806640625E-09;0,84991455078125;6;423;1,02704875171185E-07;-1,05142556130886E-07;100 nA
0,80078125;219,139976446725;1,1962890625E-09;0,80047607421875;6;424;1,02704875171185E-07;-1,05142556130886E-07;100 nA
0,750732421875;219,640464445461;6,683349609375E-10;0,7498779296875;6;425;1,02704875171185E-07;-1,05142556130886E-07;100 nA
0,70068359375;220,140952444198;1,800537109375E-10;0,699951171875;6;426;1,02704875171185E-07;-1,05142556130886E-07;100 nA
0,650634765625;220,641440442934;-3,0517578125E-10;0,650054931640625;6;427;1,02704875171185E-07;-1,05142556130886E-07;100 nA
0,6005859375;221,14192844167;-8,7890625E-10;0,600128173828125;6;428;1,02704875171185E-07;-1,05142556130886E-07;100 nA
0,550537109375;221,642416440407;-1,5228271484375E-09;0,55010986328125;6;429;1,02704875171185E-07;-1,05142556130886E-07;100 nA
0,50048828125;222,142904439143;-2,105712890625E-09;0,5001220703125;6;430;1,02704875171185E-07;-1,05142556130886E-07;100 nA
0,450439453125;222,643392437879;-2,67333984375E-09;0,450164794921875;6;431;1,02704875171185E-07;-1,05142556130886E-07;100 nA
0,400390625;223,143880436616;-3,16162109375E-09;0,400177001953125;6;432;1,02704875171185E-07;-1,05142556130886E-07;100 nA
0,350341796875;223,644368435352;-3,558349609375E-09;0,350189208984375;6;433;1,02704875171185E-07;-1,05142556130886E-07;100 nA
0,30029296875;224,144856434089;-3,9794921875E-09;0,30010986328125;6;434;1,02704875171185E-07;-1,05142556130886E-07;100 nA
0,250244140625;224,645344432825;-4,473876953125E-09;0,25006103515625;6;435;1,02704875171185E-07;-1,05142556130886E-07;100 nA
0,2001953125;225,145832431561;-4,8004150390625E-09;0,200103759765625;6;436;1,02704875171185E-07;-1,05142556130886E-07;100 nA
0,150146484375;225,646320430298;-5,133056640625E-09;0,15008544921875;6;437;1,02704875171185E-07;-1,05142556130886E-07;100 nA
0,10009765625;226,146808429034;-5,572509765625E-09;0,10009765625;6;438;1,02704875171185E-07;-1,05142556130886E-07;100 nA
0,050048828125;226,647296427771;-6,2164306640625E-09;0,05010986328125;6;439;1,02704875171185E-07;-1,05142556130886E-07;100 nA
0;227,147784426507;-7,427978515625E-09;0,000158691406249994;6;440;1,02704875171185E-07;-1,05142556130886E-07;100 nA
-0,050048828125;227,648272425243;-9,68017578125E-09;-0,049774169921875;6;441;1,02704875171185E-07;-1,05142556130886E-07;100 nA
-0,10009765625;228,14876042398;-1,1798095703125E-08;-0,099639892578125;6;442;1,02704875171185E-07;-1,05142556130886E-07;100 nA
-0,150146484375;228,649248422716;-1,3165283203125E-08;-0,1495361328125;6;443;1,02704875171185E-07;-1,05142556130886E-07;100 nA
-0,2001953125;229,149736421453;-1,37542724609375E-08;-0,199432373046875;6;444;1,02704875171185E-07;-1,05142556130886E-07;100 nA
-0,250244140625;229,650224420189;-1,241455078125E-08;-0,249298095703125;6;445;1,02704875171185E-07;-1,05142556130886E-07;100 nA
-0,30029296875;230,150712418925;-8,16650390625E-09;-0,29925537109375;6;446;1,02704875171185E-07;-1,05142556130886E-07;100 nA
-0,350341796875;230,651200417662;-7,0831298828125E-09;-0,349212646484375;6;447;1,02704875171185E-07;-1,05142556130886E-07;100 nA
-0,400390625;231,151688416398;-6,9091796875E-09;-0,399078369140625;6;448;1,02704875171185E-07;-1,05142556130886E-07;100 nA
-0,450439453125;231,652176415134;-6,640625E-09;-0,448944091796875;6;449;1,02704875171185E-07;-1,05142556130886E-07;100 nA
-0,50048828125;232,152664413871;-6,2652587890625E-09;-0,498870849609375;6;450;1,02704875171185E-07;-1,05142556130886E-07;100 nA
-0,550537109375;232,653152412607;-5,8837890625E-09;-0,548797607421875;6;451;1,02704875171185E-07;-1,05142556130886E-07;100 nA
-0,6005859375;233,153640411344;-5,609130859375E-09;-0,5986328125;6;452;1,02704875171185E-07;-1,05142556130886E-07;100 nA
-0,650634765625;233,65412841008;-5,4229736328125E-09;-0,64862060546875;6;453;1,02704875171185E-07;-1,05142556130886E-07;100 nA
-0,70068359375;234,154616408816;-5,267333984375E-09;-0,698577880859375;6;454;1,02704875171185E-07;-1,05142556130886E-07;100 nA
-0,750732421875;234,655104407553;-5,23681640625E-09;-0,74859619140625;6;455;1,02704875171185E-07;-1,05142556130886E-07;100 nA
-0,80078125;235,155592406289;-5,2642822265625E-09;-0,79864501953125;6;456;1,02704875171185E-07;-1,05142556130886E-07;100 nA
-0,850830078125;235,656080405026;-5,3497314453125E-09;-0,848388671875;6;457;1,02704875171185E-07;-1,05142556130886E-07;100 nA
-0,90087890625;236,156568403762;-5,4534912109375E-09;-0,8990478515625;6;458;1,02704875171185E-07;-1,05142556130886E-07;100 nA
-0,950927734375;236,657056402498;-5,6732177734375E-09;-0,94940185546875;6;459;1,02704875171185E-07;-1,05142556130886E-07;100 nA
-1,0009765625;237,157544401235;-5,9356689453125E-09;-0,9991455078125;6;460;1,02704875171185E-07;-1,05142556130886E-07;100 nA
-0,950927734375;237,658032399971;-3,35693359375E-09;-0,9490966796875;6;461;1,02704875171185E-07;-1,05142556130886E-07;100 nA
-0,90087890625;238,158520398708;-2,0355224609375E-09;-0,89874267578125;6;462;1,02704875171185E-07;-1,05142556130886E-07;100 nA
-0,850830078125;238,659008397444;-1,1932373046875E-09;-0,84869384765625;6;463;1,02704875171185E-07;-1,05142556130886E-07;100 nA
-0,80078125;239,15949639618;-6,011962890625E-10;-0,79864501953125;6;464;1,02704875171185E-07;-1,05142556130886E-07;100 nA
-0,750732421875;239,659984394917;-1,0986328125E-10;-0,7486572265625;6;465;1,02704875171185E-07;-1,05142556130886E-07;100 nA
-0,70068359375;240,160472393653;3,47900390625E-10;-0,698638916015625;6;466;1,02704875171185E-07;-1,05142556130886E-07;100 nA
-0,650634765625;240,660960392389;8,209228515625E-10;-0,648651123046875;6;467;1,02704875171185E-07;-1,05142556130886E-07;100 nA
-0,6005859375;241,161448391126;1,2847900390625E-09;-0,598724365234375;6;468;1,02704875171185E-07;-1,05142556130886E-07;100 nA
-0,550537109375;241,661936389862;1,7608642578125E-09;-0,548797607421875;6;469;1,02704875171185E-07;-1,05142556130886E-07;100 nA
-0,50048828125;242,162424388599;2,23388671875E-09;-0,4989013671875;6;470;1,02704875171185E-07;-1,05142556130886E-07;100 nA
-0,450439453125;242,662912387335;2,69775390625E-09;-0,449005126953125;6;471;1,02704875171185E-07;-1,05142556130886E-07;100 nA
-0,400390625;243,163400386071;3,1982421875E-09;-0,399169921875;6;472;1,02704875171185E-07;-1,05142556130886E-07;100 nA
-0,350341796875;243,663888384808;3,912353515625E-09;-0,349212646484375;6;473;1,02704875171185E-07;-1,05142556130886E-07;100 nA
-0,30029296875;244,164376383544;4,7698974609375E-09;-0,299346923828125;6;474;1,02704875171185E-07;-1,05142556130886E-07;100 nA
-0,250244140625;244,664864382281;5,1361083984375E-09;-0,2493896484375;6;475;1,02704875171185E-07;-1,05142556130886E-07;100 nA
-0,2001953125;245,165352381017;5,3009033203125E-09;-0,19952392578125;6;476;1,02704875171185E-07;-1,05142556130886E-07;100 nA
-0,150146484375;245,665840379753;5,438232421875E-09;-0,149627685546875;6;477;1,02704875171185E-07;-1,05142556130886E-07;100 nA
-0,10009765625;246,16632837849;5,5694580078125E-09;-0,099761962890625;6;478;1,02704875171185E-07;-1,05142556130886E-07;100 nA
-0,050048828125;246,666816377226;6,0272216796875E-09;-0,04986572265625;6;479;1,02704875171185E-07;-1,05142556130886E-07;100 nA
0;247,167304375963;6,817626953125E-09;0,000143432617187494;6;480;1,02704875171185E-07;-1,05142556130886E-07;100 nA
0,050048828125;247,667792374699;7,1533203125E-09;0,050140380859375;7;481;1,00377164781094E-07;-1,03489942848682E-07;100 nA
0,10009765625;248,168280373435;6,0821533203125E-09;0,100067138671875;7;482;1,00377164781094E-07;-1,03489942848682E-07;100 nA
0,150146484375;248,668768372172;5,6671142578125E-09;0,1500244140625;7;483;1,00377164781094E-07;-1,03489942848682E-07;100 nA
0,2001953125;249,169256370908;5,8502197265625E-09;0,200042724609375;7;484;1,00377164781094E-07;-1,03489942848682E-07;100 nA
0,250244140625;249,669744369644;6,0546875E-09;0,250091552734375;7;485;1,00377164781094E-07;-1,03489942848682E-07;100 nA
0,30029296875;250,170232368381;6,2957763671875E-09;0,300018310546875;7;486;1,00377164781094E-07;-1,03489942848682E-07;100 nA
0,350341796875;250,670720367117;6,5185546875E-09;0,350128173828125;7;487;1,00377164781094E-07;-1,03489942848682E-07;100 nA
0,400390625;251,171208365854;6,7047119140625E-09;0,400115966796875;7;488;1,00377164781094E-07;-1,03489942848682E-07;100 nA
0,450439453125;251,67169636459;6,9366455078125E-09;0,450042724609375;7;489;1,00377164781094E-07;-1,03489942848682E-07;100 nA
0,50048828125;252,172184363326;7,257080078125E-09;0,500091552734375;7;490;1,00377164781094E-07;-1,03489942848682E-07;100 nA
0,550537109375;252,672672362063;7,4859619140625E-09;0,550079345703125;7;491;1,00377164781094E-07;-1,03489942848682E-07;100 nA
0,6005859375;253,173160360799;7,647705078125E-09;0,60003662109375;7;492;1,00377164781094E-07;-1,03489942848682E-07;100 nA
0,650634765625;253,673648359536;7,67822265625E-09;0,649993896484375;7;493;1,00377164781094E-07;-1,03489942848682E-07;100 nA
0,70068359375;254,174136358272;7,5103759765625E-09;0,699920654296875;7;494;1,00377164781094E-07;-1,03489942848682E-07;100 nA
0,750732421875;254,674624357008;7,2174072265625E-09;0,749847412109375;7;495;1,00377164781094E-07;-1,03489942848682E-07;100 nA
0,80078125;255,175112355745;6,927490234375E-09;0,79986572265625;7;496;1,00377164781094E-07;-1,03489942848682E-07;100 nA
0,850830078125;255,675600354481;6,689453125E-09;0,84991455078125;7;497;1,00377164781094E-07;-1,03489942848682E-07;100 nA
0,90087890625;256,176088353218;6,5460205078125E-09;0,9002685546875;7;498;1,00377164781094E-07;-1,03489942848682E-07;100 nA
0,950927734375;256,676576351954;6,475830078125E-09;0,94940185546875;7;499;1,00377164781094E-07;-1,03489942848682E-07;100 nA
1,0009765625;257,17706435069;6,5399169921875E-09;0,999755859375;7;500;1,00377164781094E-07;-1,03489942848682E-07;100 nA
0,950927734375;257,677552349427;3,936767578125E-09;0,94940185546875;7;501;1,00377164781094E-07;-1,03489942848682E-07;100 nA
0,90087890625;258,178040348163;2,63671875E-09;0,9002685546875;7;502;1,00377164781094E-07;-1,03489942848682E-07;100 nA
0,850830078125;258,6785283469;1,812744140625E-09;0,849609375;7;503;1,00377164781094E-07;-1,03489942848682E-07;100 nA
0,80078125;259,179016345636;1,2054443359375E-09;0,79986572265625;7;504;1,00377164781094E-07;-1,03489942848682E-07;100 nA
0,750732421875;259,679504344372;6,988525390625E-10;0,74993896484375;7;505;1,00377164781094E-07;-1,03489942848682E-07;100 nA
0,70068359375;260,179992343109;2,288818359375E-10;0,70001220703125;7;506;1,00377164781094E-07;-1,03489942848682E-07;100 nA
0,650634765625;260,680480341845;-2,593994140625E-10;0,65008544921875;7;507;1,00377164781094E-07;-1,03489942848682E-07;100 nA
0,6005859375;261,180968340581;-7,904052734375E-10;0,600128173828125;7;508;1,00377164781094E-07;-1,03489942848682E-07;100 nA
0,550537109375;261,681456339318;-1,33056640625E-09;0,550140380859375;7;509;1,00377164781094E-07;-1,03489942848682E-07;100 nA
0,50048828125;262,181944338054;-1,9805908203125E-09;0,500213623046875;7;510;1,00377164781094E-07;-1,03489942848682E-07;100 nA
0,450439453125;262,682432336791;-2,5177001953125E-09;0,450164794921875;7;511;1,00377164781094E-07;-1,03489942848682E-07;100 nA
0,400390625;263,182920335527;-2,972412109375E-09;0,400177001953125;7;512;1,00377164781094E-07;-1,03489942848682E-07;100 nA
0,350341796875;263,683408334263;-3,3905029296875E-09;0,350189208984375;7;513;1,00377164781094E-07;-1,03489942848682E-07;100 nA
0,30029296875;264,183896333;-3,814697265625E-09;0,3001708984375;7;514;1,00377164781094E-07;-1,03489942848682E-07;100 nA
0,250244140625;264,684384331736;-4,3212890625E-09;0,250213623046875;7;515;1,00377164781094E-07;-1,03489942848682E-07;100 nA
0,2001953125;265,184872330473;-4,644775390625E-09;0,200103759765625;7;516;1,00377164781094E-07;-1,03489942848682E-07;100 nA
0,150146484375;265,685360329209;-5,047607421875E-09;0,150177001953125;7;517;1,00377164781094E-07;-1,03489942848682E-07;100 nA
0,10009765625;266,185848327945;-5,4656982421875E-09;0,100067138671875;7;518;1,00377164781094E-07;-1,03489942848682E-07;100 nA
0,050048828125;266,686336326682;-6,0882568359375E-09;0,05010986328125;7;519;1,00377164781094E-07;-1,03489942848682E-07;100 nA
0;267,186824325418;-7,2540283203125E-09;0,000146484375000006;7;520;1,00377164781094E-07;-1,03489942848682E-07;100 nA
-0,050048828125;267,687312324155;-9,4482421875E-09;-0,049774169921875;7;521;1,00377164781094E-07;-1,03489942848682E-07;100 nA
-0,10009765625;268,187800322891;-1,16668701171875E-08;-0,099639892578125;7;522;1,00377164781094E-07;-1,03489942848682E-07;100 nA
-0,150146484375;268,688288321627;-1,30584716796875E-08;-0,149566650390625;7;523;1,00377164781094E-07;-1,03489942848682E-07;100 nA
-0,2001953125;269,188776320364;-1,3525390625E-08;-0,199462890625;7;524;1,00377164781094E-07;-1,03489942848682E-07;100 nA
-0,250244140625;269,6892643191;-1,1773681640625E-08;-0,249359130859375;7;525;1,00377164781094E-07;-1,03489942848682E-07;100 nA
-0,30029296875;270,189752317836;-7,7484130859375E-09;-0,29925537109375;7;526;1,00377164781094E-07;-1,03489942848682E-07;100 nA
-0,350341796875;270,690240316573;-6,9976806640625E-09;-0,349212646484375;7;527;1,00377164781094E-07;-1,03489942848682E-07;100 nA
-0,400390625;271,190728315309;-6,866455078125E-09;-0,39910888671875;7;528;1,00377164781094E-07;-1,03489942848682E-07;100 nA
-0,450439453125;271,691216314046;-6,54296875E-09;-0,448944091796875;7;529;1,00377164781094E-07;-1,03489942848682E-07;100 nA
-0,50048828125;272,191704312782;-6,1248779296875E-09;-0,498870849609375;7;530;1,00377164781094E-07;-1,03489942848682E-07;100 nA
-0,550537109375;272,692192311518;-5,8441162109375E-09;-0,548797607421875;7;531;1,00377164781094E-07;-1,03489942848682E-07;100 nA
-0,6005859375;273,192680310255;-5,609130859375E-09;-0,598724365234375;7;532;1,00377164781094E-07;-1,03489942848682E-07;100 nA
-0,650634765625;273,693168308991;-5,462646484375E-09;-0,64862060546875;7;533;1,00377164781094E-07;-1,03489942848682E-07;100 nA
-0,70068359375;274,193656307728;-5,377197265625E-09;-0,69866943359375;7;534;1,00377164781094E-07;-1,03489942848682E-07;100 nA
-0,750732421875;274,694144306464;-5,3375244140625E-09;-0,7486572265625;7;535;1,00377164781094E-07;-1,03489942848682E-07;100 nA
-0,80078125;275,1946323052;-5,322265625E-09;-0,79864501953125;7;536;1,00377164781094E-07;-1,03489942848682E-07;100 nA
-0,850830078125;275,695120303937;-5,377197265625E-09;-0,84930419921875;7;537;1,00377164781094E-07;-1,03489942848682E-07;100 nA
-0,90087890625;276,195608302673;-5,5023193359375E-09;-0,8984375;7;538;1,00377164781094E-07;-1,03489942848682E-07;100 nA
-0,950927734375;276,69609630141;-5,6854248046875E-09;-0,9490966796875;7;539;1,00377164781094E-07;-1,03489942848682E-07;100 nA
-1,0009765625;277,196584300146;-5,975341796875E-09;-0,99853515625;7;540;1,00377164781094E-07;-1,03489942848682E-07;100 nA
-0,950927734375;277,697072298882;-3,4027099609375E-09;-0,9490966796875;7;541;1,00377164781094E-07;-1,03489942848682E-07;100 nA
-0,90087890625;278,197560297619;-2,0782470703125E-09;-0,8990478515625;7;542;1,00377164781094E-07;-1,03489942848682E-07;100 nA
-0,850830078125;278,698048296355;-1,2939453125E-09;-0,8489990234375;7;543;1,00377164781094E-07;-1,03489942848682E-07;100 nA
-0,80078125;279,198536295091;-6,7138671875E-10;-0,79925537109375;7;544;1,00377164781094E-07;-1,03489942848682E-07;100 nA
-0,750732421875;279,699024293828;-2,0751953125E-10;-0,748687744140625;7;545;1,00377164781094E-07;-1,03489942848682E-07;100 nA
-0,70068359375;280,199512292564;2,685546875E-10;-0,6986083984375;7;546;1,00377164781094E-07;-1,03489942848682E-07;100 nA
-0,650634765625;280,700000291301;7,32421875E-10;-0,648651123046875;7;547;1,00377164781094E-07;-1,03489942848682E-07;100 nA
-0,6005859375;281,200488290037;1,177978515625E-09;-0,59869384765625;7;548;1,00377164781094E-07;-1,03489942848682E-07;100 nA
-0,550537109375;281,700976288773;1,690673828125E-09;-0,548797607421875;7;549;1,00377164781094E-07;-1,03489942848682E-07;100 nA
-0,50048828125;282,20146428751;2,1453857421875E-09;-0,498931884765625;7;550;1,00377164781094E-07;-1,03489942848682E-07;100 nA
-0,450439453125;282,701952286246;2,6275634765625E-09;-0,449005126953125;7;551;1,00377164781094E-07;-1,03489942848682E-07;100 nA
-0,400390625;283,202440284983;3,1494140625E-09;-0,39910888671875;7;552;1,00377164781094E-07;-1,03489942848682E-07;100 nA
-0,350341796875;283,702928283719;3,84521484375E-09;-0,349273681640625;7;553;1,00377164781094E-07;-1,03489942848682E-07;100 nA
-0,30029296875;284,203416282455;4,6844482421875E-09;-0,29931640625;7;554;1,00377164781094E-07;-1,03489942848682E-07;100 nA
-0,250244140625;284,703904281192;5,145263671875E-09;-0,249420166015625;7;555;1,00377164781094E-07;-1,03489942848682E-07;100 nA
-0,2001953125;285,204392279928;5,3192138671875E-09;-0,199493408203125;7;556;1,00377164781094E-07;-1,03489942848682E-07;100 nA
-0,150146484375;285,704880278665;5,5084228515625E-09;-0,14959716796875;7;557;1,00377164781094E-07;-1,03489942848682E-07;100 nA
-0,10009765625;286,205368277401;5,70068359375E-09;-0,099700927734375;7;558;1,00377164781094E-07;-1,03489942848682E-07;100 nA
-0,050048828125;286,705856276137;6,04248046875E-09;-0,049835205078125;7;559;1,00377164781094E-07;-1,03489942848682E-07;100 nA
0;287,206344274874;6,7626953125E-09;9,46044921874972E-05;7;560;1,00377164781094E-07;-1,03489942848682E-07;100 nA
0,050048828125;287,70683227361;6,93359375E-09;0,050048828125;8;561;1,00424513220787E-07;-1,02219171822071E-07;100 nA
0,10009765625;288,207320272346;5,908203125E-09;0,100128173828125;8;562;1,00424513220787E-07;-1,02219171822071E-07;100 nA
0,150146484375;288,707808271083;5,6182861328125E-09;0,15008544921875;8;563;1,00424513220787E-07;-1,02219171822071E-07;100 nA
0,2001953125;289,208296269819;5,8258056640625E-09;0,2000732421875;8;564;1,00424513220787E-07;-1,02219171822071E-07;100 nA
0,250244140625;289,708784268556;6,1065673828125E-09;0,250152587890625;8;565;1,00424513220787E-07;-1,02219171822071E-07;100 nA
0,30029296875;290,209272267292;6,34765625E-09;0,300079345703125;8;566;1,00424513220787E-07;-1,02219171822071E-07;100 nA
0,350341796875;290,709760266028;6,5521240234375E-09;0,35015869140625;8;567;1,00424513220787E-07;-1,02219171822071E-07;100 nA
0,400390625;291,210248264765;6,787109375E-09;0,400146484375;8;568;1,00424513220787E-07;-1,02219171822071E-07;100 nA
0,450439453125;291,710736263501;7,03125E-09;0,45013427734375;8;569;1,00424513220787E-07;-1,02219171822071E-07;100 nA
0,50048828125;292,211224262238;7,28759765625E-09;0,500091552734375;8;570;1,00424513220787E-07;-1,02219171822071E-07;100 nA
0,550537109375;292,711712260974;7,5531005859375E-09;0,550140380859375;8;571;1,00424513220787E-07;-1,02219171822071E-07;100 nA
0,6005859375;293,21220025971;7,6934814453125E-09;0,60009765625;8;572;1,00424513220787E-07;-1,02219171822071E-07;100 nA
0,650634765625;293,712688258447;7,684326171875E-09;0,650054931640625;8;573;1,00424513220787E-07;-1,02219171822071E-07;100 nA
0,70068359375;294,213176257183;7,50732421875E-09;0,699981689453125;8;574;1,00424513220787E-07;-1,02219171822071E-07;100 nA
0,750732421875;294,71366425592;7,2113037109375E-09;0,7498779296875;8;575;1,00424513220787E-07;-1,02219171822071E-07;100 nA
0,80078125;295,214152254656;6,878662109375E-09;0,79986572265625;8;576;1,00424513220787E-07;-1,02219171822071E-07;100 nA
0,850830078125;295,714640253392;6,6436767578125E-09;0,84991455078125;8;577;1,00424513220787E-07;-1,02219171822071E-07;100 nA
0,90087890625;296,215128252129;6,5185546875E-09;0,9002685546875;8;578;1,00424513220787E-07;-1,02219171822071E-07;100 nA
0,950927734375;296,715616250865;6,4483642578125E-09;0,94970703125;8;579;1,00424513220787E-07;-1,02219171822071E-07;100 nA
1,0009765625;297,216104249601;6,45751953125E-09;0,999755859375;8;580;1,00424513220787E-07;-1,02219171822071E-07;100 nA
0,950927734375;297,716592248338;3,8604736328125E-09;0,94970703125;8;581;1,00424513220787E-07;-1,02219171822071E-07;100 nA
0,90087890625;298,217080247074;2,5604248046875E-09;0,89935302734375;8;582;1,00424513220787E-07;-1,02219171822071E-07;100 nA
0,850830078125;298,717568245811;1,739501953125E-09;0,84991455078125;8;583;1,00424513220787E-07;-1,02219171822071E-07;100 nA
0,80078125;299,218056244547;1,13525390625E-09;0,79986572265625;8;584;1,00424513220787E-07;-1,02219171822071E-07;100 nA
0,750732421875;299,718544243283;6,591796875E-10;0,749969482421875;8;585;1,00424513220787E-07;-1,02219171822071E-07;100 nA
0,70068359375;300,21903224202;1,556396484375E-10;0,699981689453125;8;586;1,00424513220787E-07;-1,02219171822071E-07;100 nA
0,650634765625;300,719520240756;-2,9296875E-10;0,650054931640625;8;587;1,00424513220787E-07;-1,02219171822071E-07;100 nA
0,6005859375;301,220008239493;-8,575439453125E-10;0,600128173828125;8;588;1,00424513220787E-07;-1,02219171822071E-07;100 nA
0,550537109375;301,720496238229;-1,483154296875E-09;0,5501708984375;8;589;1,00424513220787E-07;-1,02219171822071E-07;100 nA
0,50048828125;302,220984236965;-2,1087646484375E-09;0,5001220703125;8;590;1,00424513220787E-07;-1,02219171822071E-07;100 nA
0,450439453125;302,721472235702;-2,6702880859375E-09;0,45013427734375;8;591;1,00424513220787E-07;-1,02219171822071E-07;100 nA
0,400390625;303,221960234438;-3,1341552734375E-09;0,400115966796875;8;592;1,00424513220787E-07;-1,02219171822071E-07;100 nA
0,350341796875;303,722448233175;-3,5247802734375E-09;0,350067138671875;8;593;1,00424513220787E-07;-1,02219171822071E-07;100 nA
0,30029296875;304,222936231911;-3,924560546875E-09;0,30010986328125;8;594;1,00424513220787E-07;-1,02219171822071E-07;100 nA
0,250244140625;304,723424230647;-4,4586181640625E-09;0,250091552734375;8;595;1,00424513220787E-07;-1,02219171822071E-07;100 nA
0,2001953125;305,223912229384;-4,7393798828125E-09;0,200103759765625;8;596;1,00424513220787E-07;-1,02219171822071E-07;100 nA
0,150146484375;305,72440022812;-5,1055908203125E-09;0,15008544921875;8;597;1,00424513220787E-07;-1,02219171822071E-07;100 nA
0,10009765625;306,224888226856;-5,584716796875E-09;0,100128173828125;8;598;1,00424513220787E-07;-1,02219171822071E-07;100 nA
0,050048828125;306,725376225593;-6,146240234375E-09;0,05010986328125;8;599;1,00424513220787E-07;-1,02219171822071E-07;100 nA
0;307,225864224329;-7,2723388671875E-09;0,000128173828124994;8;600;1,00424513220787E-07;-1,02219171822071E-07;100 nA
-0,050048828125;307,726352223066;-9,4635009765625E-09;-0,0497039794921875;8;601;1,00424513220787E-07;-1,02219171822071E-07;100 nA
-0,10009765625;308,226840221802;-1,1676025390625E-08;-0,099700927734375;8;602;1,00424513220787E-07;-1,02219171822071E-07;100 nA
-0,150146484375;308,727328220538;-1,29547119140625E-08;-0,149566650390625;8;603;1,00424513220787E-07;-1,02219171822071E-07;100 nA
-0,2001953125;309,227816219275;-1,3287353515625E-08;-0,199462890625;8;604;1,00424513220787E-07;-1,02219171822071E-07;100 nA
-0,250244140625;309,728304218011;-1,10137939453125E-08;-0,249420166015625;8;605;1,00424513220787E-07;-1,02219171822071E-07;100 nA
-0,30029296875;310,228792216748;-7,4737548828125E-09;-0,299224853515625;8;606;1,00424513220787E-07;-1,02219171822071E-07;100 nA
-0,350341796875;310,729280215484;-6,9366455078125E-09;-0,349151611328125;8;607;1,00424513220787E-07;-1,02219171822071E-07;100 nA
-0,400390625;311,22976821422;-6,7596435546875E-09;-0,39910888671875;8;608;1,00424513220787E-07;-1,02219171822071E-07;100 nA
-0,450439453125;311,730256212957;-6,427001953125E-09;-0,448944091796875;8;609;1,00424513220787E-07;-1,02219171822071E-07;100 nA
-0,50048828125;312,230744211693;-6,04248046875E-09;-0,49884033203125;8;610;1,00424513220787E-07;-1,02219171822071E-07;100 nA
-0,550537109375;312,73123221043;-5,755615234375E-09;-0,54876708984375;8;611;1,00424513220787E-07;-1,02219171822071E-07;100 nA
-0,6005859375;313,231720209166;-5,523681640625E-09;-0,5986328125;8;612;1,00424513220787E-07;-1,02219171822071E-07;100 nA
-0,650634765625;313,732208207902;-5,33447265625E-09;-0,64862060546875;8;613;1,00424513220787E-07;-1,02219171822071E-07;100 nA
-0,70068359375;314,232696206639;-5,1971435546875E-09;-0,69866943359375;8;614;1,00424513220787E-07;-1,02219171822071E-07;100 nA
-0,750732421875;314,733184205375;-5,1605224609375E-09;-0,748626708984375;8;615;1,00424513220787E-07;-1,02219171822071E-07;100 nA
-0,80078125;315,233672204111;-5,1361083984375E-09;-0,7989501953125;8;616;1,00424513220787E-07;-1,02219171822071E-07;100 nA
-0,850830078125;315,734160202848;-5,194091796875E-09;-0,848388671875;8;617;1,00424513220787E-07;-1,02219171822071E-07;100 nA
-0,90087890625;316,234648201584;-5,3314208984375E-09;-0,8984375;8;618;1,00424513220787E-07;-1,02219171822071E-07;100 nA
-0,950927734375;316,735136200321;-5,5328369140625E-09;-0,94879150390625;8;619;1,00424513220787E-07;-1,02219171822071E-07;100 nA
-1,0009765625;317,235624199057;-5,8074951171875E-09;-0,9991455078125;8;620;1,00424513220787E-07;-1,02219171822071E-07;100 nA
-0,950927734375;317,736112197793;-3,25927734375E-09;-0,9490966796875;8;621;1,00424513220787E-07;-1,02219171822071E-07;100 nA
-0,90087890625;318,23660019653;-1,9683837890625E-09;-0,89874267578125;8;622;1,00424513220787E-07;-1,02219171822071E-07;100 nA
-0,850830078125;318,737088195266;-1,1444091796875E-09;-0,8489990234375;8;623;1,00424513220787E-07;-1,02219171822071E-07;100 nA
-0,80078125;319,237576194003;-5,37109375E-10;-0,7989501953125;8;624;1,00424513220787E-07;-1,02219171822071E-07;100 nA
-0,750732421875;319,738064192739;-1,8310546875E-11;-0,74859619140625;8;625;1,00424513220787E-07;-1,02219171822071E-07;100 nA
-0,70068359375;320,238552191475;4,241943359375E-10;-0,698638916015625;8;626;1,00424513220787E-07;-1,02219171822071E-07;100 nA
-0,650634765625;320,739040190212;8,697509765625E-10;-0,648590087890625;8;627;1,00424513220787E-07;-1,02219171822071E-07;100 nA
-0,6005859375;321,239528188948;1,3427734375E-09;-0,598663330078125;8;628;1,00424513220787E-07;-1,02219171822071E-07;100 nA
-0,550537109375;321,740016187685;1,8157958984375E-09;-0,54876708984375;8;629;1,00424513220787E-07;-1,02219171822071E-07;100 nA
-0,50048828125;322,240504186421;2,276611328125E-09;-0,4989013671875;8;630;1,00424513220787E-07;-1,02219171822071E-07;100 nA
-0,450439453125;322,740992185157;2,6947021484375E-09;-0,448974609375;8;631;1,00424513220787E-07;-1,02219171822071E-07;100 nA
-0,400390625;323,241480183894;3,204345703125E-09;-0,39910888671875;8;632;1,00424513220787E-07;-1,02219171822071E-07;100 nA
-0,350341796875;323,74196818263;3,8818359375E-09;-0,34918212890625;8;633;1,00424513220787E-07;-1,02219171822071E-07;100 nA
-0,30029296875;324,242456181366;4,693603515625E-09;-0,29925537109375;8;634;1,00424513220787E-07;-1,02219171822071E-07;100 nA
-0,250244140625;324,742944180103;5,18798828125E-09;-0,2493896484375;8;635;1,00424513220787E-07;-1,02219171822071E-07;100 nA
-0,2001953125;325,243432178839;5,35888671875E-09;-0,19952392578125;8;636;1,00424513220787E-07;-1,02219171822071E-07;100 nA
-0,150146484375;325,743920177576;5,5145263671875E-09;-0,149658203125;8;637;1,00424513220787E-07;-1,02219171822071E-07;100 nA
-0,10009765625;326,244408176312;5,6732177734375E-09;-0,099700927734375;8;638;1,00424513220787E-07;-1,02219171822071E-07;100 nA
-0,050048828125;326,744896175048;5,999755859375E-09;-0,049835205078125;8;639;1,00424513220787E-07;-1,02219171822071E-07;100 nA
0;327,245384173785;6,610107421875E-09;0,0001220703125;8;640;1,00424513220787E-07;-1,02219171822071E-07;100 nA
0,050048828125;327,745872172521;6,695556640625E-09;0,050079345703125;9;641;9,90254431962967E-08;-1,00693330168724E-07;100 nA
0,10009765625;328,246360171258;5,76171875E-09;0,10009765625;9;642;9,90254431962967E-08;-1,00693330168724E-07;100 nA
0,150146484375;328,746848169994;5,517578125E-09;0,150115966796875;9;643;9,90254431962967E-08;-1,00693330168724E-07;100 nA
0,2001953125;329,24733616873;5,7525634765625E-09;0,2000732421875;9;644;9,90254431962967E-08;-1,00693330168724E-07;100 nA
0,250244140625;329,747824167467;6,005859375E-09;0,250152587890625;9;645;9,90254431962967E-08;-1,00693330168724E-07;100 nA
0,30029296875;330,248312166203;6,2530517578125E-09;0,30010986328125;9;646;9,90254431962967E-08;-1,00693330168724E-07;100 nA
0,350341796875;330,74880016494;6,439208984375E-09;0,35009765625;9;647;9,90254431962967E-08;-1,00693330168724E-07;100 nA
0,400390625;331,249288163676;6,6375732421875E-09;0,400115966796875;9;648;9,90254431962967E-08;-1,00693330168724E-07;100 nA
0,450439453125;331,749776162412;6,93359375E-09;0,450103759765625;9;649;9,90254431962967E-08;-1,00693330168724E-07;100 nA
0,50048828125;332,250264161149;7,2418212890625E-09;0,500091552734375;9;650;9,90254431962967E-08;-1,00693330168724E-07;100 nA
0,550537109375;332,750752159885;7,4859619140625E-09;0,55010986328125;9;651;9,90254431962967E-08;-1,00693330168724E-07;100 nA
0,6005859375;333,251240158622;7,623291015625E-09;0,600128173828125;9;652;9,90254431962967E-08;-1,00693330168724E-07;100 nA
0,650634765625;333,751728157358;7,60498046875E-09;0,650054931640625;9;653;9,90254431962967E-08;-1,00693330168724E-07;100 nA
0,70068359375;334,252216156094;7,391357421875E-09;0,699981689453125;9;654;9,90254431962967E-08;-1,00693330168724E-07;100 nA
0,750732421875;334,752704154831;7,0953369140625E-09;0,749908447265625;9;655;9,90254431962967E-08;-1,00693330168724E-07;100 nA
0,80078125;335,253192153567;6,8145751953125E-09;0,8001708984375;9;656;9,90254431962967E-08;-1,00693330168724E-07;100 nA
0,850830078125;335,753680152303;6,561279296875E-09;0,849609375;9;657;9,90254431962967E-08;-1,00693330168724E-07;100 nA
0,90087890625;336,25416815104;6,4239501953125E-09;0,89996337890625;9;658;9,90254431962967E-08;-1,00693330168724E-07;100 nA
0,950927734375;336,754656149776;6,390380859375E-09;0,94940185546875;9;659;9,90254431962967E-08;-1,00693330168724E-07;100 nA
1,0009765625;337,255144148513;6,40869140625E-09;0,9991455078125;9;660;9,90254431962967E-08;-1,00693330168724E-07;100 nA
0,950927734375;337,755632147249;3,8238525390625E-09;0,94970703125;9;661;9,90254431962967E-08;-1,00693330168724E-07;100 nA
0,90087890625;338,256120145985;2,5360107421875E-09;0,90057373046875;9;662;9,90254431962967E-08;-1,00693330168724E-07;100 nA
0,850830078125;338,756608144722;1,727294921875E-09;0,84930419921875;9;663;9,90254431962967E-08;-1,00693330168724E-07;100 nA
0,80078125;339,257096143458;1,123046875E-09;0,80047607421875;9;664;9,90254431962967E-08;-1,00693330168724E-07;100 nA
0,750732421875;339,757584142195;6,2255859375E-10;0,749847412109375;9;665;9,90254431962967E-08;-1,00693330168724E-07;100 nA
0,70068359375;340,258072140931;1,800537109375E-10;0,699920654296875;9;666;9,90254431962967E-08;-1,00693330168724E-07;100 nA
0,650634765625;340,758560139667;-2,960205078125E-10;0,650115966796875;9;667;9,90254431962967E-08;-1,00693330168724E-07;100 nA
0,6005859375;341,259048138404;-8,544921875E-10;0,60015869140625;9;668;9,90254431962967E-08;-1,00693330168724E-07;100 nA
0,550537109375;341,75953613714;-1,470947265625E-09;0,550079345703125;9;669;9,90254431962967E-08;-1,00693330168724E-07;100 nA
0,50048828125;342,260024135877;-2,032470703125E-09;0,500152587890625;9;670;9,90254431962967E-08;-1,00693330168724E-07;100 nA
0,450439453125;342,760512134613;-2,5787353515625E-09;0,4501953125;9;671;9,90254431962967E-08;-1,00693330168724E-07;100 nA
0,400390625;343,261000133349;-3,070068359375E-09;0,400115966796875;9;672;9,90254431962967E-08;-1,00693330168724E-07;100 nA
0,350341796875;343,761488132086;-3,47900390625E-09;0,350128173828125;9;673;9,90254431962967E-08;-1,00693330168724E-07;100 nA
0,30029296875;344,261976130822;-3,9337158203125E-09;0,300048828125;9;674;9,90254431962967E-08;-1,00693330168724E-07;100 nA
0,250244140625;344,762464129558;-4,4464111328125E-09;0,25006103515625;9;675;9,90254431962967E-08;-1,00693330168724E-07;100 nA
0,2001953125;345,262952128295;-4,7607421875E-09;0,200103759765625;9;676;9,90254431962967E-08;-1,00693330168724E-07;100 nA
0,150146484375;345,763440127031;-5,1025390625E-09;0,150054931640625;9;677;9,90254431962967E-08;-1,00693330168724E-07;100 nA
0,10009765625;346,263928125768;-5,560302734375E-09;0,10009765625;9;678;9,90254431962967E-08;-1,00693330168724E-07;100 nA
0,050048828125;346,764416124504;-6,1370849609375E-09;0,050140380859375;9;679;9,90254431962967E-08;-1,00693330168724E-07;100 nA
0;347,26490412324;-7,2784423828125E-09;0,000143432617187494;9;680;9,90254431962967E-08;-1,00693330168724E-07;100 nA
-0,050048828125;347,765392121977;-9,417724609375E-09;-0,0498046875;9;681;9,90254431962967E-08;-1,00693330168724E-07;100 nA
-0,10009765625;348,265880120713;-1,1590576171875E-08;-0,099639892578125;9;682;9,90254431962967E-08;-1,00693330168724E-07;100 nA
-0,150146484375;348,76636811945;-1,2786865234375E-08;-0,149658203125;9;683;9,90254431962967E-08;-1,00693330168724E-07;100 nA
-0,2001953125;349,266856118186;-1,3006591796875E-08;-0,19940185546875;9;684;9,90254431962967E-08;-1,00693330168724E-07;100 nA
-0,250244140625;349,767344116922;-1,02203369140625E-08;-0,24932861328125;9;685;9,90254431962967E-08;-1,00693330168724E-07;100 nA
-0,30029296875;350,267832115659;-7,2509765625E-09;-0,299224853515625;9;686;9,90254431962967E-08;-1,00693330168724E-07;100 nA
-0,350341796875;350,768320114395;-6,8389892578125E-09;-0,34918212890625;9;687;9,90254431962967E-08;-1,00693330168724E-07;100 nA
-0,400390625;351,268808113132;-6,65283203125E-09;-0,39910888671875;9;688;9,90254431962967E-08;-1,00693330168724E-07;100 nA
-0,450439453125;351,769296111868;-6,298828125E-09;-0,448974609375;9;689;9,90254431962967E-08;-1,00693330168724E-07;100 nA
-0,50048828125;352,269784110604;-5,89599609375E-09;-0,4989013671875;9;690;9,90254431962967E-08;-1,00693330168724E-07;100 nA
-0,550537109375;352,770272109341;-5,6121826171875E-09;-0,54876708984375;9;691;9,90254431962967E-08;-1,00693330168724E-07;100 nA
-0,6005859375;353,270760108077;-5,4107666015625E-09;-0,598602294921875;9;692;9,90254431962967E-08;-1,00693330168724E-07;100 nA
-0,650634765625;353,771248106813;-5,242919921875E-09;-0,648651123046875;9;693;9,90254431962967E-08;-1,00693330168724E-07;100 nA
-0,70068359375;354,27173610555;-5,1422119140625E-09;-0,6986083984375;9;694;9,90254431962967E-08;-1,00693330168724E-07;100 nA
-0,750732421875;354,772224104286;-5,1055908203125E-09;-0,748626708984375;9;695;9,90254431962967E-08;-1,00693330168724E-07;100 nA
-0,80078125;355,272712103023;-5,1025390625E-09;-0,7989501953125;9;696;9,90254431962967E-08;-1,00693330168724E-07;100 nA
-0,850830078125;355,773200101759;-5,1971435546875E-09;-0,84869384765625;9;697;9,90254431962967E-08;-1,00693330168724E-07;100 nA
-0,90087890625;356,273688100495;-5,28564453125E-09;-0,8990478515625;9;698;9,90254431962967E-08;-1,00693330168724E-07;100 nA
-0,950927734375;356,774176099232;-5,4840087890625E-09;-0,94940185546875;9;699;9,90254431962967E-08;-1,00693330168724E-07;100 nA
-1,0009765625;357,274664097968;-5,7647705078125E-09;-0,99884033203125;9;700;9,90254431962967E-08;-1,00693330168724E-07;100 nA
-0,950927734375;357,775152096705;-3,2501220703125E-09;-0,948486328125;9;701;9,90254431962967E-08;-1,00693330168724E-07;100 nA
-0,90087890625;358,275640095441;-1,947021484375E-09;-0,89874267578125;9;702;9,90254431962967E-08;-1,00693330168724E-07;100 nA
-0,850830078125;358,776128094177;-1,13525390625E-09;-0,848388671875;9;703;9,90254431962967E-08;-1,00693330168724E-07;100 nA
-0,80078125;359,276616092914;-5,340576171875E-10;-0,79864501953125;9;704;9,90254431962967E-08;-1,00693330168724E-07;100 nA
-0,750732421875;359,77710409165;-1,52587890625E-11;-0,748687744140625;9;705;9,90254431962967E-08;-1,00693330168724E-07;100 nA
-0,70068359375;360,277592090387;4,486083984375E-10;-0,698577880859375;9;706;9,90254431962967E-08;-1,00693330168724E-07;100 nA
-0,650634765625;360,778080089123;9,185791015625E-10;-0,648590087890625;9;707;9,90254431962967E-08;-1,00693330168724E-07;100 nA
-0,6005859375;361,278568087859;1,3458251953125E-09;-0,598724365234375;9;708;9,90254431962967E-08;-1,00693330168724E-07;100 nA
-0,550537109375;361,779056086596;1,8096923828125E-09;-0,548797607421875;9;709;9,90254431962967E-08;-1,00693330168724E-07;100 nA
-0,50048828125;362,279544085332;2,239990234375E-09;-0,49884033203125;9;710;9,90254431962967E-08;-1,00693330168724E-07;100 nA
-0,450439453125;362,780032084068;2,6641845703125E-09;-0,449066162109375;9;711;9,90254431962967E-08;-1,00693330168724E-07;100 nA
-0,400390625;363,280520082805;3,143310546875E-09;-0,39910888671875;9;712;9,90254431962967E-08;-1,00693330168724E-07;100 nA
-0,350341796875;363,781008081541;3,7567138671875E-09;-0,3492431640625;9;713;9,90254431962967E-08;-1,00693330168724E-07;100 nA
-0,30029296875;364,281496080278;4,5928955078125E-09;-0,29931640625;9;714;9,90254431962967E-08;-1,00693330168724E-07;100 nA
-0,250244140625;364,781984079014;5,1239013671875E-09;-0,249420166015625;9;715;9,90254431962967E-08;-1,00693330168724E-07;100 nA
-0,2001953125;365,28247207775;5,3375244140625E-09;-0,19952392578125;9;716;9,90254431962967E-08;-1,00693330168724E-07;100 nA
-0,150146484375;365,782960076487;5,48095703125E-09;-0,149627685546875;9;717;9,90254431962967E-08;-1,00693330168724E-07;100 nA
-0,10009765625;366,283448075223;5,6365966796875E-09;-0,099700927734375;9;718;9,90254431962967E-08;-1,00693330168724E-07;100 nA
-0,050048828125;366,78393607396;5,914306640625E-09;-0,049835205078125;9;719;9,90254431962967E-08;-1,00693330168724E-07;100 nA
0;367,284424072696;6,3934326171875E-09;0,000115966796875006;9;720;9,90254431962967E-08;-1,00693330168724E-07;100 nA
0,050048828125;367,784912071432;6,3262939453125E-09;0,050018310546875;10;721;9,72185656428337E-08;-1,00566558539867E-07;100 nA
0,10009765625;368,285400070169;5,4290771484375E-09;0,10003662109375;10;722;9,72185656428337E-08;-1,00566558539867E-07;100 nA
0,150146484375;368,785888068905;5,3558349609375E-09;0,150054931640625;10;723;9,72185656428337E-08;-1,00566558539867E-07;100 nA
0,2001953125;369,286376067642;5,5999755859375E-09;0,200103759765625;10;724;9,72185656428337E-08;-1,00566558539867E-07;100 nA
0,250244140625;369,786864066378;5,914306640625E-09;0,25006103515625;10;725;9,72185656428337E-08;-1,00566558539867E-07;100 nA
0,30029296875;370,287352065114;6,158447265625E-09;0,300048828125;10;726;9,72185656428337E-08;-1,00566558539867E-07;100 nA
0,350341796875;370,787840063851;6,33544921875E-09;0,35009765625;10;727;9,72185656428337E-08;-1,00566558539867E-07;100 nA
0,400390625;371,288328062587;6,55517578125E-09;0,400146484375;10;728;9,72185656428337E-08;-1,00566558539867E-07;100 nA
0,450439453125;371,788816061323;6,8756103515625E-09;0,450103759765625;10;729;9,72185656428337E-08;-1,00566558539867E-07;100 nA
0,50048828125;372,28930406006;7,1624755859375E-09;0,500091552734375;10;730;9,72185656428337E-08;-1,00566558539867E-07;100 nA
0,550537109375;372,789792058796;7,4066162109375E-09;0,550140380859375;10;731;9,72185656428337E-08;-1,00566558539867E-07;100 nA
0,6005859375;373,290280057533;7,5439453125E-09;0,600067138671875;10;732;9,72185656428337E-08;-1,00566558539867E-07;100 nA
0,650634765625;373,790768056269;7,4920654296875E-09;0,650054931640625;10;733;9,72185656428337E-08;-1,00566558539867E-07;100 nA
0,70068359375;374,291256055005;7,281494140625E-09;0,699951171875;10;734;9,72185656428337E-08;-1,00566558539867E-07;100 nA
0,750732421875;374,791744053742;6,9915771484375E-09;0,7498779296875;10;735;9,72185656428337E-08;-1,00566558539867E-07;100 nA
0,80078125;375,292232052478;6,671142578125E-09;0,799560546875;10;736;9,72185656428337E-08;-1,00566558539867E-07;100 nA
0,850830078125;375,792720051215;6,439208984375E-09;0,8502197265625;10;737;9,72185656428337E-08;-1,00566558539867E-07;100 nA
0,90087890625;376,293208049951;6,317138671875E-09;0,899658203125;10;738;9,72185656428337E-08;-1,00566558539867E-07;100 nA
0,950927734375;376,793696048687;6,2774658203125E-09;0,94940185546875;10;739;9,72185656428337E-08;-1,00566558539867E-07;100 nA
1,0009765625;377,294184047424;6,329345703125E-09;1,00006103515625;10;740;9,72185656428337E-08;-1,00566558539867E-07;100 nA
0,950927734375;377,79467204616;3,79638671875E-09;0,95001220703125;10;741;9,72185656428337E-08;-1,00566558539867E-07;100 nA
0,90087890625;378,295160044897;2,50244140625E-09;0,899658203125;10;742;9,72185656428337E-08;-1,00566558539867E-07;100 nA
0,850830078125;378,795648043633;1,702880859375E-09;0,84991455078125;10;743;9,72185656428337E-08;-1,00566558539867E-07;100 nA
0,80078125;379,296136042369;1,092529296875E-09;0,8001708984375;10;744;9,72185656428337E-08;-1,00566558539867E-07;100 nA
0,750732421875;379,796624041106;6,134033203125E-10;0,74993896484375;10;745;9,72185656428337E-08;-1,00566558539867E-07;100 nA
0,70068359375;380,297112039842;1,861572265625E-10;0,699951171875;10;746;9,72185656428337E-08;-1,00566558539867E-07;100 nA
0,650634765625;380,797600038578;-2,899169921875E-10;0,650115966796875;10;747;9,72185656428337E-08;-1,00566558539867E-07;100 nA
0,6005859375;381,298088037315;-8,209228515625E-10;0,60015869140625;10;748;9,72185656428337E-08;-1,00566558539867E-07;100 nA
0,550537109375;381,798576036051;-1,42822265625E-09;0,550201416015625;10;749;9,72185656428337E-08;-1,00566558539867E-07;100 nA
0,50048828125;382,299064034788;-2,0111083984375E-09;0,5001220703125;10;750;9,72185656428337E-08;-1,00566558539867E-07;100 nA
0,450439453125;382,799552033524;-2,5787353515625E-09;0,450164794921875;10;751;9,72185656428337E-08;-1,00566558539867E-07;100 nA
0,400390625;383,30004003226;-3,094482421875E-09;0,400115966796875;10;752;9,72185656428337E-08;-1,00566558539867E-07;100 nA
0,350341796875;383,800528030997;-3,4942626953125E-09;0,350189208984375;10;753;9,72185656428337E-08;-1,00566558539867E-07;100 nA
0,30029296875;384,301016029733;-3,8787841796875E-09;0,300201416015625;10;754;9,72185656428337E-08;-1,00566558539867E-07;100 nA
0,250244140625;384,80150402847;-4,3548583984375E-09;0,250091552734375;10;755;9,72185656428337E-08;-1,00566558539867E-07;100 nA
0,2001953125;385,301992027206;-4,6966552734375E-09;0,200103759765625;10;756;9,72185656428337E-08;-1,00566558539867E-07;100 nA
0,150146484375;385,802480025942;-5,0506591796875E-09;0,150146484375;10;757;9,72185656428337E-08;-1,00566558539867E-07;100 nA
0,10009765625;386,302968024679;-5,511474609375E-09;0,10009765625;10;758;9,72185656428337E-08;-1,00566558539867E-07;100 nA
0,050048828125;386,803456023415;-6,1187744140625E-09;0,050140380859375;10;759;9,72185656428337E-08;-1,00566558539867E-07;100 nA
0;387,303944022152;-7,2235107421875E-09;0,000140380859374997;10;760;9,72185656428337E-08;-1,00566558539867E-07;100 nA
-0,050048828125;387,804432020888;-9,31396484375E-09;-0,049774169921875;10;761;9,72185656428337E-08;-1,00566558539867E-07;100 nA
-0,10009765625;388,304920019624;-1,1529541015625E-08;-0,099700927734375;10;762;9,72185656428337E-08;-1,00566558539867E-07;100 nA
-0,150146484375;388,805408018361;-1,26953125E-08;-0,14959716796875;10;763;9,72185656428337E-08;-1,00566558539867E-07;100 nA
-0,2001953125;389,305896017097;-1,2762451171875E-08;-0,199493408203125;10;764;9,72185656428337E-08;-1,00566558539867E-07;100 nA
-0,250244140625;389,806384015833;-9,5489501953125E-09;-0,2493896484375;10;765;9,72185656428337E-08;-1,00566558539867E-07;100 nA
-0,30029296875;390,30687201457;-7,2021484375E-09;-0,299285888671875;10;766;9,72185656428337E-08;-1,00566558539867E-07;100 nA
-0,350341796875;390,807360013306;-6,890869140625E-09;-0,349212646484375;10;767;9,72185656428337E-08;-1,00566558539867E-07;100 nA
-0,400390625;391,307848012043;-6,646728515625E-09;-0,39910888671875;10;768;9,72185656428337E-08;-1,00566558539867E-07;100 nA
-0,450439453125;391,808336010779;-6,28662109375E-09;-0,449005126953125;10;769;9,72185656428337E-08;-1,00566558539867E-07;100 nA
-0,50048828125;392,308824009515;-5,9417724609375E-09;-0,498870849609375;10;770;9,72185656428337E-08;-1,00566558539867E-07;100 nA
-0,550537109375;392,809312008252;-5,694580078125E-09;-0,54876708984375;10;771;9,72185656428337E-08;-1,00566558539867E-07;100 nA
-0,6005859375;393,309800006988;-5,48095703125E-09;-0,598724365234375;10;772;9,72185656428337E-08;-1,00566558539867E-07;100 nA
-0,650634765625;393,810288005725;-5,33447265625E-09;-0,648681640625;10;773;9,72185656428337E-08;-1,00566558539867E-07;100 nA
-0,70068359375;394,310776004461;-5,2642822265625E-09;-0,698638916015625;10;774;9,72185656428337E-08;-1,00566558539867E-07;100 nA
-0,750732421875;394,811264003197;-5,224609375E-09;-0,74859619140625;10;775;9,72185656428337E-08;-1,00566558539867E-07;100 nA
-0,80078125;395,311752001934;-5,194091796875E-09;-0,79864501953125;10;776;9,72185656428337E-08;-1,00566558539867E-07;100 nA
-0,850830078125;395,81224000067;-5,255126953125E-09;-0,848388671875;10;777;9,72185656428337E-08;-1,00566558539867E-07;100 nA
-0,90087890625;396,312727999407;-5,3863525390625E-09;-0,89874267578125;10;778;9,72185656428337E-08;-1,00566558539867E-07;100 nA
-0,950927734375;396,813215998143;-5,56640625E-09;-0,94818115234375;10;779;9,72185656428337E-08;-1,00566558539867E-07;100 nA
-1,0009765625;397,313703996879;-5,8319091796875E-09;-0,99945068359375;10;780;9,72185656428337E-08;-1,00566558539867E-07;100 nA
-0,950927734375;397,814191995616;-3,3294677734375E-09;-0,948486328125;10;781;9,72185656428337E-08;-1,00566558539867E-07;100 nA
-0,90087890625;398,314679994352;-2,0538330078125E-09;-0,8990478515625;10;782;9,72185656428337E-08;-1,00566558539867E-07;100 nA
-0,850830078125;398,815167993088;-1,214599609375E-09;-0,84869384765625;10;783;9,72185656428337E-08;-1,00566558539867E-07;100 nA
-0,80078125;399,315655991825;-6,2255859375E-10;-0,7989501953125;10;784;9,72185656428337E-08;-1,00566558539867E-07;100 nA
-0,750732421875;399,816143990561;-1,129150390625E-10;-0,7486572265625;10;785;9,72185656428337E-08;-1,00566558539867E-07;100 nA
-0,70068359375;400,316631989298;3,387451171875E-10;-0,6986083984375;10;786;9,72185656428337E-08;-1,00566558539867E-07;100 nA
-0,650634765625;400,817119988034;7,8125E-10;-0,648712158203125;10;787;9,72185656428337E-08;-1,00566558539867E-07;100 nA
-0,6005859375;401,31760798677;1,239013671875E-09;-0,598724365234375;10;788;9,72185656428337E-08;-1,00566558539867E-07;100 nA
-0,550537109375;401,818095985507;1,7120361328125E-09;-0,548828125;10;789;9,72185656428337E-08;-1,00566558539867E-07;100 nA
-0,50048828125;402,318583984243;2,1697998046875E-09;-0,4989013671875;10;790;9,72185656428337E-08;-1,00566558539867E-07;100 nA
-0,450439453125;402,81907198298;2,6153564453125E-09;-0,449066162109375;10;791;9,72185656428337E-08;-1,00566558539867E-07;100 nA
-0,400390625;403,319559981716;3,082275390625E-09;-0,399169921875;10;792;9,72185656428337E-08;-1,00566558539867E-07;100 nA
-0,350341796875;403,820047980452;3,7109375E-09;-0,349212646484375;10;793;9,72185656428337E-08;-1,00566558539867E-07;100 nA
-0,30029296875;404,320535979189;4,52880859375E-09;-0,299346923828125;10;794;9,72185656428337E-08;-1,00566558539867E-07;100 nA
-0,250244140625;404,821023977925;5,0933837890625E-09;-0,249420166015625;10;795;9,72185656428337E-08;-1,00566558539867E-07;100 nA
-0,2001953125;405,321511976662;5,303955078125E-09;-0,19952392578125;10;796;9,72185656428337E-08;-1,00566558539867E-07;100 nA
-0,150146484375;405,821999975398;5,48095703125E-09;-0,149658203125;10;797;9,72185656428337E-08;-1,00566558539867E-07;100 nA
-0,10009765625;406,322487974134;5,633544921875E-09;-0,099822998046875;10;798;9,72185656428337E-08;-1,00566558539867E-07;100 nA
-0,050048828125;406,822975972871;5,89599609375E-09;-0,049896240234375;10;799;9,72185656428337E-08;-1,00566558539867E-07;100 nA
0;407,323463971607;6,304931640625E-09;0,000109863281249997;10;800;9,72185656428337E-08;-1,00566558539867E-07;100 nA
