Potential applied (V);Time (s);WE(1).Current (A);WE(1).Potential (V);Scan;Index;Q+;Q-;Current range
0,050048828125;7,44632898119983;3,1524658203125E-09;0,05010986328125;1;1;1,57375521957874E-07;-2,24471315741539E-07;100 nA
0,10009765625;7,94681697993622;4,8980712890625E-09;0,10003662109375;1;2;1,57375521957874E-07;-2,24471315741539E-07;100 nA
0,150146484375;8,44730497867261;5,322265625E-09;0,1500244140625;1;3;1,57375521957874E-07;-2,24471315741539E-07;100 nA
0,2001953125;8,94779297740899;5,621337890625E-09;0,2000732421875;1;4;1,57375521957874E-07;-2,24471315741539E-07;100 nA
0,250244140625;9,44828097614538;6,182861328125E-09;0,250091552734375;1;5;1,57375521957874E-07;-2,24471315741539E-07;100 nA
0,30029296875;9,94876897488177;6,8511962890625E-09;0,300048828125;1;6;1,57375521957874E-07;-2,24471315741539E-07;100 nA
0,350341796875;10,4492569736182;7,5531005859375E-09;0,35009765625;1;7;1,57375521957874E-07;-2,24471315741539E-07;100 nA
0,400390625;10,9497449723546;8,221435546875E-09;0,40020751953125;1;8;1,57375521957874E-07;-2,24471315741539E-07;100 nA
0,450439453125;11,4502329710909;8,929443359375E-09;0,450103759765625;1;9;1,57375521957874E-07;-2,24471315741539E-07;100 nA
0,50048828125;11,9507209698273;9,6893310546875E-09;0,50018310546875;1;10;1,57375521957874E-07;-2,24471315741539E-07;100 nA
0,550537109375;12,4512089685637;1,036376953125E-08;0,550140380859375;1;11;1,57375521957874E-07;-2,24471315741539E-07;100 nA
0,6005859375;12,9516969673001;1,10260009765625E-08;0,60009765625;1;12;1,57375521957874E-07;-2,24471315741539E-07;100 nA
0,650634765625;13,4521849660365;1,15692138671875E-08;0,65008544921875;1;13;1,57375521957874E-07;-2,24471315741539E-07;100 nA
0,70068359375;13,9526729647729;1,20452880859375E-08;0,699951171875;1;14;1,57375521957874E-07;-2,24471315741539E-07;100 nA
0,750732421875;14,4531609635093;1,2457275390625E-08;0,7498779296875;1;15;1,57375521957874E-07;-2,24471315741539E-07;100 nA
0,80078125;14,9536489622457;1,2835693359375E-08;0,79986572265625;1;16;1,57375521957874E-07;-2,24471315741539E-07;100 nA
0,850830078125;15,4541369609821;1,31927490234375E-08;0,84991455078125;1;17;1,57375521957874E-07;-2,24471315741539E-07;100 nA
0,90087890625;15,9546249597184;1,3555908203125E-08;0,899658203125;1;18;1,57375521957874E-07;-2,24471315741539E-07;100 nA
0,950927734375;16,4551129584548;1,39617919921875E-08;0,9490966796875;1;19;1,57375521957874E-07;-2,24471315741539E-07;100 nA
1,0009765625;16,9556009571912;1,4398193359375E-08;0,99945068359375;1;20;1,57375521957874E-07;-2,24471315741539E-07;100 nA
0,950927734375;17,4560889559276;1,1029052734375E-08;0,9503173828125;1;21;1,57375521957874E-07;-2,24471315741539E-07;100 nA
0,90087890625;17,956576954664;8,7860107421875E-09;0,89935302734375;1;22;1,57375521957874E-07;-2,24471315741539E-07;100 nA
0,850830078125;18,4570649534004;7,0587158203125E-09;0,8502197265625;1;23;1,57375521957874E-07;-2,24471315741539E-07;100 nA
0,80078125;18,9575529521368;5,609130859375E-09;0,79986572265625;1;24;1,57375521957874E-07;-2,24471315741539E-07;100 nA
0,750732421875;19,4580409508732;4,2938232421875E-09;0,74981689453125;1;25;1,57375521957874E-07;-2,24471315741539E-07;100 nA
0,70068359375;19,9585289496096;3,0517578125E-09;0,699951171875;1;26;1,57375521957874E-07;-2,24471315741539E-07;100 nA
0,650634765625;20,4590169483459;1,8310546875E-09;0,650115966796875;1;27;1,57375521957874E-07;-2,24471315741539E-07;100 nA
0,6005859375;20,9595049470823;6,622314453125E-10;0,600128173828125;1;28;1,57375521957874E-07;-2,24471315741539E-07;100 nA
0,550537109375;21,4599929458187;-4,39453125E-10;0,550140380859375;1;29;1,57375521957874E-07;-2,24471315741539E-07;100 nA
0,50048828125;21,9604809445551;-1,4984130859375E-09;0,500152587890625;1;30;1,57375521957874E-07;-2,24471315741539E-07;100 nA
0,450439453125;22,4609689432915;-2,4871826171875E-09;0,45013427734375;1;31;1,57375521957874E-07;-2,24471315741539E-07;100 nA
0,400390625;22,9614569420279;-3,45458984375E-09;0,40020751953125;1;32;1,57375521957874E-07;-2,24471315741539E-07;100 nA
0,350341796875;23,4619449407643;-4,4219970703125E-09;0,350189208984375;1;33;1,57375521957874E-07;-2,24471315741539E-07;100 nA
0,30029296875;23,9624329395007;-5,291748046875E-09;0,3001708984375;1;34;1,57375521957874E-07;-2,24471315741539E-07;100 nA
0,250244140625;24,4629209382371;-6,1248779296875E-09;0,250091552734375;1;35;1,57375521957874E-07;-2,24471315741539E-07;100 nA
0,2001953125;24,9634089369735;-6,94580078125E-09;0,2000732421875;1;36;1,57375521957874E-07;-2,24471315741539E-07;100 nA
0,150146484375;25,4638969357098;-7,9193115234375E-09;0,150115966796875;1;37;1,57375521957874E-07;-2,24471315741539E-07;100 nA
0,10009765625;25,9643849344462;-9,33837890625E-09;0,10009765625;1;38;1,57375521957874E-07;-2,24471315741539E-07;100 nA
0,050048828125;26,4648729331826;-1,14532470703125E-08;0,050140380859375;1;39;1,57375521957874E-07;-2,24471315741539E-07;100 nA
0;26,965360931919;-1,40655517578125E-08;0,000164794921875003;1;40;1,57375521957874E-07;-2,24471315741539E-07;100 nA
-0,050048828125;27,4658489306554;-1,59088134765625E-08;-0,04974365234375;1;41;1,57375521957874E-07;-2,24471315741539E-07;100 nA
-0,10009765625;27,9663369293918;-1,6961669921875E-08;-0,099639892578125;1;42;1,57375521957874E-07;-2,24471315741539E-07;100 nA
-0,150146484375;28,4668249281282;-1,77764892578125E-08;-0,1495361328125;1;43;1,57375521957874E-07;-2,24471315741539E-07;100 nA
-0,2001953125;28,9673129268646;-1,8505859375E-08;-0,199462890625;1;44;1,57375521957874E-07;-2,24471315741539E-07;100 nA
-0,250244140625;29,467800925601;-1,90338134765625E-08;-0,249298095703125;1;45;1,57375521957874E-07;-2,24471315741539E-07;100 nA
-0,30029296875;29,9682889243373;-1,95281982421875E-08;-0,2991943359375;1;46;1,57375521957874E-07;-2,24471315741539E-07;100 nA
-0,350341796875;30,4687769230737;-2,017822265625E-08;-0,349151611328125;1;47;1,57375521957874E-07;-2,24471315741539E-07;100 nA
-0,400390625;30,9692649218101;-2,08282470703125E-08;-0,399017333984375;1;48;1,57375521957874E-07;-2,24471315741539E-07;100 nA
-0,450439453125;31,4697529205465;-2,125244140625E-08;-0,448883056640625;1;49;1,57375521957874E-07;-2,24471315741539E-07;100 nA
-0,50048828125;31,9702409192829;-2,10205078125E-08;-0,498809814453125;1;50;1,57375521957874E-07;-2,24471315741539E-07;100 nA
-0,550537109375;32,4707289180193;-1,85699462890625E-08;-0,548736572265625;1;51;1,57375521957874E-07;-2,24471315741539E-07;100 nA
-0,6005859375;32,9712169167557;-1,56494140625E-08;-0,598663330078125;1;52;1,57375521957874E-07;-2,24471315741539E-07;100 nA
-0,650634765625;33,4717049154921;-1,52740478515625E-08;-0,64862060546875;1;53;1,57375521957874E-07;-2,24471315741539E-07;100 nA
-0,70068359375;33,9721929142285;-1,49139404296875E-08;-0,69854736328125;1;54;1,57375521957874E-07;-2,24471315741539E-07;100 nA
-0,750732421875;34,4726809129648;-1,44256591796875E-08;-0,748565673828125;1;55;1,57375521957874E-07;-2,24471315741539E-07;100 nA
-0,80078125;34,9731689117012;-1,42303466796875E-08;-0,79833984375;1;56;1,57375521957874E-07;-2,24471315741539E-07;100 nA
-0,850830078125;35,4736569104376;-1,42120361328125E-08;-0,84869384765625;1;57;1,57375521957874E-07;-2,24471315741539E-07;100 nA
-0,90087890625;35,974144909174;-1,4306640625E-08;-0,8984375;1;58;1,57375521957874E-07;-2,24471315741539E-07;100 nA
-0,950927734375;36,4746329079104;-1,45263671875E-08;-0,94940185546875;1;59;1,57375521957874E-07;-2,24471315741539E-07;100 nA
-1,0009765625;36,9751209066468;-1,48101806640625E-08;-0,99884033203125;1;60;1,57375521957874E-07;-2,24471315741539E-07;100 nA
-0,950927734375;37,4756089053832;-1,05560302734375E-08;-0,948486328125;1;61;1,57375521957874E-07;-2,24471315741539E-07;100 nA
-0,90087890625;37,9760969041196;-7,8826904296875E-09;-0,89874267578125;1;62;1,57375521957874E-07;-2,24471315741539E-07;100 nA
-0,850830078125;38,476584902856;-5,8563232421875E-09;-0,84869384765625;1;63;1,57375521957874E-07;-2,24471315741539E-07;100 nA
-0,80078125;38,9770729015924;-4,193115234375E-09;-0,79864501953125;1;64;1,57375521957874E-07;-2,24471315741539E-07;100 nA
-0,750732421875;39,4775609003287;-2,7923583984375E-09;-0,748626708984375;1;65;1,57375521957874E-07;-2,24471315741539E-07;100 nA
-0,70068359375;39,9780488990651;-1,513671875E-09;-0,698638916015625;1;66;1,57375521957874E-07;-2,24471315741539E-07;100 nA
-0,650634765625;40,4785368978015;-3,570556640625E-10;-0,64862060546875;1;67;1,57375521957874E-07;-2,24471315741539E-07;100 nA
-0,6005859375;40,9790248965379;7,781982421875E-10;-0,598663330078125;1;68;1,57375521957874E-07;-2,24471315741539E-07;100 nA
-0,550537109375;41,4795128952743;1,8707275390625E-09;-0,548828125;1;69;1,57375521957874E-07;-2,24471315741539E-07;100 nA
-0,50048828125;41,9800008940107;2,911376953125E-09;-0,498931884765625;1;70;1,57375521957874E-07;-2,24471315741539E-07;100 nA
-0,450439453125;42,4804888927471;3,7384033203125E-09;-0,448974609375;1;71;1,57375521957874E-07;-2,24471315741539E-07;100 nA
-0,400390625;42,9809768914835;4,498291015625E-09;-0,399139404296875;1;72;1,57375521957874E-07;-2,24471315741539E-07;100 nA
-0,350341796875;43,4814648902199;5,1513671875E-09;-0,3492431640625;1;73;1,57375521957874E-07;-2,24471315741539E-07;100 nA
-0,30029296875;43,9819528889562;5,755615234375E-09;-0,299285888671875;1;74;1,57375521957874E-07;-2,24471315741539E-07;100 nA
-0,250244140625;44,4824408876926;6,3812255859375E-09;-0,2493896484375;1;75;1,57375521957874E-07;-2,24471315741539E-07;100 nA
-0,2001953125;44,982928886429;7,2479248046875E-09;-0,19952392578125;1;76;1,57375521957874E-07;-2,24471315741539E-07;100 nA
-0,150146484375;45,4834168851654;8,3740234375E-09;-0,149688720703125;1;77;1,57375521957874E-07;-2,24471315741539E-07;100 nA
-0,10009765625;45,9839048839018;9,722900390625E-09;-0,0997314453125;1;78;1,57375521957874E-07;-2,24471315741539E-07;100 nA
-0,050048828125;46,4843928826382;1,119384765625E-08;-0,049835205078125;1;79;1,57375521957874E-07;-2,24471315741539E-07;100 nA
0;46,9848808813746;1,26708984375E-08;7,62939453125E-05;1;80;1,57375521957874E-07;-2,24471315741539E-07;100 nA
0,050048828125;47,485368880111;1,4239501953125E-08;0,049957275390625;2;81;2,08505727350712E-07;-2,15128399431705E-07;100 nA
0,10009765625;47,9858568788474;1,5447998046875E-08;0,10003662109375;2;82;2,08505727350712E-07;-2,15128399431705E-07;100 nA
0,150146484375;48,4863448775837;1,55731201171875E-08;0,149993896484375;2;83;2,08505727350712E-07;-2,15128399431705E-07;100 nA
0,2001953125;48,9868328763201;1,4483642578125E-08;0,20001220703125;2;84;2,08505727350712E-07;-2,15128399431705E-07;100 nA
0,250244140625;49,4873208750565;1,3189697265625E-08;0,25;2;85;2,08505727350712E-07;-2,15128399431705E-07;100 nA
0,30029296875;49,9878088737929;1,2872314453125E-08;0,300079345703125;2;86;2,08505727350712E-07;-2,15128399431705E-07;100 nA
0,350341796875;50,4882968725293;1,29119873046875E-08;0,350067138671875;2;87;2,08505727350712E-07;-2,15128399431705E-07;100 nA
0,400390625;50,9887848712657;1,300048828125E-08;0,40008544921875;2;88;2,08505727350712E-07;-2,15128399431705E-07;100 nA
0,450439453125;51,4892728700021;1,31927490234375E-08;0,4500732421875;2;89;2,08505727350712E-07;-2,15128399431705E-07;100 nA
0,50048828125;51,9897608687385;1,351318359375E-08;0,500030517578125;2;90;2,08505727350712E-07;-2,15128399431705E-07;100 nA
0,550537109375;52,4902488674749;1,3812255859375E-08;0,550048828125;2;91;2,08505727350712E-07;-2,15128399431705E-07;100 nA
0,6005859375;52,9907368662113;1,41448974609375E-08;0,600067138671875;2;92;2,08505727350712E-07;-2,15128399431705E-07;100 nA
0,650634765625;53,4912248649476;1,4410400390625E-08;0,650054931640625;2;93;2,08505727350712E-07;-2,15128399431705E-07;100 nA
0,70068359375;53,991712863684;1,45172119140625E-08;0,699920654296875;2;94;2,08505727350712E-07;-2,15128399431705E-07;100 nA
0,750732421875;54,4922008624204;1,46820068359375E-08;0,74981689453125;2;95;2,08505727350712E-07;-2,15128399431705E-07;100 nA
0,80078125;54,9926888611568;1,48284912109375E-08;0,799560546875;2;96;2,08505727350712E-07;-2,15128399431705E-07;100 nA
0,850830078125;55,4931768598932;1,49810791015625E-08;0,84991455078125;2;97;2,08505727350712E-07;-2,15128399431705E-07;100 nA
0,90087890625;55,9936648586296;1,51519775390625E-08;0,89996337890625;2;98;2,08505727350712E-07;-2,15128399431705E-07;100 nA
0,950927734375;56,494152857366;1,54205322265625E-08;0,95001220703125;2;99;2,08505727350712E-07;-2,15128399431705E-07;100 nA
1,0009765625;56,9946408561024;1,5728759765625E-08;1,00006103515625;2;100;2,08505727350712E-07;-2,15128399431705E-07;100 nA
0,950927734375;57,4951288548388;1,22283935546875E-08;0,94940185546875;2;101;2,08505727350712E-07;-2,15128399431705E-07;100 nA
0,90087890625;57,9956168535751;9,8297119140625E-09;0,9002685546875;2;102;2,08505727350712E-07;-2,15128399431705E-07;100 nA
0,850830078125;58,4961048523115;8,0322265625E-09;0,849609375;2;103;2,08505727350712E-07;-2,15128399431705E-07;100 nA
0,80078125;58,9965928510479;6,50634765625E-09;0,79925537109375;2;104;2,08505727350712E-07;-2,15128399431705E-07;100 nA
0,750732421875;59,4970808497843;5,133056640625E-09;0,749908447265625;2;105;2,08505727350712E-07;-2,15128399431705E-07;100 nA
0,70068359375;59,9975688485207;3,84521484375E-09;0,699951171875;2;106;2,08505727350712E-07;-2,15128399431705E-07;100 nA
0,650634765625;60,4980568472571;2,60009765625E-09;0,650054931640625;2;107;2,08505727350712E-07;-2,15128399431705E-07;100 nA
0,6005859375;60,9985448459935;1,4068603515625E-09;0,60009765625;2;108;2,08505727350712E-07;-2,15128399431705E-07;100 nA
0,550537109375;61,4990328447299;2,349853515625E-10;0,55010986328125;2;109;2,08505727350712E-07;-2,15128399431705E-07;100 nA
0,50048828125;61,9995208434663;-8,60595703125E-10;0,5001220703125;2;110;2,08505727350712E-07;-2,15128399431705E-07;100 nA
0,450439453125;62,5000088422026;-1,8890380859375E-09;0,450164794921875;2;111;2,08505727350712E-07;-2,15128399431705E-07;100 nA
0,400390625;63,000496840939;-2,886962890625E-09;0,400177001953125;2;112;2,08505727350712E-07;-2,15128399431705E-07;100 nA
0,350341796875;63,5009848396754;-3,8421630859375E-09;0,35009765625;2;113;2,08505727350712E-07;-2,15128399431705E-07;100 nA
0,30029296875;64,0014728384118;-4,6844482421875E-09;0,300201416015625;2;114;2,08505727350712E-07;-2,15128399431705E-07;100 nA
0,250244140625;64,5019608371482;-5,5206298828125E-09;0,250213623046875;2;115;2,08505727350712E-07;-2,15128399431705E-07;100 nA
0,2001953125;65,0024488358846;-6,4178466796875E-09;0,20013427734375;2;116;2,08505727350712E-07;-2,15128399431705E-07;100 nA
0,150146484375;65,502936834621;-7,4249267578125E-09;0,150115966796875;2;117;2,08505727350712E-07;-2,15128399431705E-07;100 nA
0,10009765625;66,0034248333574;-8,8104248046875E-09;0,100311279296875;2;118;2,08505727350712E-07;-2,15128399431705E-07;100 nA
0,050048828125;66,5039128320938;-1,09161376953125E-08;0,050140380859375;2;119;2,08505727350712E-07;-2,15128399431705E-07;100 nA
0;67,0044008308302;-1,3641357421875E-08;0,000195312500000003;2;120;2,08505727350712E-07;-2,15128399431705E-07;100 nA
-0,050048828125;67,5048888295665;-1,568603515625E-08;-0,0497039794921875;2;121;2,08505727350712E-07;-2,15128399431705E-07;100 nA
-0,10009765625;68,0053768283029;-1,68731689453125E-08;-0,099639892578125;2;122;2,08505727350712E-07;-2,15128399431705E-07;100 nA
-0,150146484375;68,5058648270393;-1,7681884765625E-08;-0,149505615234375;2;123;2,08505727350712E-07;-2,15128399431705E-07;100 nA
-0,2001953125;69,0063528257757;-1,84600830078125E-08;-0,199462890625;2;124;2,08505727350712E-07;-2,15128399431705E-07;100 nA
-0,250244140625;69,5068408245121;-1,910400390625E-08;-0,249359130859375;2;125;2,08505727350712E-07;-2,15128399431705E-07;100 nA
-0,30029296875;70,0073288232485;-1,96685791015625E-08;-0,299163818359375;2;126;2,08505727350712E-07;-2,15128399431705E-07;100 nA
-0,350341796875;70,5078168219849;-2,02545166015625E-08;-0,34918212890625;2;127;2,08505727350712E-07;-2,15128399431705E-07;100 nA
-0,400390625;71,0083048207213;-2,07672119140625E-08;-0,399017333984375;2;128;2,08505727350712E-07;-2,15128399431705E-07;100 nA
-0,450439453125;71,5087928194577;-2,09259033203125E-08;-0,448883056640625;2;129;2,08505727350712E-07;-2,15128399431705E-07;100 nA
-0,50048828125;72,009280818194;-2,02728271484375E-08;-0,498748779296875;2;130;2,08505727350712E-07;-2,15128399431705E-07;100 nA
-0,550537109375;72,5097688169304;-1,68792724609375E-08;-0,5487060546875;2;131;2,08505727350712E-07;-2,15128399431705E-07;100 nA
-0,6005859375;73,0102568156668;-1,49261474609375E-08;-0,598663330078125;2;132;2,08505727350712E-07;-2,15128399431705E-07;100 nA
-0,650634765625;73,5107448144032;-1,45904541015625E-08;-0,648590087890625;2;133;2,08505727350712E-07;-2,15128399431705E-07;100 nA
-0,70068359375;74,0112328131396;-1,4202880859375E-08;-0,698577880859375;2;134;2,08505727350712E-07;-2,15128399431705E-07;100 nA
-0,750732421875;74,511720811876;-1,3751220703125E-08;-0,748626708984375;2;135;2,08505727350712E-07;-2,15128399431705E-07;100 nA
-0,80078125;75,0122088106124;-1,34979248046875E-08;-0,79864501953125;2;136;2,08505727350712E-07;-2,15128399431705E-07;100 nA
-0,850830078125;75,5126968093488;-1,34735107421875E-08;-0,84869384765625;2;137;2,08505727350712E-07;-2,15128399431705E-07;100 nA
-0,90087890625;76,0131848080852;-1,3543701171875E-08;-0,8984375;2;138;2,08505727350712E-07;-2,15128399431705E-07;100 nA
-0,950927734375;76,5136728068215;-1,36993408203125E-08;-0,9490966796875;2;139;2,08505727350712E-07;-2,15128399431705E-07;100 nA
-1,0009765625;77,0141608055579;-1,39129638671875E-08;-0,9991455078125;2;140;2,08505727350712E-07;-2,15128399431705E-07;100 nA
-0,950927734375;77,5146488042943;-9,8785400390625E-09;-0,948486328125;2;141;2,08505727350712E-07;-2,15128399431705E-07;100 nA
-0,90087890625;78,0151368030307;-7,3211669921875E-09;-0,89874267578125;2;142;2,08505727350712E-07;-2,15128399431705E-07;100 nA
-0,850830078125;78,5156248017671;-5,4229736328125E-09;-0,84869384765625;2;143;2,08505727350712E-07;-2,15128399431705E-07;100 nA
-0,80078125;79,0161128005035;-3,900146484375E-09;-0,79833984375;2;144;2,08505727350712E-07;-2,15128399431705E-07;100 nA
-0,750732421875;79,5166007992399;-2,57568359375E-09;-0,7486572265625;2;145;2,08505727350712E-07;-2,15128399431705E-07;100 nA
-0,70068359375;80,0170887979763;-1,4007568359375E-09;-0,6986083984375;2;146;2,08505727350712E-07;-2,15128399431705E-07;100 nA
-0,650634765625;80,5175767967127;-2,716064453125E-10;-0,648712158203125;2;147;2,08505727350712E-07;-2,15128399431705E-07;100 nA
-0,6005859375;81,0180647954491;8,30078125E-10;-0,59869384765625;2;148;2,08505727350712E-07;-2,15128399431705E-07;100 nA
-0,550537109375;81,5185527941854;1,953125E-09;-0,548828125;2;149;2,08505727350712E-07;-2,15128399431705E-07;100 nA
-0,50048828125;82,0190407929218;2,972412109375E-09;-0,498931884765625;2;150;2,08505727350712E-07;-2,15128399431705E-07;100 nA
-0,450439453125;82,5195287916582;3,8482666015625E-09;-0,4490966796875;2;151;2,08505727350712E-07;-2,15128399431705E-07;100 nA
-0,400390625;83,0200167903946;4,58984375E-09;-0,39910888671875;2;152;2,08505727350712E-07;-2,15128399431705E-07;100 nA
-0,350341796875;83,520504789131;5,194091796875E-09;-0,349212646484375;2;153;2,08505727350712E-07;-2,15128399431705E-07;100 nA
-0,30029296875;84,0209927878674;5,8197021484375E-09;-0,29931640625;2;154;2,08505727350712E-07;-2,15128399431705E-07;100 nA
-0,250244140625;84,5214807866038;6,4483642578125E-09;-0,249420166015625;2;155;2,08505727350712E-07;-2,15128399431705E-07;100 nA
-0,2001953125;85,0219687853402;7,244873046875E-09;-0,19952392578125;2;156;2,08505727350712E-07;-2,15128399431705E-07;100 nA
-0,150146484375;85,5224567840766;8,3404541015625E-09;-0,149658203125;2;157;2,08505727350712E-07;-2,15128399431705E-07;100 nA
-0,10009765625;86,0229447828129;9,68017578125E-09;-0,0997314453125;2;158;2,08505727350712E-07;-2,15128399431705E-07;100 nA
-0,050048828125;86,5234327815493;1,11053466796875E-08;-0,04986572265625;2;159;2,08505727350712E-07;-2,15128399431705E-07;100 nA
0;87,0239207802857;1,265869140625E-08;8,23974609374944E-05;2;160;2,08505727350712E-07;-2,15128399431705E-07;100 nA
0,050048828125;87,5244087790221;1,42730712890625E-08;0,050048828125;3;161;2,11635306477547E-07;-2,13836245238781E-07;100 nA
0,10009765625;88,0248967777585;1,5460205078125E-08;0,0999755859375;3;162;2,11635306477547E-07;-2,13836245238781E-07;100 nA
0,150146484375;88,5253847764949;1,56494140625E-08;0,150054931640625;3;163;2,11635306477547E-07;-2,13836245238781E-07;100 nA
0,2001953125;89,0258727752313;1,4569091796875E-08;0,200042724609375;3;164;2,11635306477547E-07;-2,13836245238781E-07;100 nA
0,250244140625;89,5263607739677;1,326904296875E-08;0,250030517578125;3;165;2,11635306477547E-07;-2,13836245238781E-07;100 nA
0,30029296875;90,0268487727041;1,298828125E-08;0,300048828125;3;166;2,11635306477547E-07;-2,13836245238781E-07;100 nA
0,350341796875;90,5273367714404;1,30462646484375E-08;0,35009765625;3;167;2,11635306477547E-07;-2,13836245238781E-07;100 nA
0,400390625;91,0278247701768;1,31744384765625E-08;0,400054931640625;3;168;2,11635306477547E-07;-2,13836245238781E-07;100 nA
0,450439453125;91,5283127689132;1,33514404296875E-08;0,4500732421875;3;169;2,11635306477547E-07;-2,13836245238781E-07;100 nA
0,50048828125;92,0288007676496;1,36260986328125E-08;0,5001220703125;3;170;2,11635306477547E-07;-2,13836245238781E-07;100 nA
0,550537109375;92,529288766386;1,39617919921875E-08;0,55010986328125;3;171;2,11635306477547E-07;-2,13836245238781E-07;100 nA
0,6005859375;93,0297767651224;1,4306640625E-08;0,60009765625;3;172;2,11635306477547E-07;-2,13836245238781E-07;100 nA
0,650634765625;93,5302647638588;1,45843505859375E-08;0,649932861328125;3;173;2,11635306477547E-07;-2,13836245238781E-07;100 nA
0,70068359375;94,0307527625952;1,4739990234375E-08;0,699981689453125;3;174;2,11635306477547E-07;-2,13836245238781E-07;100 nA
0,750732421875;94,5312407613316;1,4923095703125E-08;0,749847412109375;3;175;2,11635306477547E-07;-2,13836245238781E-07;100 nA
0,80078125;95,0317287600679;1,5081787109375E-08;0,79986572265625;3;176;2,11635306477547E-07;-2,13836245238781E-07;100 nA
0,850830078125;95,5322167588043;1,52099609375E-08;0,8502197265625;3;177;2,11635306477547E-07;-2,13836245238781E-07;100 nA
0,90087890625;96,0327047575407;1,5386962890625E-08;0,89996337890625;3;178;2,11635306477547E-07;-2,13836245238781E-07;100 nA
0,950927734375;96,5331927562771;1,56463623046875E-08;0,94940185546875;3;179;2,11635306477547E-07;-2,13836245238781E-07;100 nA
1,0009765625;97,0336807550135;1,5936279296875E-08;0,999755859375;3;180;2,11635306477547E-07;-2,13836245238781E-07;100 nA
0,950927734375;97,5341687537499;1,2432861328125E-08;0,94970703125;3;181;2,11635306477547E-07;-2,13836245238781E-07;100 nA
0,90087890625;98,0346567524863;1,0101318359375E-08;0,899658203125;3;182;2,11635306477547E-07;-2,13836245238781E-07;100 nA
0,850830078125;98,5351447512227;8,2366943359375E-09;0,84991455078125;3;183;2,11635306477547E-07;-2,13836245238781E-07;100 nA
0,80078125;99,0356327499591;6,7138671875E-09;0,80047607421875;3;184;2,11635306477547E-07;-2,13836245238781E-07;100 nA
0,750732421875;99,5361207486955;5,3192138671875E-09;0,75;3;185;2,11635306477547E-07;-2,13836245238781E-07;100 nA
0,70068359375;100,036608747432;4,00390625E-09;0,699951171875;3;186;2,11635306477547E-07;-2,13836245238781E-07;100 nA
0,650634765625;100,537096746168;2,7374267578125E-09;0,650054931640625;3;187;2,11635306477547E-07;-2,13836245238781E-07;100 nA
0,6005859375;101,037584744905;1,544189453125E-09;0,6002197265625;3;188;2,11635306477547E-07;-2,13836245238781E-07;100 nA
0,550537109375;101,538072743641;3,753662109375E-10;0,550140380859375;3;189;2,11635306477547E-07;-2,13836245238781E-07;100 nA
0,50048828125;102,038560742377;-7,110595703125E-10;0,50018310546875;3;190;2,11635306477547E-07;-2,13836245238781E-07;100 nA
0,450439453125;102,539048741114;-1,7120361328125E-09;0,4501953125;3;191;2,11635306477547E-07;-2,13836245238781E-07;100 nA
0,400390625;103,03953673985;-2,7008056640625E-09;0,40020751953125;3;192;2,11635306477547E-07;-2,13836245238781E-07;100 nA
0,350341796875;103,540024738587;-3,6956787109375E-09;0,350189208984375;3;193;2,11635306477547E-07;-2,13836245238781E-07;100 nA
0,30029296875;104,040512737323;-4,6356201171875E-09;0,300140380859375;3;194;2,11635306477547E-07;-2,13836245238781E-07;100 nA
0,250244140625;104,541000736059;-5,487060546875E-09;0,250213623046875;3;195;2,11635306477547E-07;-2,13836245238781E-07;100 nA
0,2001953125;105,041488734796;-6,3568115234375E-09;0,2001953125;3;196;2,11635306477547E-07;-2,13836245238781E-07;100 nA
0,150146484375;105,541976733532;-7,3577880859375E-09;0,150115966796875;3;197;2,11635306477547E-07;-2,13836245238781E-07;100 nA
0,10009765625;106,042464732269;-8,7554931640625E-09;0,100128173828125;3;198;2,11635306477547E-07;-2,13836245238781E-07;100 nA
0,050048828125;106,542952731005;-1,0870361328125E-08;0,0501708984375;3;199;2,11635306477547E-07;-2,13836245238781E-07;100 nA
0;107,043440729741;-1,3604736328125E-08;0,0001678466796875;3;200;2,11635306477547E-07;-2,13836245238781E-07;100 nA
-0,050048828125;107,543928728478;-1,572265625E-08;-0,0497161865234375;3;201;2,11635306477547E-07;-2,13836245238781E-07;100 nA
-0,10009765625;108,044416727214;-1,68853759765625E-08;-0,099700927734375;3;202;2,11635306477547E-07;-2,13836245238781E-07;100 nA
-0,150146484375;108,54490472595;-1,77398681640625E-08;-0,149566650390625;3;203;2,11635306477547E-07;-2,13836245238781E-07;100 nA
-0,2001953125;109,045392724687;-1,85302734375E-08;-0,19940185546875;3;204;2,11635306477547E-07;-2,13836245238781E-07;100 nA
-0,250244140625;109,545880723423;-1,91650390625E-08;-0,2493896484375;3;205;2,11635306477547E-07;-2,13836245238781E-07;100 nA
-0,30029296875;110,04636872216;-1,976318359375E-08;-0,2991943359375;3;206;2,11635306477547E-07;-2,13836245238781E-07;100 nA
-0,350341796875;110,546856720896;-2,0391845703125E-08;-0,34918212890625;3;207;2,11635306477547E-07;-2,13836245238781E-07;100 nA
-0,400390625;111,047344719632;-2,0855712890625E-08;-0,399139404296875;3;208;2,11635306477547E-07;-2,13836245238781E-07;100 nA
-0,450439453125;111,547832718369;-2,1014404296875E-08;-0,448944091796875;3;209;2,11635306477547E-07;-2,13836245238781E-07;100 nA
-0,50048828125;112,048320717105;-2,0233154296875E-08;-0,498870849609375;3;210;2,11635306477547E-07;-2,13836245238781E-07;100 nA
-0,550537109375;112,548808715842;-1,6571044921875E-08;-0,548736572265625;3;211;2,11635306477547E-07;-2,13836245238781E-07;100 nA
-0,6005859375;113,049296714578;-1,4910888671875E-08;-0,598663330078125;3;212;2,11635306477547E-07;-2,13836245238781E-07;100 nA
-0,650634765625;113,549784713314;-1,4569091796875E-08;-0,648590087890625;3;213;2,11635306477547E-07;-2,13836245238781E-07;100 nA
-0,70068359375;114,050272712051;-1,409912109375E-08;-0,698577880859375;3;214;2,11635306477547E-07;-2,13836245238781E-07;100 nA
-0,750732421875;114,550760710787;-1,3671875E-08;-0,748626708984375;3;215;2,11635306477547E-07;-2,13836245238781E-07;100 nA
-0,80078125;115,051248709524;-1,343994140625E-08;-0,79864501953125;3;216;2,11635306477547E-07;-2,13836245238781E-07;100 nA
-0,850830078125;115,55173670826;-1,3385009765625E-08;-0,8489990234375;3;217;2,11635306477547E-07;-2,13836245238781E-07;100 nA
-0,90087890625;116,052224706996;-1,33941650390625E-08;-0,8990478515625;3;218;2,11635306477547E-07;-2,13836245238781E-07;100 nA
-0,950927734375;116,552712705733;-1,346435546875E-08;-0,948486328125;3;219;2,11635306477547E-07;-2,13836245238781E-07;100 nA
-1,0009765625;117,053200704469;-1,3616943359375E-08;-0,9991455078125;3;220;2,11635306477547E-07;-2,13836245238781E-07;100 nA
-0,950927734375;117,553688703205;-9,66796875E-09;-0,948486328125;3;221;2,11635306477547E-07;-2,13836245238781E-07;100 nA
-0,90087890625;118,054176701942;-7,1929931640625E-09;-0,8984375;3;222;2,11635306477547E-07;-2,13836245238781E-07;100 nA
-0,850830078125;118,554664700678;-5,303955078125E-09;-0,848388671875;3;223;2,11635306477547E-07;-2,13836245238781E-07;100 nA
-0,80078125;119,055152699415;-3,7811279296875E-09;-0,7989501953125;3;224;2,11635306477547E-07;-2,13836245238781E-07;100 nA
-0,750732421875;119,555640698151;-2,4749755859375E-09;-0,748626708984375;3;225;2,11635306477547E-07;-2,13836245238781E-07;100 nA
-0,70068359375;120,056128696887;-1,312255859375E-09;-0,6986083984375;3;226;2,11635306477547E-07;-2,13836245238781E-07;100 nA
-0,650634765625;120,556616695624;-2,105712890625E-10;-0,648651123046875;3;227;2,11635306477547E-07;-2,13836245238781E-07;100 nA
-0,6005859375;121,05710469436;8,819580078125E-10;-0,598724365234375;3;228;2,11635306477547E-07;-2,13836245238781E-07;100 nA
-0,550537109375;121,557592693097;2,008056640625E-09;-0,54876708984375;3;229;2,11635306477547E-07;-2,13836245238781E-07;100 nA
-0,50048828125;122,058080691833;3,094482421875E-09;-0,498870849609375;3;230;2,11635306477547E-07;-2,13836245238781E-07;100 nA
-0,450439453125;122,558568690569;3,9276123046875E-09;-0,448974609375;3;231;2,11635306477547E-07;-2,13836245238781E-07;100 nA
-0,400390625;123,059056689306;4,6875E-09;-0,39910888671875;3;232;2,11635306477547E-07;-2,13836245238781E-07;100 nA
-0,350341796875;123,559544688042;5,352783203125E-09;-0,3492431640625;3;233;2,11635306477547E-07;-2,13836245238781E-07;100 nA
-0,30029296875;124,060032686779;5,9478759765625E-09;-0,299346923828125;3;234;2,11635306477547E-07;-2,13836245238781E-07;100 nA
-0,250244140625;124,560520685515;6,5673828125E-09;-0,249359130859375;3;235;2,11635306477547E-07;-2,13836245238781E-07;100 nA
-0,2001953125;125,061008684251;7,36083984375E-09;-0,19952392578125;3;236;2,11635306477547E-07;-2,13836245238781E-07;100 nA
-0,150146484375;125,561496682988;8,4716796875E-09;-0,149658203125;3;237;2,11635306477547E-07;-2,13836245238781E-07;100 nA
-0,10009765625;126,061984681724;9,8297119140625E-09;-0,099700927734375;3;238;2,11635306477547E-07;-2,13836245238781E-07;100 nA
-0,050048828125;126,56247268046;1,13006591796875E-08;-0,049774169921875;3;239;2,11635306477547E-07;-2,13836245238781E-07;100 nA
0;127,062960679197;1,27777099609375E-08;9,1552734375E-05;3;240;2,11635306477547E-07;-2,13836245238781E-07;100 nA
0,050048828125;127,563448677933;1,43707275390625E-08;0,050048828125;4;241;2,10796780884266E-07;-2,12131701409817E-07;100 nA
0,10009765625;128,06393667667;1,55975341796875E-08;0,10003662109375;4;242;2,10796780884266E-07;-2,12131701409817E-07;100 nA
0,150146484375;128,564424675406;1,57257080078125E-08;0,150054931640625;4;243;2,10796780884266E-07;-2,12131701409817E-07;100 nA
0,2001953125;129,064912674142;1,4654541015625E-08;0,2000732421875;4;244;2,10796780884266E-07;-2,12131701409817E-07;100 nA
0,250244140625;129,565400672879;1,337890625E-08;0,250091552734375;4;245;2,10796780884266E-07;-2,12131701409817E-07;100 nA
0,30029296875;130,065888671615;1,30828857421875E-08;0,300048828125;4;246;2,10796780884266E-07;-2,12131701409817E-07;100 nA
0,350341796875;130,566376670352;1,31072998046875E-08;0,350067138671875;4;247;2,10796780884266E-07;-2,12131701409817E-07;100 nA
0,400390625;131,066864669088;1,31988525390625E-08;0,400054931640625;4;248;2,10796780884266E-07;-2,12131701409817E-07;100 nA
0,450439453125;131,567352667824;1,3360595703125E-08;0,450042724609375;4;249;2,10796780884266E-07;-2,12131701409817E-07;100 nA
0,50048828125;132,067840666561;1,363525390625E-08;0,500030517578125;4;250;2,10796780884266E-07;-2,12131701409817E-07;100 nA
0,550537109375;132,568328665297;1,39495849609375E-08;0,550048828125;4;251;2,10796780884266E-07;-2,12131701409817E-07;100 nA
0,6005859375;133,068816664034;1,4300537109375E-08;0,600128173828125;4;252;2,10796780884266E-07;-2,12131701409817E-07;100 nA
0,650634765625;133,56930466277;1,45294189453125E-08;0,649993896484375;4;253;2,10796780884266E-07;-2,12131701409817E-07;100 nA
0,70068359375;134,069792661506;1,4703369140625E-08;0,699951171875;4;254;2,10796780884266E-07;-2,12131701409817E-07;100 nA
0,750732421875;134,570280660243;1,4813232421875E-08;0,749786376953125;4;255;2,10796780884266E-07;-2,12131701409817E-07;100 nA
0,80078125;135,070768658979;1,49139404296875E-08;0,79986572265625;4;256;2,10796780884266E-07;-2,12131701409817E-07;100 nA
0,850830078125;135,571256657715;1,5057373046875E-08;0,849609375;4;257;2,10796780884266E-07;-2,12131701409817E-07;100 nA
0,90087890625;136,071744656452;1,52679443359375E-08;0,899658203125;4;258;2,10796780884266E-07;-2,12131701409817E-07;100 nA
0,950927734375;136,572232655188;1,553955078125E-08;0,95001220703125;4;259;2,10796780884266E-07;-2,12131701409817E-07;100 nA
1,0009765625;137,072720653925;1,580810546875E-08;0,999755859375;4;260;2,10796780884266E-07;-2,12131701409817E-07;100 nA
0,950927734375;137,573208652661;1,23382568359375E-08;0,94970703125;4;261;2,10796780884266E-07;-2,12131701409817E-07;100 nA
0,90087890625;138,073696651397;9,9945068359375E-09;0,899658203125;4;262;2,10796780884266E-07;-2,12131701409817E-07;100 nA
0,850830078125;138,574184650134;8,1817626953125E-09;0,8502197265625;4;263;2,10796780884266E-07;-2,12131701409817E-07;100 nA
0,80078125;139,07467264887;6,640625E-09;0,79986572265625;4;264;2,10796780884266E-07;-2,12131701409817E-07;100 nA
0,750732421875;139,575160647607;5,316162109375E-09;0,749908447265625;4;265;2,10796780884266E-07;-2,12131701409817E-07;100 nA
0,70068359375;140,075648646343;4,022216796875E-09;0,70001220703125;4;266;2,10796780884266E-07;-2,12131701409817E-07;100 nA
0,650634765625;140,576136645079;2,7801513671875E-09;0,65008544921875;4;267;2,10796780884266E-07;-2,12131701409817E-07;100 nA
0,6005859375;141,076624643816;1,5533447265625E-09;0,600128173828125;4;268;2,10796780884266E-07;-2,12131701409817E-07;100 nA
0,550537109375;141,577112642552;3,692626953125E-10;0,5501708984375;4;269;2,10796780884266E-07;-2,12131701409817E-07;100 nA
0,50048828125;142,077600641289;-7,2021484375E-10;0,50018310546875;4;270;2,10796780884266E-07;-2,12131701409817E-07;100 nA
0,450439453125;142,578088640025;-1,739501953125E-09;0,450225830078125;4;271;2,10796780884266E-07;-2,12131701409817E-07;100 nA
0,400390625;143,078576638761;-2,703857421875E-09;0,40020751953125;4;272;2,10796780884266E-07;-2,12131701409817E-07;100 nA
0,350341796875;143,579064637498;-3,662109375E-09;0,350128173828125;4;273;2,10796780884266E-07;-2,12131701409817E-07;100 nA
0,30029296875;144,079552636234;-4,5745849609375E-09;0,300140380859375;4;274;2,10796780884266E-07;-2,12131701409817E-07;100 nA
0,250244140625;144,58004063497;-5,462646484375E-09;0,25018310546875;4;275;2,10796780884266E-07;-2,12131701409817E-07;100 nA
0,2001953125;145,080528633707;-6,35986328125E-09;0,20013427734375;4;276;2,10796780884266E-07;-2,12131701409817E-07;100 nA
0,150146484375;145,581016632443;-7,3516845703125E-09;0,150177001953125;4;277;2,10796780884266E-07;-2,12131701409817E-07;100 nA
0,10009765625;146,08150463118;-8,7249755859375E-09;0,10015869140625;4;278;2,10796780884266E-07;-2,12131701409817E-07;100 nA
0,050048828125;146,581992629916;-1,08001708984375E-08;0,050140380859375;4;279;2,10796780884266E-07;-2,12131701409817E-07;100 nA
0;147,082480628652;-1,3555908203125E-08;0,000173950195312494;4;280;2,10796780884266E-07;-2,12131701409817E-07;100 nA
-0,050048828125;147,582968627389;-1,5728759765625E-08;-0,04974365234375;4;281;2,10796780884266E-07;-2,12131701409817E-07;100 nA
-0,10009765625;148,083456626125;-1,69189453125E-08;-0,099639892578125;4;282;2,10796780884266E-07;-2,12131701409817E-07;100 nA
-0,150146484375;148,583944624862;-1,77642822265625E-08;-0,1495361328125;4;283;2,10796780884266E-07;-2,12131701409817E-07;100 nA
-0,2001953125;149,084432623598;-1,85455322265625E-08;-0,19940185546875;4;284;2,10796780884266E-07;-2,12131701409817E-07;100 nA
-0,250244140625;149,584920622334;-1,92047119140625E-08;-0,249298095703125;4;285;2,10796780884266E-07;-2,12131701409817E-07;100 nA
-0,30029296875;150,085408621071;-1,98028564453125E-08;-0,299285888671875;4;286;2,10796780884266E-07;-2,12131701409817E-07;100 nA
-0,350341796875;150,585896619807;-2,041015625E-08;-0,34912109375;4;287;2,10796780884266E-07;-2,12131701409817E-07;100 nA
-0,400390625;151,086384618544;-2,08648681640625E-08;-0,399078369140625;4;288;2,10796780884266E-07;-2,12131701409817E-07;100 nA
-0,450439453125;151,58687261728;-2,09808349609375E-08;-0,448944091796875;4;289;2,10796780884266E-07;-2,12131701409817E-07;100 nA
-0,50048828125;152,087360616016;-2,01080322265625E-08;-0,498931884765625;4;290;2,10796780884266E-07;-2,12131701409817E-07;100 nA
-0,550537109375;152,587848614753;-1,63055419921875E-08;-0,548797607421875;4;291;2,10796780884266E-07;-2,12131701409817E-07;100 nA
-0,6005859375;153,088336613489;-1,48162841796875E-08;-0,598663330078125;4;292;2,10796780884266E-07;-2,12131701409817E-07;100 nA
-0,650634765625;153,588824612225;-1,4453125E-08;-0,64862060546875;4;293;2,10796780884266E-07;-2,12131701409817E-07;100 nA
-0,70068359375;154,089312610962;-1,39892578125E-08;-0,698638916015625;4;294;2,10796780884266E-07;-2,12131701409817E-07;100 nA
-0,750732421875;154,589800609698;-1,35009765625E-08;-0,748626708984375;4;295;2,10796780884266E-07;-2,12131701409817E-07;100 nA
-0,80078125;155,090288608435;-1,3250732421875E-08;-0,79833984375;4;296;2,10796780884266E-07;-2,12131701409817E-07;100 nA
-0,850830078125;155,590776607171;-1,31591796875E-08;-0,8489990234375;4;297;2,10796780884266E-07;-2,12131701409817E-07;100 nA
-0,90087890625;156,091264605907;-1,31195068359375E-08;-0,89935302734375;4;298;2,10796780884266E-07;-2,12131701409817E-07;100 nA
-0,950927734375;156,591752604644;-1,3104248046875E-08;-0,948486328125;4;299;2,10796780884266E-07;-2,12131701409817E-07;100 nA
-1,0009765625;157,09224060338;-1,3262939453125E-08;-0,99853515625;4;300;2,10796780884266E-07;-2,12131701409817E-07;100 nA
-0,950927734375;157,592728602117;-9,405517578125E-09;-0,948486328125;4;301;2,10796780884266E-07;-2,12131701409817E-07;100 nA
-0,90087890625;158,093216600853;-6,9671630859375E-09;-0,8984375;4;302;2,10796780884266E-07;-2,12131701409817E-07;100 nA
-0,850830078125;158,593704599589;-5,1513671875E-09;-0,84869384765625;4;303;2,10796780884266E-07;-2,12131701409817E-07;100 nA
-0,80078125;159,094192598326;-3,6529541015625E-09;-0,79803466796875;4;304;2,10796780884266E-07;-2,12131701409817E-07;100 nA
-0,750732421875;159,594680597062;-2,3529052734375E-09;-0,748626708984375;4;305;2,10796780884266E-07;-2,12131701409817E-07;100 nA
-0,70068359375;160,095168595799;-1,1962890625E-09;-0,698577880859375;4;306;2,10796780884266E-07;-2,12131701409817E-07;100 nA
-0,650634765625;160,595656594535;-1,77001953125E-10;-0,648681640625;4;307;2,10796780884266E-07;-2,12131701409817E-07;100 nA
-0,6005859375;161,096144593271;8,72802734375E-10;-0,598724365234375;4;308;2,10796780884266E-07;-2,12131701409817E-07;100 nA
-0,550537109375;161,596632592008;1,9989013671875E-09;-0,548797607421875;4;309;2,10796780884266E-07;-2,12131701409817E-07;100 nA
-0,50048828125;162,097120590744;2,996826171875E-09;-0,49884033203125;4;310;2,10796780884266E-07;-2,12131701409817E-07;100 nA
-0,450439453125;162,597608589481;3,89404296875E-09;-0,44903564453125;4;311;2,10796780884266E-07;-2,12131701409817E-07;100 nA
-0,400390625;163,098096588217;4,632568359375E-09;-0,399200439453125;4;312;2,10796780884266E-07;-2,12131701409817E-07;100 nA
-0,350341796875;163,598584586953;5,28564453125E-09;-0,349273681640625;4;313;2,10796780884266E-07;-2,12131701409817E-07;100 nA
-0,30029296875;164,09907258569;5,8624267578125E-09;-0,299346923828125;4;314;2,10796780884266E-07;-2,12131701409817E-07;100 nA
-0,250244140625;164,599560584426;6,48193359375E-09;-0,24945068359375;4;315;2,10796780884266E-07;-2,12131701409817E-07;100 nA
-0,2001953125;165,100048583162;7,2662353515625E-09;-0,199493408203125;4;316;2,10796780884266E-07;-2,12131701409817E-07;100 nA
-0,150146484375;165,600536581899;8,31298828125E-09;-0,149658203125;4;317;2,10796780884266E-07;-2,12131701409817E-07;100 nA
-0,10009765625;166,101024580635;9,6588134765625E-09;-0,099700927734375;4;318;2,10796780884266E-07;-2,12131701409817E-07;100 nA
-0,050048828125;166,601512579372;1,1102294921875E-08;-0,04986572265625;4;319;2,10796780884266E-07;-2,12131701409817E-07;100 nA
0;167,102000578108;1,26251220703125E-08;9,1552734375E-05;4;320;2,10796780884266E-07;-2,12131701409817E-07;100 nA
0,050048828125;167,602488576844;1,422119140625E-08;0,04998779296875;5;321;2,10767760872841E-07;-2,11122110486031E-07;100 nA
0,10009765625;168,102976575581;1,54571533203125E-08;0,0999755859375;5;322;2,10767760872841E-07;-2,11122110486031E-07;100 nA
0,150146484375;168,603464574317;1,5618896484375E-08;0,149993896484375;5;323;2,10767760872841E-07;-2,11122110486031E-07;100 nA
0,2001953125;169,103952573054;1,45843505859375E-08;0,20001220703125;5;324;2,10767760872841E-07;-2,11122110486031E-07;100 nA
0,250244140625;169,60444057179;1,33575439453125E-08;0,25006103515625;5;325;2,10767760872841E-07;-2,11122110486031E-07;100 nA
0,30029296875;170,104928570526;1,30950927734375E-08;0,300079345703125;5;326;2,10767760872841E-07;-2,11122110486031E-07;100 nA
0,350341796875;170,605416569263;1,31378173828125E-08;0,350128173828125;5;327;2,10767760872841E-07;-2,11122110486031E-07;100 nA
0,400390625;171,105904567999;1,3262939453125E-08;0,400146484375;5;328;2,10767760872841E-07;-2,11122110486031E-07;100 nA
0,450439453125;171,606392566736;1,34307861328125E-08;0,450103759765625;5;329;2,10767760872841E-07;-2,11122110486031E-07;100 nA
0,50048828125;172,106880565472;1,36962890625E-08;0,5001220703125;5;330;2,10767760872841E-07;-2,11122110486031E-07;100 nA
0,550537109375;172,607368564208;1,40533447265625E-08;0,550140380859375;5;331;2,10767760872841E-07;-2,11122110486031E-07;100 nA
0,6005859375;173,107856562945;1,44134521484375E-08;0,600067138671875;5;332;2,10767760872841E-07;-2,11122110486031E-07;100 nA
0,650634765625;173,608344561681;1,4630126953125E-08;0,650054931640625;5;333;2,10767760872841E-07;-2,11122110486031E-07;100 nA
0,70068359375;174,108832560417;1,474609375E-08;0,699920654296875;5;334;2,10767760872841E-07;-2,11122110486031E-07;100 nA
0,750732421875;174,609320559154;1,4892578125E-08;0,7498779296875;5;335;2,10767760872841E-07;-2,11122110486031E-07;100 nA
0,80078125;175,10980855789;1,4996337890625E-08;0,799560546875;5;336;2,10767760872841E-07;-2,11122110486031E-07;100 nA
0,850830078125;175,610296556627;1,51397705078125E-08;0,84991455078125;5;337;2,10767760872841E-07;-2,11122110486031E-07;100 nA
0,90087890625;176,110784555363;1,53289794921875E-08;0,8990478515625;5;338;2,10767760872841E-07;-2,11122110486031E-07;100 nA
0,950927734375;176,611272554099;1,552734375E-08;0,94970703125;5;339;2,10767760872841E-07;-2,11122110486031E-07;100 nA
1,0009765625;177,111760552836;1,585693359375E-08;0,99945068359375;5;340;2,10767760872841E-07;-2,11122110486031E-07;100 nA
0,950927734375;177,612248551572;1,23291015625E-08;0,94970703125;5;341;2,10767760872841E-07;-2,11122110486031E-07;100 nA
0,90087890625;178,112736550309;9,9884033203125E-09;0,9002685546875;5;342;2,10767760872841E-07;-2,11122110486031E-07;100 nA
0,850830078125;178,613224549045;8,1298828125E-09;0,84930419921875;5;343;2,10767760872841E-07;-2,11122110486031E-07;100 nA
0,80078125;179,113712547781;6,5887451171875E-09;0,8001708984375;5;344;2,10767760872841E-07;-2,11122110486031E-07;100 nA
0,750732421875;179,614200546518;5,18798828125E-09;0,74981689453125;5;345;2,10767760872841E-07;-2,11122110486031E-07;100 nA
0,70068359375;180,114688545254;3,8970947265625E-09;0,699951171875;5;346;2,10767760872841E-07;-2,11122110486031E-07;100 nA
0,650634765625;180,615176543991;2,630615234375E-09;0,6500244140625;5;347;2,10767760872841E-07;-2,11122110486031E-07;100 nA
0,6005859375;181,115664542727;1,446533203125E-09;0,600067138671875;5;348;2,10767760872841E-07;-2,11122110486031E-07;100 nA
0,550537109375;181,616152541463;2,99072265625E-10;0,55010986328125;5;349;2,10767760872841E-07;-2,11122110486031E-07;100 nA
0,50048828125;182,1166405402;-7,62939453125E-10;0,500152587890625;5;350;2,10767760872841E-07;-2,11122110486031E-07;100 nA
0,450439453125;182,617128538936;-1,7852783203125E-09;0,450225830078125;5;351;2,10767760872841E-07;-2,11122110486031E-07;100 nA
0,400390625;183,117616537672;-2,7740478515625E-09;0,400238037109375;5;352;2,10767760872841E-07;-2,11122110486031E-07;100 nA
0,350341796875;183,618104536409;-3,72314453125E-09;0,350128173828125;5;353;2,10767760872841E-07;-2,11122110486031E-07;100 nA
0,30029296875;184,118592535145;-4,583740234375E-09;0,30010986328125;5;354;2,10767760872841E-07;-2,11122110486031E-07;100 nA
0,250244140625;184,619080533882;-5,413818359375E-09;0,250152587890625;5;355;2,10767760872841E-07;-2,11122110486031E-07;100 nA
0,2001953125;185,119568532618;-6,298828125E-09;0,200164794921875;5;356;2,10767760872841E-07;-2,11122110486031E-07;100 nA
0,150146484375;185,620056531354;-7,2906494140625E-09;0,15008544921875;5;357;2,10767760872841E-07;-2,11122110486031E-07;100 nA
0,10009765625;186,120544530091;-8,673095703125E-09;0,100128173828125;5;358;2,10767760872841E-07;-2,11122110486031E-07;100 nA
0,050048828125;186,621032528827;-1,06964111328125E-08;0,050140380859375;5;359;2,10767760872841E-07;-2,11122110486031E-07;100 nA
0;187,121520527564;-1,3409423828125E-08;0,000173950195312494;5;360;2,10767760872841E-07;-2,11122110486031E-07;100 nA
-0,050048828125;187,6220085263;-1,56341552734375E-08;-0,0496826171875;5;361;2,10767760872841E-07;-2,11122110486031E-07;100 nA
-0,10009765625;188,122496525036;-1,68731689453125E-08;-0,099639892578125;5;362;2,10767760872841E-07;-2,11122110486031E-07;100 nA
-0,150146484375;188,622984523773;-1,7706298828125E-08;-0,1495361328125;5;363;2,10767760872841E-07;-2,11122110486031E-07;100 nA
-0,2001953125;189,123472522509;-1,851806640625E-08;-0,199462890625;5;364;2,10767760872841E-07;-2,11122110486031E-07;100 nA
-0,250244140625;189,623960521246;-1,91497802734375E-08;-0,249359130859375;5;365;2,10767760872841E-07;-2,11122110486031E-07;100 nA
-0,30029296875;190,124448519982;-1,97418212890625E-08;-0,2991943359375;5;366;2,10767760872841E-07;-2,11122110486031E-07;100 nA
-0,350341796875;190,624936518718;-2,03521728515625E-08;-0,34918212890625;5;367;2,10767760872841E-07;-2,11122110486031E-07;100 nA
-0,400390625;191,125424517455;-2,08221435546875E-08;-0,39898681640625;5;368;2,10767760872841E-07;-2,11122110486031E-07;100 nA
-0,450439453125;191,625912516191;-2,08831787109375E-08;-0,449005126953125;5;369;2,10767760872841E-07;-2,11122110486031E-07;100 nA
-0,50048828125;192,126400514927;-1,99005126953125E-08;-0,498809814453125;5;370;2,10767760872841E-07;-2,11122110486031E-07;100 nA
-0,550537109375;192,626888513664;-1,600341796875E-08;-0,54876708984375;5;371;2,10767760872841E-07;-2,11122110486031E-07;100 nA
-0,6005859375;193,1273765124;-1,47308349609375E-08;-0,59869384765625;5;372;2,10767760872841E-07;-2,11122110486031E-07;100 nA
-0,650634765625;193,627864511137;-1,43524169921875E-08;-0,648590087890625;5;373;2,10767760872841E-07;-2,11122110486031E-07;100 nA
-0,70068359375;194,128352509873;-1,3934326171875E-08;-0,698638916015625;5;374;2,10767760872841E-07;-2,11122110486031E-07;100 nA
-0,750732421875;194,628840508609;-1,3446044921875E-08;-0,748565673828125;5;375;2,10767760872841E-07;-2,11122110486031E-07;100 nA
-0,80078125;195,129328507346;-1,32080078125E-08;-0,7989501953125;5;376;2,10767760872841E-07;-2,11122110486031E-07;100 nA
-0,850830078125;195,629816506082;-1,30828857421875E-08;-0,84869384765625;5;377;2,10767760872841E-07;-2,11122110486031E-07;100 nA
-0,90087890625;196,130304504819;-1,300048828125E-08;-0,89874267578125;5;378;2,10767760872841E-07;-2,11122110486031E-07;100 nA
-0,950927734375;196,630792503555;-1,302490234375E-08;-0,94879150390625;5;379;2,10767760872841E-07;-2,11122110486031E-07;100 nA
-1,0009765625;197,131280502291;-1,3201904296875E-08;-0,99884033203125;5;380;2,10767760872841E-07;-2,11122110486031E-07;100 nA
-0,950927734375;197,631768501028;-9,4024658203125E-09;-0,948486328125;5;381;2,10767760872841E-07;-2,11122110486031E-07;100 nA
-0,90087890625;198,132256499764;-6,9793701171875E-09;-0,8984375;5;382;2,10767760872841E-07;-2,11122110486031E-07;100 nA
-0,850830078125;198,632744498501;-5,145263671875E-09;-0,8489990234375;5;383;2,10767760872841E-07;-2,11122110486031E-07;100 nA
-0,80078125;199,133232497237;-3,6163330078125E-09;-0,79864501953125;5;384;2,10767760872841E-07;-2,11122110486031E-07;100 nA
-0,750732421875;199,633720495973;-2,349853515625E-09;-0,7486572265625;5;385;2,10767760872841E-07;-2,11122110486031E-07;100 nA
-0,70068359375;200,13420849471;-1,214599609375E-09;-0,69866943359375;5;386;2,10767760872841E-07;-2,11122110486031E-07;100 nA
-0,650634765625;200,634696493446;-1,46484375E-10;-0,6485595703125;5;387;2,10767760872841E-07;-2,11122110486031E-07;100 nA
-0,6005859375;201,135184492182;8,758544921875E-10;-0,598663330078125;5;388;2,10767760872841E-07;-2,11122110486031E-07;100 nA
-0,550537109375;201,635672490919;2,0050048828125E-09;-0,548797607421875;5;389;2,10767760872841E-07;-2,11122110486031E-07;100 nA
-0,50048828125;202,136160489655;3,0914306640625E-09;-0,498870849609375;5;390;2,10767760872841E-07;-2,11122110486031E-07;100 nA
-0,450439453125;202,636648488392;3,900146484375E-09;-0,449005126953125;5;391;2,10767760872841E-07;-2,11122110486031E-07;100 nA
-0,400390625;203,137136487128;4,632568359375E-09;-0,399139404296875;5;392;2,10767760872841E-07;-2,11122110486031E-07;100 nA
-0,350341796875;203,637624485864;5,3009033203125E-09;-0,349273681640625;5;393;2,10767760872841E-07;-2,11122110486031E-07;100 nA
-0,30029296875;204,138112484601;5,8990478515625E-09;-0,299285888671875;5;394;2,10767760872841E-07;-2,11122110486031E-07;100 nA
-0,250244140625;204,638600483337;6,512451171875E-09;-0,249420166015625;5;395;2,10767760872841E-07;-2,11122110486031E-07;100 nA
-0,2001953125;205,139088482074;7,2723388671875E-09;-0,19952392578125;5;396;2,10767760872841E-07;-2,11122110486031E-07;100 nA
-0,150146484375;205,63957648081;8,31298828125E-09;-0,149566650390625;5;397;2,10767760872841E-07;-2,11122110486031E-07;100 nA
-0,10009765625;206,140064479546;9,6588134765625E-09;-0,0997314453125;5;398;2,10767760872841E-07;-2,11122110486031E-07;100 nA
-0,050048828125;206,640552478283;1,11114501953125E-08;-0,049835205078125;5;399;2,10767760872841E-07;-2,11122110486031E-07;100 nA
0;207,141040477019;1,26068115234375E-08;8,23974609374944E-05;5;400;2,10767760872841E-07;-2,11122110486031E-07;100 nA
0,050048828125;207,641528475756;1,4239501953125E-08;0,050018310546875;6;401;2,1054171025753E-07;-2,09918543696404E-07;100 nA
0,10009765625;208,142016474492;1,5411376953125E-08;0,10003662109375;6;402;2,1054171025753E-07;-2,09918543696404E-07;100 nA
0,150146484375;208,642504473228;1,55181884765625E-08;0,1500244140625;6;403;2,1054171025753E-07;-2,09918543696404E-07;100 nA
0,2001953125;209,142992471965;1,4471435546875E-08;0,199951171875;6;404;2,1054171025753E-07;-2,09918543696404E-07;100 nA
0,250244140625;209,643480470701;1,3262939453125E-08;0,25;6;405;2,1054171025753E-07;-2,09918543696404E-07;100 nA
0,30029296875;210,143968469437;1,300048828125E-08;0,300018310546875;6;406;2,1054171025753E-07;-2,09918543696404E-07;100 nA
0,350341796875;210,644456468174;1,307373046875E-08;0,350067138671875;6;407;2,1054171025753E-07;-2,09918543696404E-07;100 nA
0,400390625;211,14494446691;1,3177490234375E-08;0,40008544921875;6;408;2,1054171025753E-07;-2,09918543696404E-07;100 nA
0,450439453125;211,645432465647;1,336669921875E-08;0,4500732421875;6;409;2,1054171025753E-07;-2,09918543696404E-07;100 nA
0,50048828125;212,145920464383;1,36932373046875E-08;0,500091552734375;6;410;2,1054171025753E-07;-2,09918543696404E-07;100 nA
0,550537109375;212,646408463119;1,40106201171875E-08;0,550140380859375;6;411;2,1054171025753E-07;-2,09918543696404E-07;100 nA
0,6005859375;213,146896461856;1,4373779296875E-08;0,600128173828125;6;412;2,1054171025753E-07;-2,09918543696404E-07;100 nA
0,650634765625;213,647384460592;1,461181640625E-08;0,650054931640625;6;413;2,1054171025753E-07;-2,09918543696404E-07;100 nA
0,70068359375;214,147872459329;1,47430419921875E-08;0,699981689453125;6;414;2,1054171025753E-07;-2,09918543696404E-07;100 nA
0,750732421875;214,648360458065;1,49261474609375E-08;0,749847412109375;6;415;2,1054171025753E-07;-2,09918543696404E-07;100 nA
0,80078125;215,148848456801;1,50421142578125E-08;0,79925537109375;6;416;2,1054171025753E-07;-2,09918543696404E-07;100 nA
0,850830078125;215,649336455538;1,513671875E-08;0,849609375;6;417;2,1054171025753E-07;-2,09918543696404E-07;100 nA
0,90087890625;216,149824454274;1,53350830078125E-08;0,89996337890625;6;418;2,1054171025753E-07;-2,09918543696404E-07;100 nA
0,950927734375;216,650312453011;1,5625E-08;0,94940185546875;6;419;2,1054171025753E-07;-2,09918543696404E-07;100 nA
1,0009765625;217,150800451747;1,583251953125E-08;0,99945068359375;6;420;2,1054171025753E-07;-2,09918543696404E-07;100 nA
0,950927734375;217,651288450483;1,236572265625E-08;0,94970703125;6;421;2,1054171025753E-07;-2,09918543696404E-07;100 nA
0,90087890625;218,15177644922;1,01165771484375E-08;0,89996337890625;6;422;2,1054171025753E-07;-2,09918543696404E-07;100 nA
0,850830078125;218,652264447956;8,160400390625E-09;0,84991455078125;6;423;2,1054171025753E-07;-2,09918543696404E-07;100 nA
0,80078125;219,152752446692;6,6314697265625E-09;0,80047607421875;6;424;2,1054171025753E-07;-2,09918543696404E-07;100 nA
0,750732421875;219,653240445429;5,2398681640625E-09;0,7498779296875;6;425;2,1054171025753E-07;-2,09918543696404E-07;100 nA
0,70068359375;220,153728444165;3,9794921875E-09;0,699981689453125;6;426;2,1054171025753E-07;-2,09918543696404E-07;100 nA
0,650634765625;220,654216442902;2,703857421875E-09;0,650115966796875;6;427;2,1054171025753E-07;-2,09918543696404E-07;100 nA
0,6005859375;221,154704441638;1,46484375E-09;0,600189208984375;6;428;2,1054171025753E-07;-2,09918543696404E-07;100 nA
0,550537109375;221,655192440374;2,3193359375E-10;0,5501708984375;6;429;2,1054171025753E-07;-2,09918543696404E-07;100 nA
0,50048828125;222,155680439111;-8,72802734375E-10;0,500152587890625;6;430;2,1054171025753E-07;-2,09918543696404E-07;100 nA
0,450439453125;222,656168437847;-1,763916015625E-09;0,45013427734375;6;431;2,1054171025753E-07;-2,09918543696404E-07;100 nA
0,400390625;223,156656436584;-2,9144287109375E-09;0,400177001953125;6;432;2,1054171025753E-07;-2,09918543696404E-07;100 nA
0,350341796875;223,65714443532;-3,759765625E-09;0,350128173828125;6;433;2,1054171025753E-07;-2,09918543696404E-07;100 nA
0,30029296875;224,157632434056;-4,7210693359375E-09;0,300140380859375;6;434;2,1054171025753E-07;-2,09918543696404E-07;100 nA
0,250244140625;224,658120432793;-5,6182861328125E-09;0,250152587890625;6;435;2,1054171025753E-07;-2,09918543696404E-07;100 nA
0,2001953125;225,158608431529;-6,2255859375E-09;0,200042724609375;6;436;2,1054171025753E-07;-2,09918543696404E-07;100 nA
0,150146484375;225,659096430266;-7,342529296875E-09;0,150115966796875;6;437;2,1054171025753E-07;-2,09918543696404E-07;100 nA
0,10009765625;226,159584429002;-8,6944580078125E-09;0,100189208984375;6;438;2,1054171025753E-07;-2,09918543696404E-07;100 nA
0,050048828125;226,660072427738;-1,06781005859375E-08;0,050140380859375;6;439;2,1054171025753E-07;-2,09918543696404E-07;100 nA
0;227,160560426475;-1,3677978515625E-08;0,00018310546875;6;440;2,1054171025753E-07;-2,09918543696404E-07;100 nA
-0,050048828125;227,661048425211;-1,51824951171875E-08;-0,0497100830078125;6;441;2,1054171025753E-07;-2,09918543696404E-07;100 nA
-0,10009765625;228,161536423948;-1,640625E-08;-0,099639892578125;6;442;2,1054171025753E-07;-2,09918543696404E-07;100 nA
-0,150146484375;228,662024422684;-1,77001953125E-08;-0,149505615234375;6;443;2,1054171025753E-07;-2,09918543696404E-07;100 nA
-0,2001953125;229,16251242142;-1,84295654296875E-08;-0,199432373046875;6;444;2,1054171025753E-07;-2,09918543696404E-07;100 nA
-0,250244140625;229,663000420157;-1,905517578125E-08;-0,249359130859375;6;445;2,1054171025753E-07;-2,09918543696404E-07;100 nA
-0,30029296875;230,163488418893;-1,97265625E-08;-0,299163818359375;6;446;2,1054171025753E-07;-2,09918543696404E-07;100 nA
-0,350341796875;230,663976417629;-2,0208740234375E-08;-0,349151611328125;6;447;2,1054171025753E-07;-2,09918543696404E-07;100 nA
-0,400390625;231,164464416366;-2,0703125E-08;-0,399078369140625;6;448;2,1054171025753E-07;-2,09918543696404E-07;100 nA
-0,450439453125;231,664952415102;-2,0806884765625E-08;-0,448944091796875;6;449;2,1054171025753E-07;-2,09918543696404E-07;100 nA
-0,50048828125;232,165440413839;-1,976318359375E-08;-0,498809814453125;6;450;2,1054171025753E-07;-2,09918543696404E-07;100 nA
-0,550537109375;232,665928412575;-1,578369140625E-08;-0,54876708984375;6;451;2,1054171025753E-07;-2,09918543696404E-07;100 nA
-0,6005859375;233,166416411311;-1,4312744140625E-08;-0,598602294921875;6;452;2,1054171025753E-07;-2,09918543696404E-07;100 nA
-0,650634765625;233,666904410048;-1,42852783203125E-08;-0,64862060546875;6;453;2,1054171025753E-07;-2,09918543696404E-07;100 nA
-0,70068359375;234,167392408784;-1,37542724609375E-08;-0,698577880859375;6;454;2,1054171025753E-07;-2,09918543696404E-07;100 nA
-0,750732421875;234,667880407521;-1,33392333984375E-08;-0,748565673828125;6;455;2,1054171025753E-07;-2,09918543696404E-07;100 nA
-0,80078125;235,168368406257;-1,31072998046875E-08;-0,79864501953125;6;456;2,1054171025753E-07;-2,09918543696404E-07;100 nA
-0,850830078125;235,668856404993;-1,2945556640625E-08;-0,8489990234375;6;457;2,1054171025753E-07;-2,09918543696404E-07;100 nA
-0,90087890625;236,16934440373;-1,29150390625E-08;-0,8990478515625;6;458;2,1054171025753E-07;-2,09918543696404E-07;100 nA
-0,950927734375;236,669832402466;-1,2945556640625E-08;-0,94879150390625;6;459;2,1054171025753E-07;-2,09918543696404E-07;100 nA
-1,0009765625;237,170320401203;-1,31134033203125E-08;-0,99853515625;6;460;2,1054171025753E-07;-2,09918543696404E-07;100 nA
-0,950927734375;237,670808399939;-9,3353271484375E-09;-0,9490966796875;6;461;2,1054171025753E-07;-2,09918543696404E-07;100 nA
-0,90087890625;238,171296398675;-6,878662109375E-09;-0,89935302734375;6;462;2,1054171025753E-07;-2,09918543696404E-07;100 nA
-0,850830078125;238,671784397412;-5,1177978515625E-09;-0,84869384765625;6;463;2,1054171025753E-07;-2,09918543696404E-07;100 nA
-0,80078125;239,172272396148;-3,662109375E-09;-0,79864501953125;6;464;2,1054171025753E-07;-2,09918543696404E-07;100 nA
-0,750732421875;239,672760394884;-2,3284912109375E-09;-0,748626708984375;6;465;2,1054171025753E-07;-2,09918543696404E-07;100 nA
-0,70068359375;240,173248393621;-1,1993408203125E-09;-0,698638916015625;6;466;2,1054171025753E-07;-2,09918543696404E-07;100 nA
-0,650634765625;240,673736392357;-1,52587890625E-10;-0,648651123046875;6;467;2,1054171025753E-07;-2,09918543696404E-07;100 nA
-0,6005859375;241,174224391094;8,97216796875E-10;-0,598785400390625;6;468;2,1054171025753E-07;-2,09918543696404E-07;100 nA
-0,550537109375;241,67471238983;1,953125E-09;-0,548736572265625;6;469;2,1054171025753E-07;-2,09918543696404E-07;100 nA
-0,50048828125;242,175200388566;3,033447265625E-09;-0,498870849609375;6;470;2,1054171025753E-07;-2,09918543696404E-07;100 nA
-0,450439453125;242,675688387303;3,887939453125E-09;-0,44903564453125;6;471;2,1054171025753E-07;-2,09918543696404E-07;100 nA
-0,400390625;243,176176386039;4,638671875E-09;-0,39910888671875;6;472;2,1054171025753E-07;-2,09918543696404E-07;100 nA
-0,350341796875;243,676664384776;5,28564453125E-09;-0,34930419921875;6;473;2,1054171025753E-07;-2,09918543696404E-07;100 nA
-0,30029296875;244,177152383512;5,950927734375E-09;-0,299346923828125;6;474;2,1054171025753E-07;-2,09918543696404E-07;100 nA
-0,250244140625;244,677640382248;6,5460205078125E-09;-0,249420166015625;6;475;2,1054171025753E-07;-2,09918543696404E-07;100 nA
-0,2001953125;245,178128380985;7,281494140625E-09;-0,199493408203125;6;476;2,1054171025753E-07;-2,09918543696404E-07;100 nA
-0,150146484375;245,678616379721;8,294677734375E-09;-0,149627685546875;6;477;2,1054171025753E-07;-2,09918543696404E-07;100 nA
-0,10009765625;246,179104378458;9,55810546875E-09;-0,0997314453125;6;478;2,1054171025753E-07;-2,09918543696404E-07;100 nA
-0,050048828125;246,679592377194;1,1041259765625E-08;-0,049896240234375;6;479;2,1054171025753E-07;-2,09918543696404E-07;100 nA
0;247,18008037593;1,25579833984375E-08;0,0001373291015625;6;480;2,1054171025753E-07;-2,09918543696404E-07;100 nA
0,050048828125;247,680568374667;1,4215087890625E-08;0,049957275390625;7;481;2,10129320621491E-07;-2,09608487784862E-07;100 nA
0,10009765625;248,181056373403;1,53717041015625E-08;0,0999755859375;7;482;2,10129320621491E-07;-2,09608487784862E-07;100 nA
0,150146484375;248,681544372139;1,54876708984375E-08;0,14996337890625;7;483;2,10129320621491E-07;-2,09608487784862E-07;100 nA
0,2001953125;249,182032370876;1,4422607421875E-08;0,199981689453125;7;484;2,10129320621491E-07;-2,09608487784862E-07;100 nA
0,250244140625;249,682520369612;1,32232666015625E-08;0,250030517578125;7;485;2,10129320621491E-07;-2,09608487784862E-07;100 nA
0,30029296875;250,183008368349;1,300048828125E-08;0,300048828125;7;486;2,10129320621491E-07;-2,09608487784862E-07;100 nA
0,350341796875;250,683496367085;1,30523681640625E-08;0,35003662109375;7;487;2,10129320621491E-07;-2,09608487784862E-07;100 nA
0,400390625;251,183984365821;1,3165283203125E-08;0,40008544921875;7;488;2,10129320621491E-07;-2,09608487784862E-07;100 nA
0,450439453125;251,684472364558;1,33636474609375E-08;0,4500732421875;7;489;2,10129320621491E-07;-2,09608487784862E-07;100 nA
0,50048828125;252,184960363294;1,36932373046875E-08;0,5001220703125;7;490;2,10129320621491E-07;-2,09608487784862E-07;100 nA
0,550537109375;252,685448362031;1,39892578125E-08;0,55010986328125;7;491;2,10129320621491E-07;-2,09608487784862E-07;100 nA
0,6005859375;253,185936360767;1,43798828125E-08;0,600189208984375;7;492;2,10129320621491E-07;-2,09608487784862E-07;100 nA
0,650634765625;253,686424359503;1,4593505859375E-08;0,6500244140625;7;493;2,10129320621491E-07;-2,09608487784862E-07;100 nA
0,70068359375;254,18691235824;1,47125244140625E-08;0,699920654296875;7;494;2,10129320621491E-07;-2,09608487784862E-07;100 nA
0,750732421875;254,687400356976;1,49078369140625E-08;0,749847412109375;7;495;2,10129320621491E-07;-2,09608487784862E-07;100 nA
0,80078125;255,187888355713;1,502685546875E-08;0,799560546875;7;496;2,10129320621491E-07;-2,09608487784862E-07;100 nA
0,850830078125;255,688376354449;1,5106201171875E-08;0,84930419921875;7;497;2,10129320621491E-07;-2,09608487784862E-07;100 nA
0,90087890625;256,188864353185;1,5289306640625E-08;0,899658203125;7;498;2,10129320621491E-07;-2,09608487784862E-07;100 nA
0,950927734375;256,689352351922;1,55426025390625E-08;0,94940185546875;7;499;2,10129320621491E-07;-2,09608487784862E-07;100 nA
1,0009765625;257,189840350658;1,58233642578125E-08;0,999755859375;7;500;2,10129320621491E-07;-2,09608487784862E-07;100 nA
0,950927734375;257,690328349394;1,23321533203125E-08;0,94970703125;7;501;2,10129320621491E-07;-2,09608487784862E-07;100 nA
0,90087890625;258,190816348131;9,9365234375E-09;0,90057373046875;7;502;2,10129320621491E-07;-2,09608487784862E-07;100 nA
0,850830078125;258,691304346867;8,11767578125E-09;0,849609375;7;503;2,10129320621491E-07;-2,09608487784862E-07;100 nA
0,80078125;259,191792345604;6,6009521484375E-09;0,8001708984375;7;504;2,10129320621491E-07;-2,09608487784862E-07;100 nA
0,750732421875;259,69228034434;5,2398681640625E-09;0,74981689453125;7;505;2,10129320621491E-07;-2,09608487784862E-07;100 nA
0,70068359375;260,192768343076;3,8970947265625E-09;0,699920654296875;7;506;2,10129320621491E-07;-2,09608487784862E-07;100 nA
0,650634765625;260,693256341813;2,685546875E-09;0,6500244140625;7;507;2,10129320621491E-07;-2,09608487784862E-07;100 nA
0,6005859375;261,193744340549;1,4404296875E-09;0,6002197265625;7;508;2,10129320621491E-07;-2,09608487784862E-07;100 nA
0,550537109375;261,694232339286;2,532958984375E-10;0,550079345703125;7;509;2,10129320621491E-07;-2,09608487784862E-07;100 nA
0,50048828125;262,194720338022;-8,270263671875E-10;0,500091552734375;7;510;2,10129320621491E-07;-2,09608487784862E-07;100 nA
0,450439453125;262,695208336758;-1,86767578125E-09;0,45013427734375;7;511;2,10129320621491E-07;-2,09608487784862E-07;100 nA
0,400390625;263,195696335495;-2,7862548828125E-09;0,400146484375;7;512;2,10129320621491E-07;-2,09608487784862E-07;100 nA
0,350341796875;263,696184334231;-3,7445068359375E-09;0,35015869140625;7;513;2,10129320621491E-07;-2,09608487784862E-07;100 nA
0,30029296875;264,196672332968;-4,5989990234375E-09;0,3001708984375;7;514;2,10129320621491E-07;-2,09608487784862E-07;100 nA
0,250244140625;264,697160331704;-5,3741455078125E-09;0,250152587890625;7;515;2,10129320621491E-07;-2,09608487784862E-07;100 nA
0,2001953125;265,19764833044;-6,2164306640625E-09;0,200164794921875;7;516;2,10129320621491E-07;-2,09608487784862E-07;100 nA
0,150146484375;265,698136329177;-7,269287109375E-09;0,150177001953125;7;517;2,10129320621491E-07;-2,09608487784862E-07;100 nA
0,10009765625;266,198624327913;-8,6181640625E-09;0,100128173828125;7;518;2,10129320621491E-07;-2,09608487784862E-07;100 nA
0,050048828125;266,699112326649;-1,06597900390625E-08;0,05010986328125;7;519;2,10129320621491E-07;-2,09608487784862E-07;100 nA
0;267,199600325386;-1,337890625E-08;0,000161743164062506;7;520;2,10129320621491E-07;-2,09608487784862E-07;100 nA
-0,050048828125;267,700088324122;-1,56036376953125E-08;-0,0497314453125;7;521;2,10129320621491E-07;-2,09608487784862E-07;100 nA
-0,10009765625;268,200576322859;-1,68182373046875E-08;-0,099639892578125;7;522;2,10129320621491E-07;-2,09608487784862E-07;100 nA
-0,150146484375;268,701064321595;-1,77093505859375E-08;-0,149566650390625;7;523;2,10129320621491E-07;-2,09608487784862E-07;100 nA
-0,2001953125;269,201552320331;-1,851806640625E-08;-0,199371337890625;7;524;2,10129320621491E-07;-2,09608487784862E-07;100 nA
-0,250244140625;269,702040319068;-1,91436767578125E-08;-0,24932861328125;7;525;2,10129320621491E-07;-2,09608487784862E-07;100 nA
-0,30029296875;270,202528317804;-1,97662353515625E-08;-0,299224853515625;7;526;2,10129320621491E-07;-2,09608487784862E-07;100 nA
-0,350341796875;270,703016316541;-2,03704833984375E-08;-0,349151611328125;7;527;2,10129320621491E-07;-2,09608487784862E-07;100 nA
-0,400390625;271,203504315277;-2,07763671875E-08;-0,399078369140625;7;528;2,10129320621491E-07;-2,09608487784862E-07;100 nA
-0,450439453125;271,703992314013;-2,08038330078125E-08;-0,449005126953125;7;529;2,10129320621491E-07;-2,09608487784862E-07;100 nA
-0,50048828125;272,20448031275;-1,956787109375E-08;-0,498809814453125;7;530;2,10129320621491E-07;-2,09608487784862E-07;100 nA
-0,550537109375;272,704968311486;-1,56402587890625E-08;-0,548797607421875;7;531;2,10129320621491E-07;-2,09608487784862E-07;100 nA
-0,6005859375;273,205456310223;-1,46026611328125E-08;-0,598663330078125;7;532;2,10129320621491E-07;-2,09608487784862E-07;100 nA
-0,650634765625;273,705944308959;-1,42608642578125E-08;-0,6485595703125;7;533;2,10129320621491E-07;-2,09608487784862E-07;100 nA
-0,70068359375;274,206432307695;-1,37298583984375E-08;-0,6986083984375;7;534;2,10129320621491E-07;-2,09608487784862E-07;100 nA
-0,750732421875;274,706920306432;-1,32598876953125E-08;-0,748626708984375;7;535;2,10129320621491E-07;-2,09608487784862E-07;100 nA
-0,80078125;275,207408305168;-1,2982177734375E-08;-0,79864501953125;7;536;2,10129320621491E-07;-2,09608487784862E-07;100 nA
-0,850830078125;275,707896303904;-1,28326416015625E-08;-0,84869384765625;7;537;2,10129320621491E-07;-2,09608487784862E-07;100 nA
-0,90087890625;276,208384302641;-1,26953125E-08;-0,89935302734375;7;538;2,10129320621491E-07;-2,09608487784862E-07;100 nA
-0,950927734375;276,708872301377;-1,28204345703125E-08;-0,94879150390625;7;539;2,10129320621491E-07;-2,09608487784862E-07;100 nA
-1,0009765625;277,209360300114;-1,314697265625E-08;-0,9991455078125;7;540;2,10129320621491E-07;-2,09608487784862E-07;100 nA
-0,950927734375;277,70984829885;-9,2071533203125E-09;-0,95001220703125;7;541;2,10129320621491E-07;-2,09608487784862E-07;100 nA
-0,90087890625;278,210336297586;-6,84814453125E-09;-0,8990478515625;7;542;2,10129320621491E-07;-2,09608487784862E-07;100 nA
-0,850830078125;278,710824296323;-5,0323486328125E-09;-0,8489990234375;7;543;2,10129320621491E-07;-2,09608487784862E-07;100 nA
-0,80078125;279,211312295059;-3,6224365234375E-09;-0,7989501953125;7;544;2,10129320621491E-07;-2,09608487784862E-07;100 nA
-0,750732421875;279,711800293796;-2,2857666015625E-09;-0,7486572265625;7;545;2,10129320621491E-07;-2,09608487784862E-07;100 nA
-0,70068359375;280,212288292532;-1,2176513671875E-09;-0,698638916015625;7;546;2,10129320621491E-07;-2,09608487784862E-07;100 nA
-0,650634765625;280,712776291268;-2,044677734375E-10;-0,64862060546875;7;547;2,10129320621491E-07;-2,09608487784862E-07;100 nA
-0,6005859375;281,213264290005;9,1552734375E-10;-0,598724365234375;7;548;2,10129320621491E-07;-2,09608487784862E-07;100 nA
-0,550537109375;281,713752288741;1,9500732421875E-09;-0,548797607421875;7;549;2,10129320621491E-07;-2,09608487784862E-07;100 nA
-0,50048828125;282,214240287478;2,9388427734375E-09;-0,4989013671875;7;550;2,10129320621491E-07;-2,09608487784862E-07;100 nA
-0,450439453125;282,714728286214;3,900146484375E-09;-0,448944091796875;7;551;2,10129320621491E-07;-2,09608487784862E-07;100 nA
-0,400390625;283,21521628495;4,6234130859375E-09;-0,399169921875;7;552;2,10129320621491E-07;-2,09608487784862E-07;100 nA
-0,350341796875;283,715704283687;5,2642822265625E-09;-0,349212646484375;7;553;2,10129320621491E-07;-2,09608487784862E-07;100 nA
-0,30029296875;284,216192282423;5,9234619140625E-09;-0,29931640625;7;554;2,10129320621491E-07;-2,09608487784862E-07;100 nA
-0,250244140625;284,716680281159;6,4910888671875E-09;-0,2493896484375;7;555;2,10129320621491E-07;-2,09608487784862E-07;100 nA
-0,2001953125;285,217168279896;7,2540283203125E-09;-0,199554443359375;7;556;2,10129320621491E-07;-2,09608487784862E-07;100 nA
-0,150146484375;285,717656278632;8,2733154296875E-09;-0,149658203125;7;557;2,10129320621491E-07;-2,09608487784862E-07;100 nA
-0,10009765625;286,218144277369;9,82666015625E-09;-0,09979248046875;7;558;2,10129320621491E-07;-2,09608487784862E-07;100 nA
-0,050048828125;286,718632276105;1,10504150390625E-08;-0,049835205078125;7;559;2,10129320621491E-07;-2,09608487784862E-07;100 nA
0;287,219120274841;1,2567138671875E-08;8,54492187500056E-05;7;560;2,10129320621491E-07;-2,09608487784862E-07;100 nA
0,050048828125;287,719608273578;1,41998291015625E-08;0,050018310546875;8;561;2,09668055176735E-07;-2,09736786782742E-07;100 nA
0,10009765625;288,220096272314;1,5350341796875E-08;0,10003662109375;8;562;2,09668055176735E-07;-2,09736786782742E-07;100 nA
0,150146484375;288,720584271051;1,54266357421875E-08;0,150054931640625;8;563;2,09668055176735E-07;-2,09736786782742E-07;100 nA
0,2001953125;289,221072269787;1,444091796875E-08;0,199981689453125;8;564;2,09668055176735E-07;-2,09736786782742E-07;100 nA
0,250244140625;289,721560268523;1,318359375E-08;0,250030517578125;8;565;2,09668055176735E-07;-2,09736786782742E-07;100 nA
0,30029296875;290,22204826726;1,2884521484375E-08;0,300048828125;8;566;2,09668055176735E-07;-2,09736786782742E-07;100 nA
0,350341796875;290,722536265996;1,290283203125E-08;0,350067138671875;8;567;2,09668055176735E-07;-2,09736786782742E-07;100 nA
0,400390625;291,223024264733;1,30401611328125E-08;0,400054931640625;8;568;2,09668055176735E-07;-2,09736786782742E-07;100 nA
0,450439453125;291,723512263469;1,32781982421875E-08;0,450042724609375;8;569;2,09668055176735E-07;-2,09736786782742E-07;100 nA
0,50048828125;292,224000262205;1,35772705078125E-08;0,500091552734375;8;570;2,09668055176735E-07;-2,09736786782742E-07;100 nA
0,550537109375;292,724488260942;1,38946533203125E-08;0,550079345703125;8;571;2,09668055176735E-07;-2,09736786782742E-07;100 nA
0,6005859375;293,224976259678;1,42425537109375E-08;0,600067138671875;8;572;2,09668055176735E-07;-2,09736786782742E-07;100 nA
0,650634765625;293,725464258414;1,4508056640625E-08;0,650054931640625;8;573;2,09668055176735E-07;-2,09736786782742E-07;100 nA
0,70068359375;294,225952257151;1,46575927734375E-08;0,69989013671875;8;574;2,09668055176735E-07;-2,09736786782742E-07;100 nA
0,750732421875;294,726440255887;1,47918701171875E-08;0,749847412109375;8;575;2,09668055176735E-07;-2,09736786782742E-07;100 nA
0,80078125;295,226928254624;1,4910888671875E-08;0,799560546875;8;576;2,09668055176735E-07;-2,09736786782742E-07;100 nA
0,850830078125;295,72741625336;1,50726318359375E-08;0,84991455078125;8;577;2,09668055176735E-07;-2,09736786782742E-07;100 nA
0,90087890625;296,227904252096;1,5289306640625E-08;0,899658203125;8;578;2,09668055176735E-07;-2,09736786782742E-07;100 nA
0,950927734375;296,728392250833;1,5496826171875E-08;0,95001220703125;8;579;2,09668055176735E-07;-2,09736786782742E-07;100 nA
1,0009765625;297,228880249569;1,5838623046875E-08;0,9991455078125;8;580;2,09668055176735E-07;-2,09736786782742E-07;100 nA
0,950927734375;297,729368248306;1,2359619140625E-08;0,95001220703125;8;581;2,09668055176735E-07;-2,09736786782742E-07;100 nA
0,90087890625;298,229856247042;1,0040283203125E-08;0,899658203125;8;582;2,09668055176735E-07;-2,09736786782742E-07;100 nA
0,850830078125;298,730344245778;8,21533203125E-09;0,8502197265625;8;583;2,09668055176735E-07;-2,09736786782742E-07;100 nA
0,80078125;299,230832244515;6,683349609375E-09;0,79986572265625;8;584;2,09668055176735E-07;-2,09736786782742E-07;100 nA
0,750732421875;299,731320243251;5,3253173828125E-09;0,749908447265625;8;585;2,09668055176735E-07;-2,09736786782742E-07;100 nA
0,70068359375;300,231808241988;4,08935546875E-09;0,700042724609375;8;586;2,09668055176735E-07;-2,09736786782742E-07;100 nA
0,650634765625;300,732296240724;2,8076171875E-09;0,650146484375;8;587;2,09668055176735E-07;-2,09736786782742E-07;100 nA
0,6005859375;301,23278423946;1,5411376953125E-09;0,600189208984375;8;588;2,09668055176735E-07;-2,09736786782742E-07;100 nA
0,550537109375;301,733272238197;3,47900390625E-10;0,5501708984375;8;589;2,09668055176735E-07;-2,09736786782742E-07;100 nA
0,50048828125;302,233760236933;-7,415771484375E-10;0,5001220703125;8;590;2,09668055176735E-07;-2,09736786782742E-07;100 nA
0,450439453125;302,73424823567;-1,7822265625E-09;0,450225830078125;8;591;2,09668055176735E-07;-2,09736786782742E-07;100 nA
0,400390625;303,234736234406;-2,7587890625E-09;0,400146484375;8;592;2,09668055176735E-07;-2,09736786782742E-07;100 nA
0,350341796875;303,735224233142;-3,7200927734375E-09;0,35015869140625;8;593;2,09668055176735E-07;-2,09736786782742E-07;100 nA
0,30029296875;304,235712231879;-4,65087890625E-09;0,300079345703125;8;594;2,09668055176735E-07;-2,09736786782742E-07;100 nA
0,250244140625;304,736200230615;-5,5023193359375E-09;0,250152587890625;8;595;2,09668055176735E-07;-2,09736786782742E-07;100 nA
0,2001953125;305,236688229351;-6,3812255859375E-09;0,200164794921875;8;596;2,09668055176735E-07;-2,09736786782742E-07;100 nA
0,150146484375;305,737176228088;-7,3699951171875E-09;0,150146484375;8;597;2,09668055176735E-07;-2,09736786782742E-07;100 nA
0,10009765625;306,237664226824;-8,734130859375E-09;0,10009765625;8;598;2,09668055176735E-07;-2,09736786782742E-07;100 nA
0,050048828125;306,738152225561;-1,07269287109375E-08;0,050079345703125;8;599;2,09668055176735E-07;-2,09736786782742E-07;100 nA
0;307,238640224297;-1,34765625E-08;0,000140380859374997;8;600;2,09668055176735E-07;-2,09736786782742E-07;100 nA
-0,050048828125;307,739128223033;-1,57379150390625E-08;-0,049774169921875;8;601;2,09668055176735E-07;-2,09736786782742E-07;100 nA
-0,10009765625;308,23961622177;-1,68975830078125E-08;-0,09967041015625;8;602;2,09668055176735E-07;-2,09736786782742E-07;100 nA
-0,150146484375;308,740104220506;-1,77825927734375E-08;-0,149566650390625;8;603;2,09668055176735E-07;-2,09736786782742E-07;100 nA
-0,2001953125;309,240592219243;-1,85638427734375E-08;-0,199432373046875;8;604;2,09668055176735E-07;-2,09736786782742E-07;100 nA
-0,250244140625;309,741080217979;-1,962890625E-08;-0,249359130859375;8;605;2,09668055176735E-07;-2,09736786782742E-07;100 nA
-0,30029296875;310,241568216715;-1,97601318359375E-08;-0,299224853515625;8;606;2,09668055176735E-07;-2,09736786782742E-07;100 nA
-0,350341796875;310,742056215452;-2,03125E-08;-0,34912109375;8;607;2,09668055176735E-07;-2,09736786782742E-07;100 nA
-0,400390625;311,242544214188;-2,07305908203125E-08;-0,399078369140625;8;608;2,09668055176735E-07;-2,09736786782742E-07;100 nA
-0,450439453125;311,743032212925;-2,0648193359375E-08;-0,44891357421875;8;609;2,09668055176735E-07;-2,09736786782742E-07;100 nA
-0,50048828125;312,243520211661;-1,92779541015625E-08;-0,498809814453125;8;610;2,09668055176735E-07;-2,09736786782742E-07;100 nA
-0,550537109375;312,744008210397;-1,53472900390625E-08;-0,548797607421875;8;611;2,09668055176735E-07;-2,09736786782742E-07;100 nA
-0,6005859375;313,244496209134;-1,43798828125E-08;-0,5986328125;8;612;2,09668055176735E-07;-2,09736786782742E-07;100 nA
-0,650634765625;313,74498420787;-1,40228271484375E-08;-0,648590087890625;8;613;2,09668055176735E-07;-2,09736786782742E-07;100 nA
-0,70068359375;314,245472206606;-1,36199951171875E-08;-0,69854736328125;8;614;2,09668055176735E-07;-2,09736786782742E-07;100 nA
-0,750732421875;314,745960205343;-1,317138671875E-08;-0,74859619140625;8;615;2,09668055176735E-07;-2,09736786782742E-07;100 nA
-0,80078125;315,246448204079;-1,28570556640625E-08;-0,79864501953125;8;616;2,09668055176735E-07;-2,09736786782742E-07;100 nA
-0,850830078125;315,746936202816;-1,273193359375E-08;-0,84869384765625;8;617;2,09668055176735E-07;-2,09736786782742E-07;100 nA
-0,90087890625;316,247424201552;-1,26373291015625E-08;-0,89874267578125;8;618;2,09668055176735E-07;-2,09736786782742E-07;100 nA
-0,950927734375;316,747912200288;-1,2994384765625E-08;-0,948486328125;8;619;2,09668055176735E-07;-2,09736786782742E-07;100 nA
-1,0009765625;317,248400199025;-1,30401611328125E-08;-0,9991455078125;8;620;2,09668055176735E-07;-2,09736786782742E-07;100 nA
-0,950927734375;317,748888197761;-9,173583984375E-09;-0,94879150390625;8;621;2,09668055176735E-07;-2,09736786782742E-07;100 nA
-0,90087890625;318,249376196498;-6,9915771484375E-09;-0,899658203125;8;622;2,09668055176735E-07;-2,09736786782742E-07;100 nA
-0,850830078125;318,749864195234;-5,419921875E-09;-0,84869384765625;8;623;2,09668055176735E-07;-2,09736786782742E-07;100 nA
-0,80078125;319,25035219397;-3,6712646484375E-09;-0,79833984375;8;624;2,09668055176735E-07;-2,09736786782742E-07;100 nA
-0,750732421875;319,750840192707;-2,4200439453125E-09;-0,7486572265625;8;625;2,09668055176735E-07;-2,09736786782742E-07;100 nA
-0,70068359375;320,251328191443;-1,214599609375E-09;-0,6986083984375;8;626;2,09668055176735E-07;-2,09736786782742E-07;100 nA
-0,650634765625;320,75181619018;-1,861572265625E-10;-0,648651123046875;8;627;2,09668055176735E-07;-2,09736786782742E-07;100 nA
-0,6005859375;321,252304188916;8,697509765625E-10;-0,598724365234375;8;628;2,09668055176735E-07;-2,09736786782742E-07;100 nA
-0,550537109375;321,752792187652;1,9561767578125E-09;-0,548828125;8;629;2,09668055176735E-07;-2,09736786782742E-07;100 nA
-0,50048828125;322,253280186389;2,899169921875E-09;-0,49896240234375;8;630;2,09668055176735E-07;-2,09736786782742E-07;100 nA
-0,450439453125;322,753768185125;3,8360595703125E-09;-0,448974609375;8;631;2,09668055176735E-07;-2,09736786782742E-07;100 nA
-0,400390625;323,254256183861;4,644775390625E-09;-0,399169921875;8;632;2,09668055176735E-07;-2,09736786782742E-07;100 nA
-0,350341796875;323,754744182598;5,340576171875E-09;-0,349212646484375;8;633;2,09668055176735E-07;-2,09736786782742E-07;100 nA
-0,30029296875;324,255232181334;5,889892578125E-09;-0,299285888671875;8;634;2,09668055176735E-07;-2,09736786782742E-07;100 nA
-0,250244140625;324,755720180071;6,500244140625E-09;-0,24945068359375;8;635;2,09668055176735E-07;-2,09736786782742E-07;100 nA
-0,2001953125;325,256208178807;7,2174072265625E-09;-0,199493408203125;8;636;2,09668055176735E-07;-2,09736786782742E-07;100 nA
-0,150146484375;325,756696177543;8,26416015625E-09;-0,149658203125;8;637;2,09668055176735E-07;-2,09736786782742E-07;100 nA
-0,10009765625;326,25718417628;9,5794677734375E-09;-0,0997314453125;8;638;2,09668055176735E-07;-2,09736786782742E-07;100 nA
-0,050048828125;326,757672175016;1,10107421875E-08;-0,049896240234375;8;639;2,09668055176735E-07;-2,09736786782742E-07;100 nA
0;327,258160173753;1,25213623046875E-08;8,23974609374944E-05;8;640;2,09668055176735E-07;-2,09736786782742E-07;100 nA
0,050048828125;327,758648172489;1,41693115234375E-08;0,050048828125;9;641;2,08785235881805E-07;-2,08212472498417E-07;100 nA
0,10009765625;328,259136171225;1,533203125E-08;0,100006103515625;9;642;2,08785235881805E-07;-2,08212472498417E-07;100 nA
0,150146484375;328,759624169962;1,541748046875E-08;0,1500244140625;9;643;2,08785235881805E-07;-2,08212472498417E-07;100 nA
0,2001953125;329,260112168698;1,43463134765625E-08;0,20001220703125;9;644;2,08785235881805E-07;-2,08212472498417E-07;100 nA
0,250244140625;329,760600167435;1,3165283203125E-08;0,25006103515625;9;645;2,08785235881805E-07;-2,08212472498417E-07;100 nA
0,30029296875;330,261088166171;1,29302978515625E-08;0,300018310546875;9;646;2,08785235881805E-07;-2,08212472498417E-07;100 nA
0,350341796875;330,761576164907;1,30157470703125E-08;0,35003662109375;9;647;2,08785235881805E-07;-2,08212472498417E-07;100 nA
0,400390625;331,262064163644;1,3140869140625E-08;0,400115966796875;9;648;2,08785235881805E-07;-2,08212472498417E-07;100 nA
0,450439453125;331,76255216238;1,3330078125E-08;0,4500732421875;9;649;2,08785235881805E-07;-2,08212472498417E-07;100 nA
0,50048828125;332,263040161116;1,363525390625E-08;0,500091552734375;9;650;2,08785235881805E-07;-2,08212472498417E-07;100 nA
0,550537109375;332,763528159853;1,39862060546875E-08;0,5501708984375;9;651;2,08785235881805E-07;-2,08212472498417E-07;100 nA
0,6005859375;333,264016158589;1,4312744140625E-08;0,600067138671875;9;652;2,08785235881805E-07;-2,08212472498417E-07;100 nA
0,650634765625;333,764504157326;1,45355224609375E-08;0,650054931640625;9;653;2,08785235881805E-07;-2,08212472498417E-07;100 nA
0,70068359375;334,264992156062;1,47247314453125E-08;0,699981689453125;9;654;2,08785235881805E-07;-2,08212472498417E-07;100 nA
0,750732421875;334,765480154798;1,48162841796875E-08;0,74981689453125;9;655;2,08785235881805E-07;-2,08212472498417E-07;100 nA
0,80078125;335,265968153535;1,49139404296875E-08;0,799560546875;9;656;2,08785235881805E-07;-2,08212472498417E-07;100 nA
0,850830078125;335,766456152271;1,50390625E-08;0,84991455078125;9;657;2,08785235881805E-07;-2,08212472498417E-07;100 nA
0,90087890625;336,266944151008;1,52069091796875E-08;0,89996337890625;9;658;2,08785235881805E-07;-2,08212472498417E-07;100 nA
0,950927734375;336,767432149744;1,54296875E-08;0,94940185546875;9;659;2,08785235881805E-07;-2,08212472498417E-07;100 nA
1,0009765625;337,26792014848;1,5728759765625E-08;0,99945068359375;9;660;2,08785235881805E-07;-2,08212472498417E-07;100 nA
0,950927734375;337,768408147217;1,2249755859375E-08;0,95001220703125;9;661;2,08785235881805E-07;-2,08212472498417E-07;100 nA
0,90087890625;338,268896145953;9,9151611328125E-09;0,89996337890625;9;662;2,08785235881805E-07;-2,08212472498417E-07;100 nA
0,850830078125;338,76938414469;8,099365234375E-09;0,84991455078125;9;663;2,08785235881805E-07;-2,08212472498417E-07;100 nA
0,80078125;339,269872143426;6,5643310546875E-09;0,79986572265625;9;664;2,08785235881805E-07;-2,08212472498417E-07;100 nA
0,750732421875;339,770360142162;5,16357421875E-09;0,7498779296875;9;665;2,08785235881805E-07;-2,08212472498417E-07;100 nA
0,70068359375;340,270848140899;3,89404296875E-09;0,699981689453125;9;666;2,08785235881805E-07;-2,08212472498417E-07;100 nA
0,650634765625;340,771336139635;2,6611328125E-09;0,650054931640625;9;667;2,08785235881805E-07;-2,08212472498417E-07;100 nA
0,6005859375;341,271824138371;1,46484375E-09;0,60009765625;9;668;2,08785235881805E-07;-2,08212472498417E-07;100 nA
0,550537109375;341,772312137108;3,23486328125E-10;0,55010986328125;9;669;2,08785235881805E-07;-2,08212472498417E-07;100 nA
0,50048828125;342,272800135844;-7,659912109375E-10;0,500152587890625;9;670;2,08785235881805E-07;-2,08212472498417E-07;100 nA
0,450439453125;342,773288134581;-1,7333984375E-09;0,450164794921875;9;671;2,08785235881805E-07;-2,08212472498417E-07;100 nA
0,400390625;343,273776133317;-2,7435302734375E-09;0,400238037109375;9;672;2,08785235881805E-07;-2,08212472498417E-07;100 nA
0,350341796875;343,774264132053;-3,6834716796875E-09;0,350189208984375;9;673;2,08785235881805E-07;-2,08212472498417E-07;100 nA
0,30029296875;344,27475213079;-4,5501708984375E-09;0,30023193359375;9;674;2,08785235881805E-07;-2,08212472498417E-07;100 nA
0,250244140625;344,775240129526;-5,4290771484375E-09;0,250152587890625;9;675;2,08785235881805E-07;-2,08212472498417E-07;100 nA
0,2001953125;345,275728128263;-6,2835693359375E-09;0,20013427734375;9;676;2,08785235881805E-07;-2,08212472498417E-07;100 nA
0,150146484375;345,776216126999;-7,2174072265625E-09;0,150146484375;9;677;2,08785235881805E-07;-2,08212472498417E-07;100 nA
0,10009765625;346,276704125735;-8,6151123046875E-09;0,10009765625;9;678;2,08785235881805E-07;-2,08212472498417E-07;100 nA
0,050048828125;346,777192124472;-1,06048583984375E-08;0,050140380859375;9;679;2,08785235881805E-07;-2,08212472498417E-07;100 nA
0;347,277680123208;-1,33453369140625E-08;0,000164794921875003;9;680;2,08785235881805E-07;-2,08212472498417E-07;100 nA
-0,050048828125;347,778168121945;-1,56524658203125E-08;-0,0498046875;9;681;2,08785235881805E-07;-2,08212472498417E-07;100 nA
-0,10009765625;348,278656120681;-1,68548583984375E-08;-0,099639892578125;9;682;2,08785235881805E-07;-2,08212472498417E-07;100 nA
-0,150146484375;348,779144119417;-1,7724609375E-08;-0,14959716796875;9;683;2,08785235881805E-07;-2,08212472498417E-07;100 nA
-0,2001953125;349,279632118154;-1,85516357421875E-08;-0,19940185546875;9;684;2,08785235881805E-07;-2,08212472498417E-07;100 nA
-0,250244140625;349,78012011689;-1,91864013671875E-08;-0,249298095703125;9;685;2,08785235881805E-07;-2,08212472498417E-07;100 nA
-0,30029296875;350,280608115626;-1,98028564453125E-08;-0,299224853515625;9;686;2,08785235881805E-07;-2,08212472498417E-07;100 nA
-0,350341796875;350,781096114363;-2,04010009765625E-08;-0,34912109375;9;687;2,08785235881805E-07;-2,08212472498417E-07;100 nA
-0,400390625;351,281584113099;-2,078857421875E-08;-0,399078369140625;9;688;2,08785235881805E-07;-2,08212472498417E-07;100 nA
-0,450439453125;351,782072111836;-2,0703125E-08;-0,44891357421875;9;689;2,08785235881805E-07;-2,08212472498417E-07;100 nA
-0,50048828125;352,282560110572;-1,9281005859375E-08;-0,49884033203125;9;690;2,08785235881805E-07;-2,08212472498417E-07;100 nA
-0,550537109375;352,783048109308;-1,5362548828125E-08;-0,548736572265625;9;691;2,08785235881805E-07;-2,08212472498417E-07;100 nA
-0,6005859375;353,283536108045;-1,44805908203125E-08;-0,598663330078125;9;692;2,08785235881805E-07;-2,08212472498417E-07;100 nA
-0,650634765625;353,784024106781;-1,4105224609375E-08;-0,648651123046875;9;693;2,08785235881805E-07;-2,08212472498417E-07;100 nA
-0,70068359375;354,284512105518;-1,3543701171875E-08;-0,698577880859375;9;694;2,08785235881805E-07;-2,08212472498417E-07;100 nA
-0,750732421875;354,785000104254;-1,30706787109375E-08;-0,748626708984375;9;695;2,08785235881805E-07;-2,08212472498417E-07;100 nA
-0,80078125;355,28548810299;-1,2799072265625E-08;-0,79864501953125;9;696;2,08785235881805E-07;-2,08212472498417E-07;100 nA
-0,850830078125;355,785976101727;-1,26068115234375E-08;-0,848388671875;9;697;2,08785235881805E-07;-2,08212472498417E-07;100 nA
-0,90087890625;356,286464100463;-1,251220703125E-08;-0,8984375;9;698;2,08785235881805E-07;-2,08212472498417E-07;100 nA
-0,950927734375;356,7869520992;-1,260986328125E-08;-0,94879150390625;9;699;2,08785235881805E-07;-2,08212472498417E-07;100 nA
-1,0009765625;357,287440097936;-1,2908935546875E-08;-0,99884033203125;9;700;2,08785235881805E-07;-2,08212472498417E-07;100 nA
-0,950927734375;357,787928096672;-9,185791015625E-09;-0,9490966796875;9;701;2,08785235881805E-07;-2,08212472498417E-07;100 nA
-0,90087890625;358,288416095409;-6,781005859375E-09;-0,89874267578125;9;702;2,08785235881805E-07;-2,08212472498417E-07;100 nA
-0,850830078125;358,788904094145;-4,94384765625E-09;-0,848388671875;9;703;2,08785235881805E-07;-2,08212472498417E-07;100 nA
-0,80078125;359,289392092881;-3,509521484375E-09;-0,79833984375;9;704;2,08785235881805E-07;-2,08212472498417E-07;100 nA
-0,750732421875;359,789880091618;-2,3040771484375E-09;-0,7486572265625;9;705;2,08785235881805E-07;-2,08212472498417E-07;100 nA
-0,70068359375;360,290368090354;-1,1871337890625E-09;-0,698638916015625;9;706;2,08785235881805E-07;-2,08212472498417E-07;100 nA
-0,650634765625;360,790856089091;-1,89208984375E-10;-0,648590087890625;9;707;2,08785235881805E-07;-2,08212472498417E-07;100 nA
-0,6005859375;361,291344087827;8,30078125E-10;-0,5987548828125;9;708;2,08785235881805E-07;-2,08212472498417E-07;100 nA
-0,550537109375;361,791832086563;1,8707275390625E-09;-0,548858642578125;9;709;2,08785235881805E-07;-2,08212472498417E-07;100 nA
-0,50048828125;362,2923200853;2,911376953125E-09;-0,49884033203125;9;710;2,08785235881805E-07;-2,08212472498417E-07;100 nA
-0,450439453125;362,792808084036;3,80859375E-09;-0,449005126953125;9;711;2,08785235881805E-07;-2,08212472498417E-07;100 nA
-0,400390625;363,293296082773;4,5501708984375E-09;-0,399200439453125;9;712;2,08785235881805E-07;-2,08212472498417E-07;100 nA
-0,350341796875;363,793784081509;5,2276611328125E-09;-0,349273681640625;9;713;2,08785235881805E-07;-2,08212472498417E-07;100 nA
-0,30029296875;364,294272080245;5,828857421875E-09;-0,299285888671875;9;714;2,08785235881805E-07;-2,08212472498417E-07;100 nA
-0,250244140625;364,794760078982;6,4117431640625E-09;-0,24932861328125;9;715;2,08785235881805E-07;-2,08212472498417E-07;100 nA
-0,2001953125;365,295248077718;7,12890625E-09;-0,199493408203125;9;716;2,08785235881805E-07;-2,08212472498417E-07;100 nA
-0,150146484375;365,795736076455;8,172607421875E-09;-0,149627685546875;9;717;2,08785235881805E-07;-2,08212472498417E-07;100 nA
-0,10009765625;366,296224075191;9,4573974609375E-09;-0,099700927734375;9;718;2,08785235881805E-07;-2,08212472498417E-07;100 nA
-0,050048828125;366,796712073927;1,09466552734375E-08;-0,049896240234375;9;719;2,08785235881805E-07;-2,08212472498417E-07;100 nA
0;367,297200072664;1,2506103515625E-08;9,46044921874972E-05;9;720;2,08785235881805E-07;-2,08212472498417E-07;100 nA
0,050048828125;367,7976880714;1,41387939453125E-08;0,050018310546875;10;721;2,08745524287224E-07;-2,07792446017265E-07;100 nA
0,10009765625;368,298176070136;1,5325927734375E-08;0,100006103515625;10;722;2,08745524287224E-07;-2,07792446017265E-07;100 nA
0,150146484375;368,798664068873;1,54327392578125E-08;0,1500244140625;10;723;2,08745524287224E-07;-2,07792446017265E-07;100 nA
0,2001953125;369,299152067609;1,44317626953125E-08;0,200042724609375;10;724;2,08745524287224E-07;-2,07792446017265E-07;100 nA
0,250244140625;369,799640066346;1,32598876953125E-08;0,25006103515625;10;725;2,08745524287224E-07;-2,07792446017265E-07;100 nA
0,30029296875;370,300128065082;1,30462646484375E-08;0,300018310546875;10;726;2,08745524287224E-07;-2,07792446017265E-07;100 nA
0,350341796875;370,800616063818;1,30706787109375E-08;0,350128173828125;10;727;2,08745524287224E-07;-2,07792446017265E-07;100 nA
0,400390625;371,301104062555;1,31744384765625E-08;0,40008544921875;10;728;2,08745524287224E-07;-2,07792446017265E-07;100 nA
0,450439453125;371,801592061291;1,33880615234375E-08;0,450103759765625;10;729;2,08745524287224E-07;-2,07792446017265E-07;100 nA
0,50048828125;372,302080060028;1,3671875E-08;0,5001220703125;10;730;2,08745524287224E-07;-2,07792446017265E-07;100 nA
0,550537109375;372,802568058764;1,39862060546875E-08;0,550140380859375;10;731;2,08745524287224E-07;-2,07792446017265E-07;100 nA
0,6005859375;373,3030560575;1,42913818359375E-08;0,60003662109375;10;732;2,08745524287224E-07;-2,07792446017265E-07;100 nA
0,650634765625;373,803544056237;1,4495849609375E-08;0,649993896484375;10;733;2,08745524287224E-07;-2,07792446017265E-07;100 nA
0,70068359375;374,304032054973;1,46575927734375E-08;0,69989013671875;10;734;2,08745524287224E-07;-2,07792446017265E-07;100 nA
0,750732421875;374,80452005371;1,47796630859375E-08;0,749847412109375;10;735;2,08745524287224E-07;-2,07792446017265E-07;100 nA
0,80078125;375,305008052446;1,48681640625E-08;0,79986572265625;10;736;2,08745524287224E-07;-2,07792446017265E-07;100 nA
0,850830078125;375,805496051182;1,49749755859375E-08;0,84930419921875;10;737;2,08745524287224E-07;-2,07792446017265E-07;100 nA
0,90087890625;376,305984049919;1,51763916015625E-08;0,899658203125;10;738;2,08745524287224E-07;-2,07792446017265E-07;100 nA
0,950927734375;376,806472048655;1,53839111328125E-08;0,95001220703125;10;739;2,08745524287224E-07;-2,07792446017265E-07;100 nA
1,0009765625;377,306960047392;1,56585693359375E-08;0,999755859375;10;740;2,08745524287224E-07;-2,07792446017265E-07;100 nA
0,950927734375;377,807448046128;1,2225341796875E-08;0,94970703125;10;741;2,08745524287224E-07;-2,07792446017265E-07;100 nA
0,90087890625;378,307936044864;9,8541259765625E-09;0,89935302734375;10;742;2,08745524287224E-07;-2,07792446017265E-07;100 nA
0,850830078125;378,808424043601;8,04443359375E-09;0,849609375;10;743;2,08745524287224E-07;-2,07792446017265E-07;100 nA
0,80078125;379,308912042337;6,5216064453125E-09;0,80047607421875;10;744;2,08745524287224E-07;-2,07792446017265E-07;100 nA
0,750732421875;379,809400041073;5,1849365234375E-09;0,749847412109375;10;745;2,08745524287224E-07;-2,07792446017265E-07;100 nA
0,70068359375;380,30988803981;3,9337158203125E-09;0,699981689453125;10;746;2,08745524287224E-07;-2,07792446017265E-07;100 nA
0,650634765625;380,810376038546;2,691650390625E-09;0,650115966796875;10;747;2,08745524287224E-07;-2,07792446017265E-07;100 nA
0,6005859375;381,310864037283;1,5045166015625E-09;0,600128173828125;10;748;2,08745524287224E-07;-2,07792446017265E-07;100 nA
0,550537109375;381,811352036019;3,35693359375E-10;0,5501708984375;10;749;2,08745524287224E-07;-2,07792446017265E-07;100 nA
0,50048828125;382,311840034755;-7,476806640625E-10;0,500213623046875;10;750;2,08745524287224E-07;-2,07792446017265E-07;100 nA
0,450439453125;382,812328033492;-1,739501953125E-09;0,450164794921875;10;751;2,08745524287224E-07;-2,07792446017265E-07;100 nA
0,400390625;383,312816032228;-2,728271484375E-09;0,400177001953125;10;752;2,08745524287224E-07;-2,07792446017265E-07;100 nA
0,350341796875;383,813304030965;-3,692626953125E-09;0,350189208984375;10;753;2,08745524287224E-07;-2,07792446017265E-07;100 nA
0,30029296875;384,313792029701;-4,559326171875E-09;0,300140380859375;10;754;2,08745524287224E-07;-2,07792446017265E-07;100 nA
0,250244140625;384,814280028437;-5,364990234375E-09;0,250152587890625;10;755;2,08745524287224E-07;-2,07792446017265E-07;100 nA
0,2001953125;385,314768027174;-6,2652587890625E-09;0,200164794921875;10;756;2,08745524287224E-07;-2,07792446017265E-07;100 nA
0,150146484375;385,81525602591;-7,2967529296875E-09;0,150115966796875;10;757;2,08745524287224E-07;-2,07792446017265E-07;100 nA
0,10009765625;386,315744024647;-8,6029052734375E-09;0,100189208984375;10;758;2,08745524287224E-07;-2,07792446017265E-07;100 nA
0,050048828125;386,816232023383;-1,0595703125E-08;0,050140380859375;10;759;2,08745524287224E-07;-2,07792446017265E-07;100 nA
0;387,316720022119;-1,33392333984375E-08;0,000149536132812503;10;760;2,08745524287224E-07;-2,07792446017265E-07;100 nA
-0,050048828125;387,817208020856;-1,5655517578125E-08;-0,049774169921875;10;761;2,08745524287224E-07;-2,07792446017265E-07;100 nA
-0,10009765625;388,317696019592;-1,68670654296875E-08;-0,099609375;10;762;2,08745524287224E-07;-2,07792446017265E-07;100 nA
-0,150146484375;388,818184018328;-1,7767333984375E-08;-0,149566650390625;10;763;2,08745524287224E-07;-2,07792446017265E-07;100 nA
-0,2001953125;389,318672017065;-1,85760498046875E-08;-0,199462890625;10;764;2,08745524287224E-07;-2,07792446017265E-07;100 nA
-0,250244140625;389,819160015801;-1,92413330078125E-08;-0,24932861328125;10;765;2,08745524287224E-07;-2,07792446017265E-07;100 nA
-0,30029296875;390,319648014538;-1,98516845703125E-08;-0,299224853515625;10;766;2,08745524287224E-07;-2,07792446017265E-07;100 nA
-0,350341796875;390,820136013274;-2,04193115234375E-08;-0,349212646484375;10;767;2,08745524287224E-07;-2,07792446017265E-07;100 nA
-0,400390625;391,32062401201;-2,07916259765625E-08;-0,399139404296875;10;768;2,08745524287224E-07;-2,07792446017265E-07;100 nA
-0,450439453125;391,821112010747;-2,06817626953125E-08;-0,448974609375;10;769;2,08745524287224E-07;-2,07792446017265E-07;100 nA
-0,50048828125;392,321600009483;-1,910400390625E-08;-0,498870849609375;10;770;2,08745524287224E-07;-2,07792446017265E-07;100 nA
-0,550537109375;392,82208800822;-1,5240478515625E-08;-0,54876708984375;10;771;2,08745524287224E-07;-2,07792446017265E-07;100 nA
-0,6005859375;393,322576006956;-1,44195556640625E-08;-0,5986328125;10;772;2,08745524287224E-07;-2,07792446017265E-07;100 nA
-0,650634765625;393,823064005692;-1,4019775390625E-08;-0,64862060546875;10;773;2,08745524287224E-07;-2,07792446017265E-07;100 nA
-0,70068359375;394,323552004429;-1,34796142578125E-08;-0,698577880859375;10;774;2,08745524287224E-07;-2,07792446017265E-07;100 nA
-0,750732421875;394,824040003165;-1,2994384765625E-08;-0,74859619140625;10;775;2,08745524287224E-07;-2,07792446017265E-07;100 nA
-0,80078125;395,324528001902;-1,26556396484375E-08;-0,79864501953125;10;776;2,08745524287224E-07;-2,07792446017265E-07;100 nA
-0,850830078125;395,825016000638;-1,25E-08;-0,84869384765625;10;777;2,08745524287224E-07;-2,07792446017265E-07;100 nA
-0,90087890625;396,325503999374;-1,24237060546875E-08;-0,89874267578125;10;778;2,08745524287224E-07;-2,07792446017265E-07;100 nA
-0,950927734375;396,825991998111;-1,25640869140625E-08;-0,9490966796875;10;779;2,08745524287224E-07;-2,07792446017265E-07;100 nA
-1,0009765625;397,326479996847;-1,28875732421875E-08;-0,99945068359375;10;780;2,08745524287224E-07;-2,07792446017265E-07;100 nA
-0,950927734375;397,826967995583;-9,1461181640625E-09;-0,94940185546875;10;781;2,08745524287224E-07;-2,07792446017265E-07;100 nA
-0,90087890625;398,32745599432;-6,7291259765625E-09;-0,89813232421875;10;782;2,08745524287224E-07;-2,07792446017265E-07;100 nA
-0,850830078125;398,827943993056;-4,9957275390625E-09;-0,848388671875;10;783;2,08745524287224E-07;-2,07792446017265E-07;100 nA
-0,80078125;399,328431991793;-3,5491943359375E-09;-0,7989501953125;10;784;2,08745524287224E-07;-2,07792446017265E-07;100 nA
-0,750732421875;399,828919990529;-2,2796630859375E-09;-0,748626708984375;10;785;2,08745524287224E-07;-2,07792446017265E-07;100 nA
-0,70068359375;400,329407989265;-1,226806640625E-09;-0,698638916015625;10;786;2,08745524287224E-07;-2,07792446017265E-07;100 nA
-0,650634765625;400,829895988002;-1,800537109375E-10;-0,648651123046875;10;787;2,08745524287224E-07;-2,07792446017265E-07;100 nA
-0,6005859375;401,330383986738;8,026123046875E-10;-0,59869384765625;10;788;2,08745524287224E-07;-2,07792446017265E-07;100 nA
-0,550537109375;401,830871985475;1,8524169921875E-09;-0,548858642578125;10;789;2,08745524287224E-07;-2,07792446017265E-07;100 nA
-0,50048828125;402,331359984211;2,886962890625E-09;-0,498931884765625;10;790;2,08745524287224E-07;-2,07792446017265E-07;100 nA
-0,450439453125;402,831847982947;3,7872314453125E-09;-0,4490966796875;10;791;2,08745524287224E-07;-2,07792446017265E-07;100 nA
-0,400390625;403,332335981684;4,534912109375E-09;-0,399139404296875;10;792;2,08745524287224E-07;-2,07792446017265E-07;100 nA
-0,350341796875;403,83282398042;5,18798828125E-09;-0,349212646484375;10;793;2,08745524287224E-07;-2,07792446017265E-07;100 nA
-0,30029296875;404,333311979157;5,7952880859375E-09;-0,29931640625;10;794;2,08745524287224E-07;-2,07792446017265E-07;100 nA
-0,250244140625;404,833799977893;6,4056396484375E-09;-0,24945068359375;10;795;2,08745524287224E-07;-2,07792446017265E-07;100 nA
-0,2001953125;405,334287976629;7,122802734375E-09;-0,199493408203125;10;796;2,08745524287224E-07;-2,07792446017265E-07;100 nA
-0,150146484375;405,834775975366;8,1939697265625E-09;-0,14971923828125;10;797;2,08745524287224E-07;-2,07792446017265E-07;100 nA
-0,10009765625;406,335263974102;9,503173828125E-09;-0,099822998046875;10;798;2,08745524287224E-07;-2,07792446017265E-07;100 nA
-0,050048828125;406,835751972838;1,09710693359375E-08;-0,04986572265625;10;799;2,08745524287224E-07;-2,07792446017265E-07;100 nA
0;407,336239971575;1,2530517578125E-08;9,76562499999944E-05;10;800;2,08745524287224E-07;-2,07792446017265E-07;100 nA
