Potential applied (V);Time (s);WE(1).Current (A);WE(1).Potential (V);Scan;Index;Q+;Q-;Current range
0,050048828125;7,4135429812826;8,7890625E-10;0,050079345703125;1;1;1,23309083282948E-07;-1,64415165781975E-07;100 nA
0,10009765625;7,91403098001899;1,7486572265625E-09;0,10009765625;1;2;1,23309083282948E-07;-1,64415165781975E-07;100 nA
0,150146484375;8,41451897875538;2,423095703125E-09;0,150115966796875;1;3;1,23309083282948E-07;-1,64415165781975E-07;100 nA
0,2001953125;8,91500697749177;3,1951904296875E-09;0,200042724609375;1;4;1,23309083282948E-07;-1,64415165781975E-07;100 nA
0,250244140625;9,41549497622816;4,00390625E-09;0,2501220703125;1;5;1,23309083282948E-07;-1,64415165781975E-07;100 nA
0,30029296875;9,91598297496455;4,8919677734375E-09;0,300079345703125;1;6;1,23309083282948E-07;-1,64415165781975E-07;100 nA
0,350341796875;10,4164709737009;5,8563232421875E-09;0,350067138671875;1;7;1,23309083282948E-07;-1,64415165781975E-07;100 nA
0,400390625;10,9169589724373;6,82373046875E-09;0,40008544921875;1;8;1,23309083282948E-07;-1,64415165781975E-07;100 nA
0,450439453125;11,4174469711737;7,611083984375E-09;0,450103759765625;1;9;1,23309083282948E-07;-1,64415165781975E-07;100 nA
0,50048828125;11,9179349699101;8,6212158203125E-09;0,50018310546875;1;10;1,23309083282948E-07;-1,64415165781975E-07;100 nA
0,550537109375;12,4184229686465;9,43603515625E-09;0,550048828125;1;11;1,23309083282948E-07;-1,64415165781975E-07;100 nA
0,6005859375;12,9189109673829;1,00433349609375E-08;0,60009765625;1;12;1,23309083282948E-07;-1,64415165781975E-07;100 nA
0,650634765625;13,4193989661193;1,058349609375E-08;0,650115966796875;1;13;1,23309083282948E-07;-1,64415165781975E-07;100 nA
0,70068359375;13,9198869648557;1,08062744140625E-08;0,699920654296875;1;14;1,23309083282948E-07;-1,64415165781975E-07;100 nA
0,750732421875;14,4203749635921;1,08673095703125E-08;0,749847412109375;1;15;1,23309083282948E-07;-1,64415165781975E-07;100 nA
0,80078125;14,9208629623284;1,0980224609375E-08;0,79986572265625;1;16;1,23309083282948E-07;-1,64415165781975E-07;100 nA
0,850830078125;15,4213509610648;1,10565185546875E-08;0,849609375;1;17;1,23309083282948E-07;-1,64415165781975E-07;100 nA
0,90087890625;15,9218389598012;1,116943359375E-08;0,89996337890625;1;18;1,23309083282948E-07;-1,64415165781975E-07;100 nA
0,950927734375;16,4223269585376;1,13189697265625E-08;0,94940185546875;1;19;1,23309083282948E-07;-1,64415165781975E-07;100 nA
1,0009765625;16,922814957274;1,15386962890625E-08;0,99945068359375;1;20;1,23309083282948E-07;-1,64415165781975E-07;100 nA
0,950927734375;17,4233029560104;7,4737548828125E-09;0,95001220703125;1;21;1,23309083282948E-07;-1,64415165781975E-07;100 nA
0,90087890625;17,9237909547468;5,1483154296875E-09;0,89996337890625;1;22;1,23309083282948E-07;-1,64415165781975E-07;100 nA
0,850830078125;18,4242789534832;3,5858154296875E-09;0,84991455078125;1;23;1,23309083282948E-07;-1,64415165781975E-07;100 nA
0,80078125;18,9247669522196;2,392578125E-09;0,80047607421875;1;24;1,23309083282948E-07;-1,64415165781975E-07;100 nA
0,750732421875;19,4252549509559;1,416015625E-09;0,7498779296875;1;25;1,23309083282948E-07;-1,64415165781975E-07;100 nA
0,70068359375;19,9257429496923;5,828857421875E-10;0,699981689453125;1;26;1,23309083282948E-07;-1,64415165781975E-07;100 nA
0,650634765625;20,4262309484287;-2,166748046875E-10;0,650115966796875;1;27;1,23309083282948E-07;-1,64415165781975E-07;100 nA
0,6005859375;20,9267189471651;-1,068115234375E-09;0,60015869140625;1;28;1,23309083282948E-07;-1,64415165781975E-07;100 nA
0,550537109375;21,4272069459015;-1,9744873046875E-09;0,550140380859375;1;29;1,23309083282948E-07;-1,64415165781975E-07;100 nA
0,50048828125;21,9276949446379;-2,947998046875E-09;0,50018310546875;1;30;1,23309083282948E-07;-1,64415165781975E-07;100 nA
0,450439453125;22,4281829433743;-3,8055419921875E-09;0,45013427734375;1;31;1,23309083282948E-07;-1,64415165781975E-07;100 nA
0,400390625;22,9286709421107;-4,6905517578125E-09;0,400177001953125;1;32;1,23309083282948E-07;-1,64415165781975E-07;100 nA
0,350341796875;23,4291589408471;-5,535888671875E-09;0,35015869140625;1;33;1,23309083282948E-07;-1,64415165781975E-07;100 nA
0,30029296875;23,9296469395834;-6,329345703125E-09;0,3001708984375;1;34;1,23309083282948E-07;-1,64415165781975E-07;100 nA
0,250244140625;24,4301349383198;-7,1136474609375E-09;0,250091552734375;1;35;1,23309083282948E-07;-1,64415165781975E-07;100 nA
0,2001953125;24,9306229370562;-7,696533203125E-09;0,200164794921875;1;36;1,23309083282948E-07;-1,64415165781975E-07;100 nA
0,150146484375;25,4311109357926;-8,197021484375E-09;0,15008544921875;1;37;1,23309083282948E-07;-1,64415165781975E-07;100 nA
0,10009765625;25,931598934529;-8,6822509765625E-09;0,10009765625;1;38;1,23309083282948E-07;-1,64415165781975E-07;100 nA
0,050048828125;26,4320869332654;-9,3780517578125E-09;0,0501708984375;1;39;1,23309083282948E-07;-1,64415165781975E-07;100 nA
0;26,9325749320018;-1,0430908203125E-08;0,000158691406249994;1;40;1,23309083282948E-07;-1,64415165781975E-07;100 nA
-0,050048828125;27,4330629307382;-1,23870849609375E-08;-0,0497039794921875;1;41;1,23309083282948E-07;-1,64415165781975E-07;100 nA
-0,10009765625;27,9335509294746;-1,46087646484375E-08;-0,099639892578125;1;42;1,23309083282948E-07;-1,64415165781975E-07;100 nA
-0,150146484375;28,434038928211;-1,44195556640625E-08;-0,1495361328125;1;43;1,23309083282948E-07;-1,64415165781975E-07;100 nA
-0,2001953125;28,9345269269473;-9,954833984375E-09;-0,199462890625;1;44;1,23309083282948E-07;-1,64415165781975E-07;100 nA
-0,250244140625;29,4350149256837;-9,0118408203125E-09;-0,249298095703125;1;45;1,23309083282948E-07;-1,64415165781975E-07;100 nA
-0,30029296875;29,9355029244201;-9,3994140625E-09;-0,2991943359375;1;46;1,23309083282948E-07;-1,64415165781975E-07;100 nA
-0,350341796875;30,4359909231565;-9,765625E-09;-0,349151611328125;1;47;1,23309083282948E-07;-1,64415165781975E-07;100 nA
-0,400390625;30,9364789218929;-9,881591796875E-09;-0,399078369140625;1;48;1,23309083282948E-07;-1,64415165781975E-07;100 nA
-0,450439453125;31,4369669206293;-1,0076904296875E-08;-0,448883056640625;1;49;1,23309083282948E-07;-1,64415165781975E-07;100 nA
-0,50048828125;31,9374549193657;-1,036376953125E-08;-0,49884033203125;1;50;1,23309083282948E-07;-1,64415165781975E-07;100 nA
-0,550537109375;32,4379429181021;-1,0601806640625E-08;-0,548736572265625;1;51;1,23309083282948E-07;-1,64415165781975E-07;100 nA
-0,6005859375;32,9384309168385;-1,07452392578125E-08;-0,598663330078125;1;52;1,23309083282948E-07;-1,64415165781975E-07;100 nA
-0,650634765625;33,4389189155748;-1,0858154296875E-08;-0,6485595703125;1;53;1,23309083282948E-07;-1,64415165781975E-07;100 nA
-0,70068359375;33,9394069143112;-1,09710693359375E-08;-0,69854736328125;1;54;1,23309083282948E-07;-1,64415165781975E-07;100 nA
-0,750732421875;34,4398949130476;-1,11358642578125E-08;-0,748565673828125;1;55;1,23309083282948E-07;-1,64415165781975E-07;100 nA
-0,80078125;34,940382911784;-1,13311767578125E-08;-0,7989501953125;1;56;1,23309083282948E-07;-1,64415165781975E-07;100 nA
-0,850830078125;35,4408709105204;-1,1627197265625E-08;-0,84808349609375;1;57;1,23309083282948E-07;-1,64415165781975E-07;100 nA
-0,90087890625;35,9413589092568;-1,20025634765625E-08;-0,8990478515625;1;58;1,23309083282948E-07;-1,64415165781975E-07;100 nA
-0,950927734375;36,4418469079932;-1,24786376953125E-08;-0,948486328125;1;59;1,23309083282948E-07;-1,64415165781975E-07;100 nA
-1,0009765625;36,9423349067296;-1,29425048828125E-08;-0,99884033203125;1;60;1,23309083282948E-07;-1,64415165781975E-07;100 nA
-0,950927734375;37,442822905466;-8,648681640625E-09;-0,94879150390625;1;61;1,23309083282948E-07;-1,64415165781975E-07;100 nA
-0,90087890625;37,9433109042023;-6,219482421875E-09;-0,89874267578125;1;62;1,23309083282948E-07;-1,64415165781975E-07;100 nA
-0,850830078125;38,4437989029387;-4,4708251953125E-09;-0,848388671875;1;63;1,23309083282948E-07;-1,64415165781975E-07;100 nA
-0,80078125;38,9442869016751;-3,155517578125E-09;-0,7989501953125;1;64;1,23309083282948E-07;-1,64415165781975E-07;100 nA
-0,750732421875;39,4447749004115;-2,0721435546875E-09;-0,748626708984375;1;65;1,23309083282948E-07;-1,64415165781975E-07;100 nA
-0,70068359375;39,9452628991479;-1,11083984375E-09;-0,6986083984375;1;66;1,23309083282948E-07;-1,64415165781975E-07;100 nA
-0,650634765625;40,4457508978843;-2,01416015625E-10;-0,648590087890625;1;67;1,23309083282948E-07;-1,64415165781975E-07;100 nA
-0,6005859375;40,9462388966207;7,110595703125E-10;-0,59869384765625;1;68;1,23309083282948E-07;-1,64415165781975E-07;100 nA
-0,550537109375;41,4467268953571;1,617431640625E-09;-0,548828125;1;69;1,23309083282948E-07;-1,64415165781975E-07;100 nA
-0,50048828125;41,9472148940935;2,496337890625E-09;-0,498931884765625;1;70;1,23309083282948E-07;-1,64415165781975E-07;100 nA
-0,450439453125;42,4477028928299;3,399658203125E-09;-0,44903564453125;1;71;1,23309083282948E-07;-1,64415165781975E-07;100 nA
-0,400390625;42,9481908915662;4,2388916015625E-09;-0,399139404296875;1;72;1,23309083282948E-07;-1,64415165781975E-07;100 nA
-0,350341796875;43,4486788903026;5,194091796875E-09;-0,3492431640625;1;73;1,23309083282948E-07;-1,64415165781975E-07;100 nA
-0,30029296875;43,949166889039;6,3751220703125E-09;-0,299346923828125;1;74;1,23309083282948E-07;-1,64415165781975E-07;100 nA
-0,250244140625;44,4496548877754;7,366943359375E-09;-0,2493896484375;1;75;1,23309083282948E-07;-1,64415165781975E-07;100 nA
-0,2001953125;44,9501428865118;7,7484130859375E-09;-0,199493408203125;1;76;1,23309083282948E-07;-1,64415165781975E-07;100 nA
-0,150146484375;45,4506308852482;7,9925537109375E-09;-0,149688720703125;1;77;1,23309083282948E-07;-1,64415165781975E-07;100 nA
-0,10009765625;45,9511188839846;8,1512451171875E-09;-0,099761962890625;1;78;1,23309083282948E-07;-1,64415165781975E-07;100 nA
-0,050048828125;46,451606882721;8,3160400390625E-09;-0,049896240234375;1;79;1,23309083282948E-07;-1,64415165781975E-07;100 nA
0;46,9520948814574;8,3160400390625E-09;9,76562499999944E-05;1;80;1,23309083282948E-07;-1,64415165781975E-07;100 nA
0,050048828125;47,4525828801937;7,1136474609375E-09;0,050018310546875;2;81;1,52675807476044E-07;-1,64224244654179E-07;100 nA
0,10009765625;47,9530708789301;6,7413330078125E-09;0,100067138671875;2;82;1,52675807476044E-07;-1,64224244654179E-07;100 nA
0,150146484375;48,4535588776665;7,0404052734375E-09;0,1500244140625;2;83;1,52675807476044E-07;-1,64224244654179E-07;100 nA
0,2001953125;48,9540468764029;7,5439453125E-09;0,20001220703125;2;84;1,52675807476044E-07;-1,64224244654179E-07;100 nA
0,250244140625;49,4545348751393;8,1298828125E-09;0,249969482421875;2;85;1,52675807476044E-07;-1,64224244654179E-07;100 nA
0,30029296875;49,9550228738757;8,6700439453125E-09;0,300048828125;2;86;1,52675807476044E-07;-1,64224244654179E-07;100 nA
0,350341796875;50,4555108726121;9,3353271484375E-09;0,35009765625;2;87;1,52675807476044E-07;-1,64224244654179E-07;100 nA
0,400390625;50,9559988713485;1,00006103515625E-08;0,40008544921875;2;88;1,52675807476044E-07;-1,64224244654179E-07;100 nA
0,450439453125;51,4564868700849;1,0711669921875E-08;0,450042724609375;2;89;1,52675807476044E-07;-1,64224244654179E-07;100 nA
0,50048828125;51,9569748688212;1,1370849609375E-08;0,500091552734375;2;90;1,52675807476044E-07;-1,64224244654179E-07;100 nA
0,550537109375;52,4574628675576;1,19110107421875E-08;0,55010986328125;2;91;1,52675807476044E-07;-1,64224244654179E-07;100 nA
0,6005859375;52,957950866294;1,23016357421875E-08;0,600128173828125;2;92;1,52675807476044E-07;-1,64224244654179E-07;100 nA
0,650634765625;53,4584388650304;1,2457275390625E-08;0,650054931640625;2;93;1,52675807476044E-07;-1,64224244654179E-07;100 nA
0,70068359375;53,9589268637668;1,236572265625E-08;0,699920654296875;2;94;1,52675807476044E-07;-1,64224244654179E-07;100 nA
0,750732421875;54,4594148625032;1,21856689453125E-08;0,7498779296875;2;95;1,52675807476044E-07;-1,64224244654179E-07;100 nA
0,80078125;54,9599028612396;1,1993408203125E-08;0,8001708984375;2;96;1,52675807476044E-07;-1,64224244654179E-07;100 nA
0,850830078125;55,460390859976;1,182861328125E-08;0,84991455078125;2;97;1,52675807476044E-07;-1,64224244654179E-07;100 nA
0,90087890625;55,9608788587124;1,1749267578125E-08;0,89935302734375;2;98;1,52675807476044E-07;-1,64224244654179E-07;100 nA
0,950927734375;56,4613668574488;1,1785888671875E-08;0,95001220703125;2;99;1,52675807476044E-07;-1,64224244654179E-07;100 nA
1,0009765625;56,9618548561851;1,19110107421875E-08;1,00006103515625;2;100;1,52675807476044E-07;-1,64224244654179E-07;100 nA
0,950927734375;57,4623428549215;7,879638671875E-09;0,94970703125;2;101;1,52675807476044E-07;-1,64224244654179E-07;100 nA
0,90087890625;57,9628308536579;5,5145263671875E-09;0,89996337890625;2;102;1,52675807476044E-07;-1,64224244654179E-07;100 nA
0,850830078125;58,4633188523943;3,9581298828125E-09;0,84991455078125;2;103;1,52675807476044E-07;-1,64224244654179E-07;100 nA
0,80078125;58,9638068511307;2,7435302734375E-09;0,79986572265625;2;104;1,52675807476044E-07;-1,64224244654179E-07;100 nA
0,750732421875;59,4642948498671;1,77001953125E-09;0,749908447265625;2;105;1,52675807476044E-07;-1,64224244654179E-07;100 nA
0,70068359375;59,9647828486035;9,429931640625E-10;0,699981689453125;2;106;1,52675807476044E-07;-1,64224244654179E-07;100 nA
0,650634765625;60,4652708473399;9,1552734375E-11;0,650177001953125;2;107;1,52675807476044E-07;-1,64224244654179E-07;100 nA
0,6005859375;60,9657588460763;-7,476806640625E-10;0,600250244140625;2;108;1,52675807476044E-07;-1,64224244654179E-07;100 nA
0,550537109375;61,4662468448126;-1,7425537109375E-09;0,55023193359375;2;109;1,52675807476044E-07;-1,64224244654179E-07;100 nA
0,50048828125;61,966734843549;-2,6611328125E-09;0,500213623046875;2;110;1,52675807476044E-07;-1,64224244654179E-07;100 nA
0,450439453125;62,4672228422854;-3,680419921875E-09;0,450164794921875;2;111;1,52675807476044E-07;-1,64224244654179E-07;100 nA
0,400390625;62,9677108410218;-4,608154296875E-09;0,400238037109375;2;112;1,52675807476044E-07;-1,64224244654179E-07;100 nA
0,350341796875;63,4681988397582;-5,4534912109375E-09;0,350250244140625;2;113;1,52675807476044E-07;-1,64224244654179E-07;100 nA
0,30029296875;63,9686868384946;-6,25E-09;0,3001708984375;2;114;1,52675807476044E-07;-1,64224244654179E-07;100 nA
0,250244140625;64,469174837231;-7,04345703125E-09;0,250152587890625;2;115;1,52675807476044E-07;-1,64224244654179E-07;100 nA
0,2001953125;64,9696628359674;-7,635498046875E-09;0,200164794921875;2;116;1,52675807476044E-07;-1,64224244654179E-07;100 nA
0,150146484375;65,4701508347038;-8,154296875E-09;0,150146484375;2;117;1,52675807476044E-07;-1,64224244654179E-07;100 nA
0,10009765625;65,9706388334401;-8,69140625E-09;0,100128173828125;2;118;1,52675807476044E-07;-1,64224244654179E-07;100 nA
0,050048828125;66,4711268321765;-9,429931640625E-09;0,050079345703125;2;119;1,52675807476044E-07;-1,64224244654179E-07;100 nA
0;66,9716148309129;-1,07330322265625E-08;0,000152587890625;2;120;1,52675807476044E-07;-1,64224244654179E-07;100 nA
-0,050048828125;67,4721028296493;-1,3018798828125E-08;-0,0497039794921875;2;121;1,52675807476044E-07;-1,64224244654179E-07;100 nA
-0,10009765625;67,9725908283857;-1,56951904296875E-08;-0,099639892578125;2;122;1,52675807476044E-07;-1,64224244654179E-07;100 nA
-0,150146484375;68,4730788271221;-1,63116455078125E-08;-0,149566650390625;2;123;1,52675807476044E-07;-1,64224244654179E-07;100 nA
-0,2001953125;68,9735668258585;-1,1993408203125E-08;-0,199432373046875;2;124;1,52675807476044E-07;-1,64224244654179E-07;100 nA
-0,250244140625;69,4740548245949;-9,7991943359375E-09;-0,249359130859375;2;125;1,52675807476044E-07;-1,64224244654179E-07;100 nA
-0,30029296875;69,9745428233313;-9,8907470703125E-09;-0,299224853515625;2;126;1,52675807476044E-07;-1,64224244654179E-07;100 nA
-0,350341796875;70,4750308220677;-1,0015869140625E-08;-0,349212646484375;2;127;1,52675807476044E-07;-1,64224244654179E-07;100 nA
-0,400390625;70,975518820804;-1,00799560546875E-08;-0,399078369140625;2;128;1,52675807476044E-07;-1,64224244654179E-07;100 nA
-0,450439453125;71,4760068195404;-1,0125732421875E-08;-0,448974609375;2;129;1,52675807476044E-07;-1,64224244654179E-07;100 nA
-0,50048828125;71,9764948182768;-1,02813720703125E-08;-0,49884033203125;2;130;1,52675807476044E-07;-1,64224244654179E-07;100 nA
-0,550537109375;72,4769828170132;-1,03759765625E-08;-0,548797607421875;2;131;1,52675807476044E-07;-1,64224244654179E-07;100 nA
-0,6005859375;72,9774708157496;-1,038818359375E-08;-0,598663330078125;2;132;1,52675807476044E-07;-1,64224244654179E-07;100 nA
-0,650634765625;73,477958814486;-1,03973388671875E-08;-0,648590087890625;2;133;1,52675807476044E-07;-1,64224244654179E-07;100 nA
-0,70068359375;73,9784468132224;-1,04949951171875E-08;-0,69854736328125;2;134;1,52675807476044E-07;-1,64224244654179E-07;100 nA
-0,750732421875;74,4789348119588;-1,064453125E-08;-0,74859619140625;2;135;1,52675807476044E-07;-1,64224244654179E-07;100 nA
-0,80078125;74,9794228106952;-1,08123779296875E-08;-0,79864501953125;2;136;1,52675807476044E-07;-1,64224244654179E-07;100 nA
-0,850830078125;75,4799108094315;-1,107177734375E-08;-0,84930419921875;2;137;1,52675807476044E-07;-1,64224244654179E-07;100 nA
-0,90087890625;75,9803988081679;-1,14227294921875E-08;-0,89874267578125;2;138;1,52675807476044E-07;-1,64224244654179E-07;100 nA
-0,950927734375;76,4808868069043;-1,1859130859375E-08;-0,94940185546875;2;139;1,52675807476044E-07;-1,64224244654179E-07;100 nA
-1,0009765625;76,9813748056407;-1,23077392578125E-08;-0,99945068359375;2;140;1,52675807476044E-07;-1,64224244654179E-07;100 nA
-0,950927734375;77,4818628043771;-8,2275390625E-09;-0,9490966796875;2;141;1,52675807476044E-07;-1,64224244654179E-07;100 nA
-0,90087890625;77,9823508031135;-5,9112548828125E-09;-0,89874267578125;2;142;1,52675807476044E-07;-1,64224244654179E-07;100 nA
-0,850830078125;78,4828388018499;-4,254150390625E-09;-0,84869384765625;2;143;1,52675807476044E-07;-1,64224244654179E-07;100 nA
-0,80078125;78,9833268005863;-2,9815673828125E-09;-0,7989501953125;2;144;1,52675807476044E-07;-1,64224244654179E-07;100 nA
-0,750732421875;79,4838147993227;-1,8798828125E-09;-0,748687744140625;2;145;1,52675807476044E-07;-1,64224244654179E-07;100 nA
-0,70068359375;79,984302798059;-1,007080078125E-09;-0,698638916015625;2;146;1,52675807476044E-07;-1,64224244654179E-07;100 nA
-0,650634765625;80,4847907967954;-4,8828125E-11;-0,64862060546875;2;147;1,52675807476044E-07;-1,64224244654179E-07;100 nA
-0,6005859375;80,9852787955318;8,9111328125E-10;-0,59869384765625;2;148;1,52675807476044E-07;-1,64224244654179E-07;100 nA
-0,550537109375;81,4857667942682;1,77001953125E-09;-0,548828125;2;149;1,52675807476044E-07;-1,64224244654179E-07;100 nA
-0,50048828125;81,9862547930046;2,6885986328125E-09;-0,498870849609375;2;150;1,52675807476044E-07;-1,64224244654179E-07;100 nA
-0,450439453125;82,486742791741;3,5736083984375E-09;-0,449005126953125;2;151;1,52675807476044E-07;-1,64224244654179E-07;100 nA
-0,400390625;82,9872307904774;4,4464111328125E-09;-0,399139404296875;2;152;1,52675807476044E-07;-1,64224244654179E-07;100 nA
-0,350341796875;83,4877187892138;5,40771484375E-09;-0,3492431640625;2;153;1,52675807476044E-07;-1,64224244654179E-07;100 nA
-0,30029296875;83,9882067879502;6,5643310546875E-09;-0,299285888671875;2;154;1,52675807476044E-07;-1,64224244654179E-07;100 nA
-0,250244140625;84,4886947866866;7,611083984375E-09;-0,249420166015625;2;155;1,52675807476044E-07;-1,64224244654179E-07;100 nA
-0,2001953125;84,9891827854229;8,013916015625E-09;-0,199462890625;2;156;1,52675807476044E-07;-1,64224244654179E-07;100 nA
-0,150146484375;85,4896707841593;8,2489013671875E-09;-0,14959716796875;2;157;1,52675807476044E-07;-1,64224244654179E-07;100 nA
-0,10009765625;85,9901587828957;8,45947265625E-09;-0,0997314453125;2;158;1,52675807476044E-07;-1,64224244654179E-07;100 nA
-0,050048828125;86,4906467816321;8,648681640625E-09;-0,049835205078125;2;159;1,52675807476044E-07;-1,64224244654179E-07;100 nA
0;86,9911347803685;8,6822509765625E-09;9,1552734375E-05;2;160;1,52675807476044E-07;-1,64224244654179E-07;100 nA
0,050048828125;87,4916227791049;7,5042724609375E-09;0,050048828125;3;161;1,54685825109482E-07;-1,62580795586109E-07;100 nA
0,10009765625;87,9921107778413;7,049560546875E-09;0,10009765625;3;162;1,54685825109482E-07;-1,62580795586109E-07;100 nA
0,150146484375;88,4925987765777;7,3974609375E-09;0,15008544921875;3;163;1,54685825109482E-07;-1,62580795586109E-07;100 nA
0,2001953125;88,9930867753141;7,855224609375E-09;0,200042724609375;3;164;1,54685825109482E-07;-1,62580795586109E-07;100 nA
0,250244140625;89,4935747740504;8,4381103515625E-09;0,250091552734375;3;165;1,54685825109482E-07;-1,62580795586109E-07;100 nA
0,30029296875;89,9940627727868;8,978271484375E-09;0,30010986328125;3;166;1,54685825109482E-07;-1,62580795586109E-07;100 nA
0,350341796875;90,4945507715232;9,5977783203125E-09;0,35009765625;3;167;1,54685825109482E-07;-1,62580795586109E-07;100 nA
0,400390625;90,9950387702596;1,0284423828125E-08;0,400115966796875;3;168;1,54685825109482E-07;-1,62580795586109E-07;100 nA
0,450439453125;91,495526768996;1,09649658203125E-08;0,450103759765625;3;169;1,54685825109482E-07;-1,62580795586109E-07;100 nA
0,50048828125;91,9960147677324;1,15997314453125E-08;0,5001220703125;3;170;1,54685825109482E-07;-1,62580795586109E-07;100 nA
0,550537109375;92,4965027664688;1,212158203125E-08;0,55010986328125;3;171;1,54685825109482E-07;-1,62580795586109E-07;100 nA
0,6005859375;92,9969907652052;1,248779296875E-08;0,600128173828125;3;172;1,54685825109482E-07;-1,62580795586109E-07;100 nA
0,650634765625;93,4974787639416;1,2628173828125E-08;0,65008544921875;3;173;1,54685825109482E-07;-1,62580795586109E-07;100 nA
0,70068359375;93,9979667626779;1,25152587890625E-08;0,699981689453125;3;174;1,54685825109482E-07;-1,62580795586109E-07;100 nA
0,750732421875;94,4984547614143;1,22344970703125E-08;0,749847412109375;3;175;1,54685825109482E-07;-1,62580795586109E-07;100 nA
0,80078125;94,9989427601507;1,1962890625E-08;0,79986572265625;3;176;1,54685825109482E-07;-1,62580795586109E-07;100 nA
0,850830078125;95,4994307588871;1,1810302734375E-08;0,84991455078125;3;177;1,54685825109482E-07;-1,62580795586109E-07;100 nA
0,90087890625;95,9999187576235;1,1724853515625E-08;0,89996337890625;3;178;1,54685825109482E-07;-1,62580795586109E-07;100 nA
0,950927734375;96,5004067563599;1,1737060546875E-08;0,95001220703125;3;179;1,54685825109482E-07;-1,62580795586109E-07;100 nA
1,0009765625;97,0008947550963;1,18804931640625E-08;1,00006103515625;3;180;1,54685825109482E-07;-1,62580795586109E-07;100 nA
0,950927734375;97,5013827538327;7,8338623046875E-09;0,95001220703125;3;181;1,54685825109482E-07;-1,62580795586109E-07;100 nA
0,90087890625;98,0018707525691;5,499267578125E-09;0,89996337890625;3;182;1,54685825109482E-07;-1,62580795586109E-07;100 nA
0,850830078125;98,5023587513055;3,9154052734375E-09;0,84991455078125;3;183;1,54685825109482E-07;-1,62580795586109E-07;100 nA
0,80078125;99,0028467500418;2,813720703125E-09;0,8001708984375;3;184;1,54685825109482E-07;-1,62580795586109E-07;100 nA
0,750732421875;99,5033347487782;1,6754150390625E-09;0,74993896484375;3;185;1,54685825109482E-07;-1,62580795586109E-07;100 nA
0,70068359375;100,003822747515;8,392333984375E-10;0,70001220703125;3;186;1,54685825109482E-07;-1,62580795586109E-07;100 nA
0,650634765625;100,504310746251;4,8828125E-11;0,65008544921875;3;187;1,54685825109482E-07;-1,62580795586109E-07;100 nA
0,6005859375;101,004798744987;-8,453369140625E-10;0,60015869140625;3;188;1,54685825109482E-07;-1,62580795586109E-07;100 nA
0,550537109375;101,505286743724;-1,7669677734375E-09;0,5501708984375;3;189;1,54685825109482E-07;-1,62580795586109E-07;100 nA
0,50048828125;102,00577474246;-2,7099609375E-09;0,500152587890625;3;190;1,54685825109482E-07;-1,62580795586109E-07;100 nA
0,450439453125;102,506262741197;-3,6712646484375E-09;0,4501953125;3;191;1,54685825109482E-07;-1,62580795586109E-07;100 nA
0,400390625;103,006750739933;-4,632568359375E-09;0,400238037109375;3;192;1,54685825109482E-07;-1,62580795586109E-07;100 nA
0,350341796875;103,507238738669;-5,523681640625E-09;0,35015869140625;3;193;1,54685825109482E-07;-1,62580795586109E-07;100 nA
0,30029296875;104,007726737406;-6,3018798828125E-09;0,300140380859375;3;194;1,54685825109482E-07;-1,62580795586109E-07;100 nA
0,250244140625;104,508214736142;-7,1044921875E-09;0,250152587890625;3;195;1,54685825109482E-07;-1,62580795586109E-07;100 nA
0,2001953125;105,008702734879;-7,67822265625E-09;0,2000732421875;3;196;1,54685825109482E-07;-1,62580795586109E-07;100 nA
0,150146484375;105,509190733615;-8,19091796875E-09;0,15008544921875;3;197;1,54685825109482E-07;-1,62580795586109E-07;100 nA
0,10009765625;106,009678732351;-8,758544921875E-09;0,100128173828125;3;198;1,54685825109482E-07;-1,62580795586109E-07;100 nA
0,050048828125;106,510166731088;-9,4970703125E-09;0,05010986328125;3;199;1,54685825109482E-07;-1,62580795586109E-07;100 nA
0;107,010654729824;-1,0791015625E-08;0,000143432617187494;3;200;1,54685825109482E-07;-1,62580795586109E-07;100 nA
-0,050048828125;107,51114272856;-1,30096435546875E-08;-0,0498046875;3;201;1,54685825109482E-07;-1,62580795586109E-07;100 nA
-0,10009765625;108,011630727297;-1,56036376953125E-08;-0,099639892578125;3;202;1,54685825109482E-07;-1,62580795586109E-07;100 nA
-0,150146484375;108,512118726033;-1,6082763671875E-08;-0,149566650390625;3;203;1,54685825109482E-07;-1,62580795586109E-07;100 nA
-0,2001953125;109,01260672477;-1,1602783203125E-08;-0,199462890625;3;204;1,54685825109482E-07;-1,62580795586109E-07;100 nA
-0,250244140625;109,513094723506;-9,7503662109375E-09;-0,249420166015625;3;205;1,54685825109482E-07;-1,62580795586109E-07;100 nA
-0,30029296875;110,013582722242;-9,8785400390625E-09;-0,299285888671875;3;206;1,54685825109482E-07;-1,62580795586109E-07;100 nA
-0,350341796875;110,514070720979;-1,002197265625E-08;-0,349212646484375;3;207;1,54685825109482E-07;-1,62580795586109E-07;100 nA
-0,400390625;111,014558719715;-1,02935791015625E-08;-0,39910888671875;3;208;1,54685825109482E-07;-1,62580795586109E-07;100 nA
-0,450439453125;111,515046718452;-9,9456787109375E-09;-0,448944091796875;3;209;1,54685825109482E-07;-1,62580795586109E-07;100 nA
-0,50048828125;112,015534717188;-1,00921630859375E-08;-0,4989013671875;3;210;1,54685825109482E-07;-1,62580795586109E-07;100 nA
-0,550537109375;112,516022715924;-1,02691650390625E-08;-0,548828125;3;211;1,54685825109482E-07;-1,62580795586109E-07;100 nA
-0,6005859375;113,016510714661;-1,03302001953125E-08;-0,598663330078125;3;212;1,54685825109482E-07;-1,62580795586109E-07;100 nA
-0,650634765625;113,516998713397;-1,03179931640625E-08;-0,648590087890625;3;213;1,54685825109482E-07;-1,62580795586109E-07;100 nA
-0,70068359375;114,017486712134;-1,0369873046875E-08;-0,6986083984375;3;214;1,54685825109482E-07;-1,62580795586109E-07;100 nA
-0,750732421875;114,51797471087;-1,04766845703125E-08;-0,74859619140625;3;215;1,54685825109482E-07;-1,62580795586109E-07;100 nA
-0,80078125;115,018462709606;-1,06597900390625E-08;-0,79925537109375;3;216;1,54685825109482E-07;-1,62580795586109E-07;100 nA
-0,850830078125;115,518950708343;-1,0870361328125E-08;-0,8489990234375;3;217;1,54685825109482E-07;-1,62580795586109E-07;100 nA
-0,90087890625;116,019438707079;-1,1163330078125E-08;-0,89874267578125;3;218;1,54685825109482E-07;-1,62580795586109E-07;100 nA
-0,950927734375;116,519926705815;-1,15692138671875E-08;-0,94879150390625;3;219;1,54685825109482E-07;-1,62580795586109E-07;100 nA
-1,0009765625;117,020414704552;-1,20269775390625E-08;-0,9991455078125;3;220;1,54685825109482E-07;-1,62580795586109E-07;100 nA
-0,950927734375;117,520902703288;-7,977294921875E-09;-0,9490966796875;3;221;1,54685825109482E-07;-1,62580795586109E-07;100 nA
-0,90087890625;118,021390702025;-5,645751953125E-09;-0,8990478515625;3;222;1,54685825109482E-07;-1,62580795586109E-07;100 nA
-0,850830078125;118,521878700761;-4,0740966796875E-09;-0,84869384765625;3;223;1,54685825109482E-07;-1,62580795586109E-07;100 nA
-0,80078125;119,022366699497;-2,7923583984375E-09;-0,79864501953125;3;224;1,54685825109482E-07;-1,62580795586109E-07;100 nA
-0,750732421875;119,522854698234;-1,739501953125E-09;-0,7486572265625;3;225;1,54685825109482E-07;-1,62580795586109E-07;100 nA
-0,70068359375;120,02334269697;-8,087158203125E-10;-0,698638916015625;3;226;1,54685825109482E-07;-1,62580795586109E-07;100 nA
-0,650634765625;120,523830695707;1,0986328125E-10;-0,648651123046875;3;227;1,54685825109482E-07;-1,62580795586109E-07;100 nA
-0,6005859375;121,024318694443;1,01318359375E-09;-0,5987548828125;3;228;1,54685825109482E-07;-1,62580795586109E-07;100 nA
-0,550537109375;121,524806693179;1,885986328125E-09;-0,548797607421875;3;229;1,54685825109482E-07;-1,62580795586109E-07;100 nA
-0,50048828125;122,025294691916;2,783203125E-09;-0,49884033203125;3;230;1,54685825109482E-07;-1,62580795586109E-07;100 nA
-0,450439453125;122,525782690652;3,6651611328125E-09;-0,449005126953125;3;231;1,54685825109482E-07;-1,62580795586109E-07;100 nA
-0,400390625;123,026270689389;4,58984375E-09;-0,399139404296875;3;232;1,54685825109482E-07;-1,62580795586109E-07;100 nA
-0,350341796875;123,526758688125;5,511474609375E-09;-0,3492431640625;3;233;1,54685825109482E-07;-1,62580795586109E-07;100 nA
-0,30029296875;124,027246686861;6,610107421875E-09;-0,299285888671875;3;234;1,54685825109482E-07;-1,62580795586109E-07;100 nA
-0,250244140625;124,527734685598;7,6385498046875E-09;-0,24945068359375;3;235;1,54685825109482E-07;-1,62580795586109E-07;100 nA
-0,2001953125;125,028222684334;8,0413818359375E-09;-0,199554443359375;3;236;1,54685825109482E-07;-1,62580795586109E-07;100 nA
-0,150146484375;125,52871068307;8,282470703125E-09;-0,149658203125;3;237;1,54685825109482E-07;-1,62580795586109E-07;100 nA
-0,10009765625;126,029198681807;8,4686279296875E-09;-0,099761962890625;3;238;1,54685825109482E-07;-1,62580795586109E-07;100 nA
-0,050048828125;126,529686680543;8,6029052734375E-09;-0,0498046875;3;239;1,54685825109482E-07;-1,62580795586109E-07;100 nA
0;127,03017467928;8,4686279296875E-09;9,46044921874972E-05;3;240;1,54685825109482E-07;-1,62580795586109E-07;100 nA
0,050048828125;127,530662678016;7,2479248046875E-09;0,050079345703125;4;241;1,52429901063442E-07;-1,59577988088131E-07;100 nA
0,10009765625;128,031150676752;6,9732666015625E-09;0,10009765625;4;242;1,52429901063442E-07;-1,59577988088131E-07;100 nA
0,150146484375;128,531638675489;7,318115234375E-09;0,150054931640625;4;243;1,52429901063442E-07;-1,59577988088131E-07;100 nA
0,2001953125;129,032126674225;7,757568359375E-09;0,200042724609375;4;244;1,52429901063442E-07;-1,59577988088131E-07;100 nA
0,250244140625;129,532614672962;8,2977294921875E-09;0,25006103515625;4;245;1,52429901063442E-07;-1,59577988088131E-07;100 nA
0,30029296875;130,033102671698;8,8836669921875E-09;0,300048828125;4;246;1,52429901063442E-07;-1,59577988088131E-07;100 nA
0,350341796875;130,533590670434;9,48486328125E-09;0,350128173828125;4;247;1,52429901063442E-07;-1,59577988088131E-07;100 nA
0,400390625;131,034078669171;1,0174560546875E-08;0,400054931640625;4;248;1,52429901063442E-07;-1,59577988088131E-07;100 nA
0,450439453125;131,534566667907;1,07879638671875E-08;0,4500732421875;4;249;1,52429901063442E-07;-1,59577988088131E-07;100 nA
0,50048828125;132,035054666644;1,14288330078125E-08;0,5001220703125;4;250;1,52429901063442E-07;-1,59577988088131E-07;100 nA
0,550537109375;132,53554266538;1,19415283203125E-08;0,550079345703125;4;251;1,52429901063442E-07;-1,59577988088131E-07;100 nA
0,6005859375;133,036030664116;1,22528076171875E-08;0,60009765625;4;252;1,52429901063442E-07;-1,59577988088131E-07;100 nA
0,650634765625;133,536518662853;1,23199462890625E-08;0,6500244140625;4;253;1,52429901063442E-07;-1,59577988088131E-07;100 nA
0,70068359375;134,037006661589;1,21826171875E-08;0,6998291015625;4;254;1,52429901063442E-07;-1,59577988088131E-07;100 nA
0,750732421875;134,537494660325;1,19720458984375E-08;0,749847412109375;4;255;1,52429901063442E-07;-1,59577988088131E-07;100 nA
0,80078125;135,037982659062;1,173095703125E-08;0,799560546875;4;256;1,52429901063442E-07;-1,59577988088131E-07;100 nA
0,850830078125;135,538470657798;1,16058349609375E-08;0,849609375;4;257;1,52429901063442E-07;-1,59577988088131E-07;100 nA
0,90087890625;136,038958656535;1,15570068359375E-08;0,899658203125;4;258;1,52429901063442E-07;-1,59577988088131E-07;100 nA
0,950927734375;136,539446655271;1,15234375E-08;0,95001220703125;4;259;1,52429901063442E-07;-1,59577988088131E-07;100 nA
1,0009765625;137,039934654007;1,1737060546875E-08;0,99945068359375;4;260;1,52429901063442E-07;-1,59577988088131E-07;100 nA
0,950927734375;137,540422652744;7,70263671875E-09;0,94970703125;4;261;1,52429901063442E-07;-1,59577988088131E-07;100 nA
0,90087890625;138,04091065148;5,4229736328125E-09;0,899658203125;4;262;1,52429901063442E-07;-1,59577988088131E-07;100 nA
0,850830078125;138,541398650217;3,8970947265625E-09;0,8502197265625;4;263;1,52429901063442E-07;-1,59577988088131E-07;100 nA
0,80078125;139,041886648953;2,703857421875E-09;0,79986572265625;4;264;1,52429901063442E-07;-1,59577988088131E-07;100 nA
0,750732421875;139,542374647689;1,7364501953125E-09;0,74993896484375;4;265;1,52429901063442E-07;-1,59577988088131E-07;100 nA
0,70068359375;140,042862646426;9,063720703125E-10;0,70001220703125;4;266;1,52429901063442E-07;-1,59577988088131E-07;100 nA
0,650634765625;140,543350645162;8,23974609375E-11;0,65008544921875;4;267;1,52429901063442E-07;-1,59577988088131E-07;100 nA
0,6005859375;141,043838643899;-7,476806640625E-10;0,6002197265625;4;268;1,52429901063442E-07;-1,59577988088131E-07;100 nA
0,550537109375;141,544326642635;-1,5960693359375E-09;0,55010986328125;4;269;1,52429901063442E-07;-1,59577988088131E-07;100 nA
0,50048828125;142,044814641371;-2,630615234375E-09;0,500213623046875;4;270;1,52429901063442E-07;-1,59577988088131E-07;100 nA
0,450439453125;142,545302640108;-3,607177734375E-09;0,450225830078125;4;271;1,52429901063442E-07;-1,59577988088131E-07;100 nA
0,400390625;143,045790638844;-4,5135498046875E-09;0,400177001953125;4;272;1,52429901063442E-07;-1,59577988088131E-07;100 nA
0,350341796875;143,54627863758;-5,3741455078125E-09;0,350189208984375;4;273;1,52429901063442E-07;-1,59577988088131E-07;100 nA
0,30029296875;144,046766636317;-6,182861328125E-09;0,300140380859375;4;274;1,52429901063442E-07;-1,59577988088131E-07;100 nA
0,250244140625;144,547254635053;-7,0098876953125E-09;0,250152587890625;4;275;1,52429901063442E-07;-1,59577988088131E-07;100 nA
0,2001953125;145,04774263379;-7,550048828125E-09;0,20013427734375;4;276;1,52429901063442E-07;-1,59577988088131E-07;100 nA
0,150146484375;145,548230632526;-8,087158203125E-09;0,150177001953125;4;277;1,52429901063442E-07;-1,59577988088131E-07;100 nA
0,10009765625;146,048718631262;-8,6273193359375E-09;0,10015869140625;4;278;1,52429901063442E-07;-1,59577988088131E-07;100 nA
0,050048828125;146,549206629999;-9,3231201171875E-09;0,050140380859375;4;279;1,52429901063442E-07;-1,59577988088131E-07;100 nA
0;147,049694628735;-1,0546875E-08;0,000158691406249994;4;280;1,52429901063442E-07;-1,59577988088131E-07;100 nA
-0,050048828125;147,550182627472;-1,26953125E-08;-0,0497100830078125;4;281;1,52429901063442E-07;-1,59577988088131E-07;100 nA
-0,10009765625;148,050670626208;-1,5191650390625E-08;-0,09954833984375;4;282;1,52429901063442E-07;-1,59577988088131E-07;100 nA
-0,150146484375;148,551158624944;-1,52984619140625E-08;-0,149566650390625;4;283;1,52429901063442E-07;-1,59577988088131E-07;100 nA
-0,2001953125;149,051646623681;-1,0748291015625E-08;-0,19940185546875;4;284;1,52429901063442E-07;-1,59577988088131E-07;100 nA
-0,250244140625;149,552134622417;-9,429931640625E-09;-0,2493896484375;4;285;1,52429901063442E-07;-1,59577988088131E-07;100 nA
-0,30029296875;150,052622621154;-9,5672607421875E-09;-0,299224853515625;4;286;1,52429901063442E-07;-1,59577988088131E-07;100 nA
-0,350341796875;150,55311061989;-9,7320556640625E-09;-0,349151611328125;4;287;1,52429901063442E-07;-1,59577988088131E-07;100 nA
-0,400390625;151,053598618626;-9,8114013671875E-09;-0,3990478515625;4;288;1,52429901063442E-07;-1,59577988088131E-07;100 nA
-0,450439453125;151,554086617363;-9,8876953125E-09;-0,448944091796875;4;289;1,52429901063442E-07;-1,59577988088131E-07;100 nA
-0,50048828125;152,054574616099;-1,00372314453125E-08;-0,49884033203125;4;290;1,52429901063442E-07;-1,59577988088131E-07;100 nA
-0,550537109375;152,555062614835;-1,026611328125E-08;-0,54876708984375;4;291;1,52429901063442E-07;-1,59577988088131E-07;100 nA
-0,6005859375;153,055550613572;-1,0150146484375E-08;-0,59869384765625;4;292;1,52429901063442E-07;-1,59577988088131E-07;100 nA
-0,650634765625;153,556038612308;-1,02264404296875E-08;-0,648590087890625;4;293;1,52429901063442E-07;-1,59577988088131E-07;100 nA
-0,70068359375;154,056526611045;-1,02813720703125E-08;-0,6986083984375;4;294;1,52429901063442E-07;-1,59577988088131E-07;100 nA
-0,750732421875;154,557014609781;-1,04705810546875E-08;-0,748626708984375;4;295;1,52429901063442E-07;-1,59577988088131E-07;100 nA
-0,80078125;155,057502608517;-1,02874755859375E-08;-0,79864501953125;4;296;1,52429901063442E-07;-1,59577988088131E-07;100 nA
-0,850830078125;155,557990607254;-1,080322265625E-08;-0,84869384765625;4;297;1,52429901063442E-07;-1,59577988088131E-07;100 nA
-0,90087890625;156,05847860599;-1,11083984375E-08;-0,8984375;4;298;1,52429901063442E-07;-1,59577988088131E-07;100 nA
-0,950927734375;156,558966604727;-1,15020751953125E-08;-0,9490966796875;4;299;1,52429901063442E-07;-1,59577988088131E-07;100 nA
-1,0009765625;157,059454603463;-1,1956787109375E-08;-0,99853515625;4;300;1,52429901063442E-07;-1,59577988088131E-07;100 nA
-0,950927734375;157,559942602199;-7,9925537109375E-09;-0,94879150390625;4;301;1,52429901063442E-07;-1,59577988088131E-07;100 nA
-0,90087890625;158,060430600936;-5,7220458984375E-09;-0,8990478515625;4;302;1,52429901063442E-07;-1,59577988088131E-07;100 nA
-0,850830078125;158,560918599672;-4,1473388671875E-09;-0,8489990234375;4;303;1,52429901063442E-07;-1,59577988088131E-07;100 nA
-0,80078125;159,061406598409;-2,9632568359375E-09;-0,79864501953125;4;304;1,52429901063442E-07;-1,59577988088131E-07;100 nA
-0,750732421875;159,561894597145;-1,86767578125E-09;-0,7486572265625;4;305;1,52429901063442E-07;-1,59577988088131E-07;100 nA
-0,70068359375;160,062382595881;-9,033203125E-10;-0,698638916015625;4;306;1,52429901063442E-07;-1,59577988088131E-07;100 nA
-0,650634765625;160,562870594618;9,1552734375E-12;-0,648651123046875;4;307;1,52429901063442E-07;-1,59577988088131E-07;100 nA
-0,6005859375;161,063358593354;8,758544921875E-10;-0,59869384765625;4;308;1,52429901063442E-07;-1,59577988088131E-07;100 nA
-0,550537109375;161,563846592091;1,7547607421875E-09;-0,548797607421875;4;309;1,52429901063442E-07;-1,59577988088131E-07;100 nA
-0,50048828125;162,064334590827;2,83203125E-09;-0,4989013671875;4;310;1,52429901063442E-07;-1,59577988088131E-07;100 nA
-0,450439453125;162,564822589563;3,6041259765625E-09;-0,449005126953125;4;311;1,52429901063442E-07;-1,59577988088131E-07;100 nA
-0,400390625;163,0653105883;4,4403076171875E-09;-0,399139404296875;4;312;1,52429901063442E-07;-1,59577988088131E-07;100 nA
-0,350341796875;163,565798587036;5,3314208984375E-09;-0,349273681640625;4;313;1,52429901063442E-07;-1,59577988088131E-07;100 nA
-0,30029296875;164,066286585772;6,5826416015625E-09;-0,299285888671875;4;314;1,52429901063442E-07;-1,59577988088131E-07;100 nA
-0,250244140625;164,566774584509;7,65380859375E-09;-0,249359130859375;4;315;1,52429901063442E-07;-1,59577988088131E-07;100 nA
-0,2001953125;165,067262583245;8,09326171875E-09;-0,199462890625;4;316;1,52429901063442E-07;-1,59577988088131E-07;100 nA
-0,150146484375;165,567750581982;8,3526611328125E-09;-0,149627685546875;4;317;1,52429901063442E-07;-1,59577988088131E-07;100 nA
-0,10009765625;166,068238580718;8,5601806640625E-09;-0,099700927734375;4;318;1,52429901063442E-07;-1,59577988088131E-07;100 nA
-0,050048828125;166,568726579454;8,6029052734375E-09;-0,049835205078125;4;319;1,52429901063442E-07;-1,59577988088131E-07;100 nA
0;167,069214578191;8,23974609375E-09;0,0001220703125;4;320;1,52429901063442E-07;-1,59577988088131E-07;100 nA
0,050048828125;167,569702576927;7,1075439453125E-09;0,050048828125;5;321;1,51264518499374E-07;-1,57847478985786E-07;100 nA
0,10009765625;168,070190575664;6,988525390625E-09;0,10003662109375;5;322;1,51264518499374E-07;-1,57847478985786E-07;100 nA
0,150146484375;168,5706785744;7,275390625E-09;0,150146484375;5;323;1,51264518499374E-07;-1,57847478985786E-07;100 nA
0,2001953125;169,071166573136;7,7545166015625E-09;0,2000732421875;5;324;1,51264518499374E-07;-1,57847478985786E-07;100 nA
0,250244140625;169,571654571873;8,343505859375E-09;0,250091552734375;5;325;1,51264518499374E-07;-1,57847478985786E-07;100 nA
0,30029296875;170,072142570609;8,88671875E-09;0,30010986328125;5;326;1,51264518499374E-07;-1,57847478985786E-07;100 nA
0,350341796875;170,572630569346;9,4757080078125E-09;0,350128173828125;5;327;1,51264518499374E-07;-1,57847478985786E-07;100 nA
0,400390625;171,073118568082;1,016845703125E-08;0,400146484375;5;328;1,51264518499374E-07;-1,57847478985786E-07;100 nA
0,450439453125;171,573606566818;1,08551025390625E-08;0,450103759765625;5;329;1,51264518499374E-07;-1,57847478985786E-07;100 nA
0,50048828125;172,074094565555;1,14349365234375E-08;0,50006103515625;5;330;1,51264518499374E-07;-1,57847478985786E-07;100 nA
0,550537109375;172,574582564291;1,19140625E-08;0,550079345703125;5;331;1,51264518499374E-07;-1,57847478985786E-07;100 nA
0,6005859375;173,075070563027;1,220703125E-08;0,60003662109375;5;332;1,51264518499374E-07;-1,57847478985786E-07;100 nA
0,650634765625;173,575558561764;1,224365234375E-08;0,65008544921875;5;333;1,51264518499374E-07;-1,57847478985786E-07;100 nA
0,70068359375;174,0760465605;1,21002197265625E-08;0,699920654296875;5;334;1,51264518499374E-07;-1,57847478985786E-07;100 nA
0,750732421875;174,576534559237;1,18804931640625E-08;0,749786376953125;5;335;1,51264518499374E-07;-1,57847478985786E-07;100 nA
0,80078125;175,077022557973;1,16455078125E-08;0,8001708984375;5;336;1,51264518499374E-07;-1,57847478985786E-07;100 nA
0,850830078125;175,577510556709;1,14532470703125E-08;0,84991455078125;5;337;1,51264518499374E-07;-1,57847478985786E-07;100 nA
0,90087890625;176,077998555446;1,14349365234375E-08;0,899658203125;5;338;1,51264518499374E-07;-1,57847478985786E-07;100 nA
0,950927734375;176,578486554182;1,1480712890625E-08;0,95001220703125;5;339;1,51264518499374E-07;-1,57847478985786E-07;100 nA
1,0009765625;177,078974552919;1,1627197265625E-08;0,999755859375;5;340;1,51264518499374E-07;-1,57847478985786E-07;100 nA
0,950927734375;177,579462551655;7,5897216796875E-09;0,9490966796875;5;341;1,51264518499374E-07;-1,57847478985786E-07;100 nA
0,90087890625;178,079950550391;5,2978515625E-09;0,89996337890625;5;342;1,51264518499374E-07;-1,57847478985786E-07;100 nA
0,850830078125;178,580438549128;3,7689208984375E-09;0,84930419921875;5;343;1,51264518499374E-07;-1,57847478985786E-07;100 nA
0,80078125;179,080926547864;2,5909423828125E-09;0,79986572265625;5;344;1,51264518499374E-07;-1,57847478985786E-07;100 nA
0,750732421875;179,581414546601;1,6815185546875E-09;0,74993896484375;5;345;1,51264518499374E-07;-1,57847478985786E-07;100 nA
0,70068359375;180,081902545337;8,209228515625E-10;0,699920654296875;5;346;1,51264518499374E-07;-1,57847478985786E-07;100 nA
0,650634765625;180,582390544073;-9,1552734375E-12;0,65008544921875;5;347;1,51264518499374E-07;-1,57847478985786E-07;100 nA
0,6005859375;181,08287854281;-8,270263671875E-10;0,60009765625;5;348;1,51264518499374E-07;-1,57847478985786E-07;100 nA
0,550537109375;181,583366541546;-1,7333984375E-09;0,550079345703125;5;349;1,51264518499374E-07;-1,57847478985786E-07;100 nA
0,50048828125;182,083854540282;-2,6641845703125E-09;0,50018310546875;5;350;1,51264518499374E-07;-1,57847478985786E-07;100 nA
0,450439453125;182,584342539019;-3,6163330078125E-09;0,45013427734375;5;351;1,51264518499374E-07;-1,57847478985786E-07;100 nA
0,400390625;183,084830537755;-4,534912109375E-09;0,400177001953125;5;352;1,51264518499374E-07;-1,57847478985786E-07;100 nA
0,350341796875;183,585318536492;-5,3985595703125E-09;0,350128173828125;5;353;1,51264518499374E-07;-1,57847478985786E-07;100 nA
0,30029296875;184,085806535228;-6,1981201171875E-09;0,300140380859375;5;354;1,51264518499374E-07;-1,57847478985786E-07;100 nA
0,250244140625;184,586294533964;-6,9580078125E-09;0,250152587890625;5;355;1,51264518499374E-07;-1,57847478985786E-07;100 nA
0,2001953125;185,086782532701;-7,537841796875E-09;0,200164794921875;5;356;1,51264518499374E-07;-1,57847478985786E-07;100 nA
0,150146484375;185,587270531437;-8,0718994140625E-09;0,150146484375;5;357;1,51264518499374E-07;-1,57847478985786E-07;100 nA
0,10009765625;186,087758530174;-8,6395263671875E-09;0,10015869140625;5;358;1,51264518499374E-07;-1,57847478985786E-07;100 nA
0,050048828125;186,58824652891;-9,307861328125E-09;0,050140380859375;5;359;1,51264518499374E-07;-1,57847478985786E-07;100 nA
0;187,088734527646;-1,05133056640625E-08;0,000155639648437497;5;360;1,51264518499374E-07;-1,57847478985786E-07;100 nA
-0,050048828125;187,589222526383;-1,2548828125E-08;-0,0497100830078125;5;361;1,51264518499374E-07;-1,57847478985786E-07;100 nA
-0,10009765625;188,089710525119;-1,485595703125E-08;-0,099609375;5;362;1,51264518499374E-07;-1,57847478985786E-07;100 nA
-0,150146484375;188,590198523856;-1,4483642578125E-08;-0,149566650390625;5;363;1,51264518499374E-07;-1,57847478985786E-07;100 nA
-0,2001953125;189,090686522592;-1,00860595703125E-08;-0,199462890625;5;364;1,51264518499374E-07;-1,57847478985786E-07;100 nA
-0,250244140625;189,591174521328;-9,2315673828125E-09;-0,2493896484375;5;365;1,51264518499374E-07;-1,57847478985786E-07;100 nA
-0,30029296875;190,091662520065;-9,4451904296875E-09;-0,299285888671875;5;366;1,51264518499374E-07;-1,57847478985786E-07;100 nA
-0,350341796875;190,592150518801;-9,576416015625E-09;-0,349151611328125;5;367;1,51264518499374E-07;-1,57847478985786E-07;100 nA
-0,400390625;191,092638517537;-9,63134765625E-09;-0,399017333984375;5;368;1,51264518499374E-07;-1,57847478985786E-07;100 nA
-0,450439453125;191,593126516274;-9,8114013671875E-09;-0,448944091796875;5;369;1,51264518499374E-07;-1,57847478985786E-07;100 nA
-0,50048828125;192,09361451501;-9,942626953125E-09;-0,498809814453125;5;370;1,51264518499374E-07;-1,57847478985786E-07;100 nA
-0,550537109375;192,594102513747;-1,00372314453125E-08;-0,54876708984375;5;371;1,51264518499374E-07;-1,57847478985786E-07;100 nA
-0,6005859375;193,094590512483;-1,00921630859375E-08;-0,5986328125;5;372;1,51264518499374E-07;-1,57847478985786E-07;100 nA
-0,650634765625;193,595078511219;-1,01531982421875E-08;-0,648590087890625;5;373;1,51264518499374E-07;-1,57847478985786E-07;100 nA
-0,70068359375;194,095566509956;-1,02264404296875E-08;-0,698638916015625;5;374;1,51264518499374E-07;-1,57847478985786E-07;100 nA
-0,750732421875;194,596054508692;-1,03271484375E-08;-0,7486572265625;5;375;1,51264518499374E-07;-1,57847478985786E-07;100 nA
-0,80078125;195,096542507429;-1,0498046875E-08;-0,7989501953125;5;376;1,51264518499374E-07;-1,57847478985786E-07;100 nA
-0,850830078125;195,597030506165;-1,07421875E-08;-0,8489990234375;5;377;1,51264518499374E-07;-1,57847478985786E-07;100 nA
-0,90087890625;196,097518504901;-1,1029052734375E-08;-0,89935302734375;5;378;1,51264518499374E-07;-1,57847478985786E-07;100 nA
-0,950927734375;196,598006503638;-1,14044189453125E-08;-0,94879150390625;5;379;1,51264518499374E-07;-1,57847478985786E-07;100 nA
-1,0009765625;197,098494502374;-1,18438720703125E-08;-0,99884033203125;5;380;1,51264518499374E-07;-1,57847478985786E-07;100 nA
-0,950927734375;197,598982501111;-7,958984375E-09;-0,94879150390625;5;381;1,51264518499374E-07;-1,57847478985786E-07;100 nA
-0,90087890625;198,099470499847;-5,6549072265625E-09;-0,8990478515625;5;382;1,51264518499374E-07;-1,57847478985786E-07;100 nA
-0,850830078125;198,599958498583;-4,0985107421875E-09;-0,84869384765625;5;383;1,51264518499374E-07;-1,57847478985786E-07;100 nA
-0,80078125;199,10044649732;-2,91748046875E-09;-0,79864501953125;5;384;1,51264518499374E-07;-1,57847478985786E-07;100 nA
-0,750732421875;199,600934496056;-1,849365234375E-09;-0,748687744140625;5;385;1,51264518499374E-07;-1,57847478985786E-07;100 nA
-0,70068359375;200,101422494792;-8,9111328125E-10;-0,69866943359375;5;386;1,51264518499374E-07;-1,57847478985786E-07;100 nA
-0,650634765625;200,601910493529;-3,96728515625E-11;-0,64862060546875;5;387;1,51264518499374E-07;-1,57847478985786E-07;100 nA
-0,6005859375;201,102398492265;8,636474609375E-10;-0,598724365234375;5;388;1,51264518499374E-07;-1,57847478985786E-07;100 nA
-0,550537109375;201,602886491002;1,715087890625E-09;-0,548797607421875;5;389;1,51264518499374E-07;-1,57847478985786E-07;100 nA
-0,50048828125;202,103374489738;2,6702880859375E-09;-0,49896240234375;5;390;1,51264518499374E-07;-1,57847478985786E-07;100 nA
-0,450439453125;202,603862488474;3,5400390625E-09;-0,449005126953125;5;391;1,51264518499374E-07;-1,57847478985786E-07;100 nA
-0,400390625;203,104350487211;4,400634765625E-09;-0,399139404296875;5;392;1,51264518499374E-07;-1,57847478985786E-07;100 nA
-0,350341796875;203,604838485947;5,3741455078125E-09;-0,3492431640625;5;393;1,51264518499374E-07;-1,57847478985786E-07;100 nA
-0,30029296875;204,105326484684;6,512451171875E-09;-0,29931640625;5;394;1,51264518499374E-07;-1,57847478985786E-07;100 nA
-0,250244140625;204,60581448342;7,6019287109375E-09;-0,24945068359375;5;395;1,51264518499374E-07;-1,57847478985786E-07;100 nA
-0,2001953125;205,106302482156;8,1146240234375E-09;-0,19952392578125;5;396;1,51264518499374E-07;-1,57847478985786E-07;100 nA
-0,150146484375;205,606790480893;8,3953857421875E-09;-0,14959716796875;5;397;1,51264518499374E-07;-1,57847478985786E-07;100 nA
-0,10009765625;206,107278479629;8,563232421875E-09;-0,0997314453125;5;398;1,51264518499374E-07;-1,57847478985786E-07;100 nA
-0,050048828125;206,607766478366;8,502197265625E-09;-0,049835205078125;5;399;1,51264518499374E-07;-1,57847478985786E-07;100 nA
0;207,108254477102;7,952880859375E-09;0,0001068115234375;5;400;1,51264518499374E-07;-1,57847478985786E-07;100 nA
0,050048828125;207,608742475838;6,8634033203125E-09;0,05010986328125;6;401;1,49500407278538E-07;-1,56120024621487E-07;100 nA
0,10009765625;208,109230474575;6,9549560546875E-09;0,100067138671875;6;402;1,49500407278538E-07;-1,56120024621487E-07;100 nA
0,150146484375;208,609718473311;7,2845458984375E-09;0,150054931640625;6;403;1,49500407278538E-07;-1,56120024621487E-07;100 nA
0,2001953125;209,110206472047;7,7056884765625E-09;0,2000732421875;6;404;1,49500407278538E-07;-1,56120024621487E-07;100 nA
0,250244140625;209,610694470784;8,2244873046875E-09;0,250091552734375;6;405;1,49500407278538E-07;-1,56120024621487E-07;100 nA
0,30029296875;210,11118246952;8,7921142578125E-09;0,300079345703125;6;406;1,49500407278538E-07;-1,56120024621487E-07;100 nA
0,350341796875;210,611670468257;9,4207763671875E-09;0,35009765625;6;407;1,49500407278538E-07;-1,56120024621487E-07;100 nA
0,400390625;211,112158466993;1,00982666015625E-08;0,400115966796875;6;408;1,49500407278538E-07;-1,56120024621487E-07;100 nA
0,450439453125;211,612646465729;1,07757568359375E-08;0,45013427734375;6;409;1,49500407278538E-07;-1,56120024621487E-07;100 nA
0,50048828125;212,113134464466;1,1358642578125E-08;0,5001220703125;6;410;1,49500407278538E-07;-1,56120024621487E-07;100 nA
0,550537109375;212,613622463202;1,18377685546875E-08;0,5501708984375;6;411;1,49500407278538E-07;-1,56120024621487E-07;100 nA
0,6005859375;213,114110461939;1,21124267578125E-08;0,600067138671875;6;412;1,49500407278538E-07;-1,56120024621487E-07;100 nA
0,650634765625;213,614598460675;1,21612548828125E-08;0,649993896484375;6;413;1,49500407278538E-07;-1,56120024621487E-07;100 nA
0,70068359375;214,115086459411;1,2005615234375E-08;0,699920654296875;6;414;1,49500407278538E-07;-1,56120024621487E-07;100 nA
0,750732421875;214,615574458148;1,17279052734375E-08;0,7498779296875;6;415;1,49500407278538E-07;-1,56120024621487E-07;100 nA
0,80078125;215,116062456884;1,15142822265625E-08;0,79986572265625;6;416;1,49500407278538E-07;-1,56120024621487E-07;100 nA
0,850830078125;215,616550455621;1,1383056640625E-08;0,849609375;6;417;1,49500407278538E-07;-1,56120024621487E-07;100 nA
0,90087890625;216,117038454357;1,134033203125E-08;0,899658203125;6;418;1,49500407278538E-07;-1,56120024621487E-07;100 nA
0,950927734375;216,617526453093;1,1419677734375E-08;0,94970703125;6;419;1,49500407278538E-07;-1,56120024621487E-07;100 nA
1,0009765625;217,11801445183;1,15875244140625E-08;1,0003662109375;6;420;1,49500407278538E-07;-1,56120024621487E-07;100 nA
0,950927734375;217,618502450566;7,5714111328125E-09;0,94970703125;6;421;1,49500407278538E-07;-1,56120024621487E-07;100 nA
0,90087890625;218,118990449302;5,26123046875E-09;0,89996337890625;6;422;1,49500407278538E-07;-1,56120024621487E-07;100 nA
0,850830078125;218,619478448039;3,7872314453125E-09;0,84991455078125;6;423;1,49500407278538E-07;-1,56120024621487E-07;100 nA
0,80078125;219,119966446775;2,6458740234375E-09;0,799560546875;6;424;1,49500407278538E-07;-1,56120024621487E-07;100 nA
0,750732421875;219,620454445512;1,654052734375E-09;0,749908447265625;6;425;1,49500407278538E-07;-1,56120024621487E-07;100 nA
0,70068359375;220,120942444248;8,209228515625E-10;0,70001220703125;6;426;1,49500407278538E-07;-1,56120024621487E-07;100 nA
0,650634765625;220,621430442984;-1,8310546875E-11;0,65008544921875;6;427;1,49500407278538E-07;-1,56120024621487E-07;100 nA
0,6005859375;221,121918441721;-8,97216796875E-10;0,60009765625;6;428;1,49500407278538E-07;-1,56120024621487E-07;100 nA
0,550537109375;221,622406440457;-1,7669677734375E-09;0,5501708984375;6;429;1,49500407278538E-07;-1,56120024621487E-07;100 nA
0,50048828125;222,122894439194;-2,6885986328125E-09;0,5001220703125;6;430;1,49500407278538E-07;-1,56120024621487E-07;100 nA
0,450439453125;222,62338243793;-3,67431640625E-09;0,450103759765625;6;431;1,49500407278538E-07;-1,56120024621487E-07;100 nA
0,400390625;223,123870436666;-4,5440673828125E-09;0,400177001953125;6;432;1,49500407278538E-07;-1,56120024621487E-07;100 nA
0,350341796875;223,624358435403;-5,40771484375E-09;0,35009765625;6;433;1,49500407278538E-07;-1,56120024621487E-07;100 nA
0,30029296875;224,124846434139;-6,2103271484375E-09;0,300140380859375;6;434;1,49500407278538E-07;-1,56120024621487E-07;100 nA
0,250244140625;224,625334432876;-7,0220947265625E-09;0,250091552734375;6;435;1,49500407278538E-07;-1,56120024621487E-07;100 nA
0,2001953125;225,125822431612;-7,6171875E-09;0,200164794921875;6;436;1,49500407278538E-07;-1,56120024621487E-07;100 nA
0,150146484375;225,626310430348;-8,1268310546875E-09;0,150115966796875;6;437;1,49500407278538E-07;-1,56120024621487E-07;100 nA
0,10009765625;226,126798429085;-8,6822509765625E-09;0,100067138671875;6;438;1,49500407278538E-07;-1,56120024621487E-07;100 nA
0,050048828125;226,627286427821;-9,3719482421875E-09;0,050140380859375;6;439;1,49500407278538E-07;-1,56120024621487E-07;100 nA
0;227,127774426557;-1,05072021484375E-08;0,000155639648437497;6;440;1,49500407278538E-07;-1,56120024621487E-07;100 nA
-0,050048828125;227,628262425294;-1,2420654296875E-08;-0,049774169921875;6;441;1,49500407278538E-07;-1,56120024621487E-07;100 nA
-0,10009765625;228,12875042403;-1,4501953125E-08;-0,09967041015625;6;442;1,49500407278538E-07;-1,56120024621487E-07;100 nA
-0,150146484375;228,629238422767;-1,36138916015625E-08;-0,149566650390625;6;443;1,49500407278538E-07;-1,56120024621487E-07;100 nA
-0,2001953125;229,129726421503;-9,539794921875E-09;-0,199462890625;6;444;1,49500407278538E-07;-1,56120024621487E-07;100 nA
-0,250244140625;229,630214420239;-9,0728759765625E-09;-0,2493896484375;6;445;1,49500407278538E-07;-1,56120024621487E-07;100 nA
-0,30029296875;230,130702418976;-9,36279296875E-09;-0,2991943359375;6;446;1,49500407278538E-07;-1,56120024621487E-07;100 nA
-0,350341796875;230,631190417712;-9,503173828125E-09;-0,349151611328125;6;447;1,49500407278538E-07;-1,56120024621487E-07;100 nA
-0,400390625;231,131678416449;-9,5733642578125E-09;-0,399078369140625;6;448;1,49500407278538E-07;-1,56120024621487E-07;100 nA
-0,450439453125;231,632166415185;-9,686279296875E-09;-0,448944091796875;6;449;1,49500407278538E-07;-1,56120024621487E-07;100 nA
-0,50048828125;232,132654413921;-9,8388671875E-09;-0,49884033203125;6;450;1,49500407278538E-07;-1,56120024621487E-07;100 nA
-0,550537109375;232,633142412658;-9,967041015625E-09;-0,548828125;6;451;1,49500407278538E-07;-1,56120024621487E-07;100 nA
-0,6005859375;233,133630411394;-1,0040283203125E-08;-0,598602294921875;6;452;1,49500407278538E-07;-1,56120024621487E-07;100 nA
-0,650634765625;233,634118410131;-1,005859375E-08;-0,648590087890625;6;453;1,49500407278538E-07;-1,56120024621487E-07;100 nA
-0,70068359375;234,134606408867;-1,00982666015625E-08;-0,6986083984375;6;454;1,49500407278538E-07;-1,56120024621487E-07;100 nA
-0,750732421875;234,635094407603;-1,01959228515625E-08;-0,748565673828125;6;455;1,49500407278538E-07;-1,56120024621487E-07;100 nA
-0,80078125;235,13558240634;-1,0406494140625E-08;-0,79864501953125;6;456;1,49500407278538E-07;-1,56120024621487E-07;100 nA
-0,850830078125;235,636070405076;-1,063232421875E-08;-0,84930419921875;6;457;1,49500407278538E-07;-1,56120024621487E-07;100 nA
-0,90087890625;236,136558403813;-1,09161376953125E-08;-0,8984375;6;458;1,49500407278538E-07;-1,56120024621487E-07;100 nA
-0,950927734375;236,637046402549;-1,12762451171875E-08;-0,94879150390625;6;459;1,49500407278538E-07;-1,56120024621487E-07;100 nA
-1,0009765625;237,137534401285;-1,173095703125E-08;-0,99853515625;6;460;1,49500407278538E-07;-1,56120024621487E-07;100 nA
-0,950927734375;237,638022400022;-7,843017578125E-09;-0,9490966796875;6;461;1,49500407278538E-07;-1,56120024621487E-07;100 nA
-0,90087890625;238,138510398758;-5,5816650390625E-09;-0,899658203125;6;462;1,49500407278538E-07;-1,56120024621487E-07;100 nA
-0,850830078125;238,638998397494;-4,0130615234375E-09;-0,84869384765625;6;463;1,49500407278538E-07;-1,56120024621487E-07;100 nA
-0,80078125;239,139486396231;-2,8411865234375E-09;-0,7989501953125;6;464;1,49500407278538E-07;-1,56120024621487E-07;100 nA
-0,750732421875;239,639974394967;-1,800537109375E-09;-0,748687744140625;6;465;1,49500407278538E-07;-1,56120024621487E-07;100 nA
-0,70068359375;240,140462393704;-8,85009765625E-10;-0,698638916015625;6;466;1,49500407278538E-07;-1,56120024621487E-07;100 nA
-0,650634765625;240,64095039244;9,1552734375E-12;-0,648681640625;6;467;1,49500407278538E-07;-1,56120024621487E-07;100 nA
-0,6005859375;241,141438391176;8,941650390625E-10;-0,5987548828125;6;468;1,49500407278538E-07;-1,56120024621487E-07;100 nA
-0,550537109375;241,641926389913;1,727294921875E-09;-0,548797607421875;6;469;1,49500407278538E-07;-1,56120024621487E-07;100 nA
-0,50048828125;242,142414388649;2,606201171875E-09;-0,4989013671875;6;470;1,49500407278538E-07;-1,56120024621487E-07;100 nA
-0,450439453125;242,642902387386;3,50341796875E-09;-0,449005126953125;6;471;1,49500407278538E-07;-1,56120024621487E-07;100 nA
-0,400390625;243,143390386122;4,30908203125E-09;-0,399169921875;6;472;1,49500407278538E-07;-1,56120024621487E-07;100 nA
-0,350341796875;243,643878384858;5,2001953125E-09;-0,349273681640625;6;473;1,49500407278538E-07;-1,56120024621487E-07;100 nA
-0,30029296875;244,144366383595;6,280517578125E-09;-0,299346923828125;6;474;1,49500407278538E-07;-1,56120024621487E-07;100 nA
-0,250244140625;244,644854382331;7,4127197265625E-09;-0,249420166015625;6;475;1,49500407278538E-07;-1,56120024621487E-07;100 nA
-0,2001953125;245,145342381068;7,9925537109375E-09;-0,199493408203125;6;476;1,49500407278538E-07;-1,56120024621487E-07;100 nA
-0,150146484375;245,645830379804;8,2763671875E-09;-0,149688720703125;6;477;1,49500407278538E-07;-1,56120024621487E-07;100 nA
-0,10009765625;246,14631837854;8,4197998046875E-09;-0,099761962890625;6;478;1,49500407278538E-07;-1,56120024621487E-07;100 nA
-0,050048828125;246,646806377277;8,2366943359375E-09;-0,04986572265625;6;479;1,49500407278538E-07;-1,56120024621487E-07;100 nA
0;247,147294376013;7,53173828125E-09;0,000112915039062494;6;480;1,49500407278538E-07;-1,56120024621487E-07;100 nA
0,050048828125;247,647782374749;6,622314453125E-09;0,050079345703125;7;481;1,48594677448273E-07;-1,54436863958836E-07;100 nA
0,10009765625;248,148270373486;6,7626953125E-09;0,100128173828125;7;482;1,48594677448273E-07;-1,54436863958836E-07;100 nA
0,150146484375;248,648758372222;7,1319580078125E-09;0,1500244140625;7;483;1,48594677448273E-07;-1,54436863958836E-07;100 nA
0,2001953125;249,149246370959;7,60498046875E-09;0,2000732421875;7;484;1,48594677448273E-07;-1,54436863958836E-07;100 nA
0,250244140625;249,649734369695;8,11767578125E-09;0,25006103515625;7;485;1,48594677448273E-07;-1,54436863958836E-07;100 nA
0,30029296875;250,150222368431;8,70361328125E-09;0,300079345703125;7;486;1,48594677448273E-07;-1,54436863958836E-07;100 nA
0,350341796875;250,650710367168;9,3994140625E-09;0,35015869140625;7;487;1,48594677448273E-07;-1,54436863958836E-07;100 nA
0,400390625;251,151198365904;1,00860595703125E-08;0,400115966796875;7;488;1,48594677448273E-07;-1,54436863958836E-07;100 nA
0,450439453125;251,651686364641;1,0723876953125E-08;0,450103759765625;7;489;1,48594677448273E-07;-1,54436863958836E-07;100 nA
0,50048828125;252,152174363377;1,13067626953125E-08;0,500091552734375;7;490;1,48594677448273E-07;-1,54436863958836E-07;100 nA
0,550537109375;252,652662362113;1,1767578125E-08;0,550079345703125;7;491;1,48594677448273E-07;-1,54436863958836E-07;100 nA
0,6005859375;253,15315036085;1,202392578125E-08;0,60009765625;7;492;1,48594677448273E-07;-1,54436863958836E-07;100 nA
0,650634765625;253,653638359586;1,204833984375E-08;0,6500244140625;7;493;1,48594677448273E-07;-1,54436863958836E-07;100 nA
0,70068359375;254,154126358323;1,18743896484375E-08;0,69989013671875;7;494;1,48594677448273E-07;-1,54436863958836E-07;100 nA
0,750732421875;254,654614357059;1,1663818359375E-08;0,749847412109375;7;495;1,48594677448273E-07;-1,54436863958836E-07;100 nA
0,80078125;255,155102355795;1,1468505859375E-08;0,79986572265625;7;496;1,48594677448273E-07;-1,54436863958836E-07;100 nA
0,850830078125;255,655590354532;1,1370849609375E-08;0,8489990234375;7;497;1,48594677448273E-07;-1,54436863958836E-07;100 nA
0,90087890625;256,156078353268;1,134033203125E-08;0,89996337890625;7;498;1,48594677448273E-07;-1,54436863958836E-07;100 nA
0,950927734375;256,656566352004;1,13800048828125E-08;0,95001220703125;7;499;1,48594677448273E-07;-1,54436863958836E-07;100 nA
1,0009765625;257,157054350741;1,1566162109375E-08;0,999755859375;7;500;1,48594677448273E-07;-1,54436863958836E-07;100 nA
0,950927734375;257,657542349477;7,58056640625E-09;0,94970703125;7;501;1,48594677448273E-07;-1,54436863958836E-07;100 nA
0,90087890625;258,158030348214;5,328369140625E-09;0,89935302734375;7;502;1,48594677448273E-07;-1,54436863958836E-07;100 nA
0,850830078125;258,65851834695;3,790283203125E-09;0,849609375;7;503;1,48594677448273E-07;-1,54436863958836E-07;100 nA
0,80078125;259,159006345686;2,655029296875E-09;0,79925537109375;7;504;1,48594677448273E-07;-1,54436863958836E-07;100 nA
0,750732421875;259,659494344423;1,7120361328125E-09;0,749847412109375;7;505;1,48594677448273E-07;-1,54436863958836E-07;100 nA
0,70068359375;260,159982343159;8,697509765625E-10;0,699981689453125;7;506;1,48594677448273E-07;-1,54436863958836E-07;100 nA
0,650634765625;260,660470341896;7,9345703125E-11;0,650115966796875;7;507;1,48594677448273E-07;-1,54436863958836E-07;100 nA
0,6005859375;261,160958340632;-7,8125E-10;0,60015869140625;7;508;1,48594677448273E-07;-1,54436863958836E-07;100 nA
0,550537109375;261,661446339368;-1,6845703125E-09;0,550201416015625;7;509;1,48594677448273E-07;-1,54436863958836E-07;100 nA
0,50048828125;262,161934338105;-2,630615234375E-09;0,5001220703125;7;510;1,48594677448273E-07;-1,54436863958836E-07;100 nA
0,450439453125;262,662422336841;-3,5858154296875E-09;0,4501953125;7;511;1,48594677448273E-07;-1,54436863958836E-07;100 nA
0,400390625;263,162910335578;-4,5013427734375E-09;0,400177001953125;7;512;1,48594677448273E-07;-1,54436863958836E-07;100 nA
0,350341796875;263,663398334314;-5,3680419921875E-09;0,350128173828125;7;513;1,48594677448273E-07;-1,54436863958836E-07;100 nA
0,30029296875;264,16388633305;-6,1676025390625E-09;0,300079345703125;7;514;1,48594677448273E-07;-1,54436863958836E-07;100 nA
0,250244140625;264,664374331787;-6,9610595703125E-09;0,2501220703125;7;515;1,48594677448273E-07;-1,54436863958836E-07;100 nA
0,2001953125;265,164862330523;-7,6171875E-09;0,20013427734375;7;516;1,48594677448273E-07;-1,54436863958836E-07;100 nA
0,150146484375;265,665350329259;-8,1695556640625E-09;0,15008544921875;7;517;1,48594677448273E-07;-1,54436863958836E-07;100 nA
0,10009765625;266,165838327996;-8,7554931640625E-09;0,100067138671875;7;518;1,48594677448273E-07;-1,54436863958836E-07;100 nA
0,050048828125;266,666326326732;-9,38720703125E-09;0,050079345703125;7;519;1,48594677448273E-07;-1,54436863958836E-07;100 nA
0;267,166814325469;-1,04644775390625E-08;0,000164794921875003;7;520;1,48594677448273E-07;-1,54436863958836E-07;100 nA
-0,050048828125;267,667302324205;-1,224365234375E-08;-0,049713134765625;7;521;1,48594677448273E-07;-1,54436863958836E-07;100 nA
-0,10009765625;268,167790322941;-1,40594482421875E-08;-0,099700927734375;7;522;1,48594677448273E-07;-1,54436863958836E-07;100 nA
-0,150146484375;268,668278321678;-1,2628173828125E-08;-0,149627685546875;7;523;1,48594677448273E-07;-1,54436863958836E-07;100 nA
-0,2001953125;269,168766320414;-9,1522216796875E-09;-0,199432373046875;7;524;1,48594677448273E-07;-1,54436863958836E-07;100 nA
-0,250244140625;269,669254319151;-8,99658203125E-09;-0,249359130859375;7;525;1,48594677448273E-07;-1,54436863958836E-07;100 nA
-0,30029296875;270,169742317887;-9,307861328125E-09;-0,299224853515625;7;526;1,48594677448273E-07;-1,54436863958836E-07;100 nA
-0,350341796875;270,670230316623;-9,3994140625E-09;-0,349151611328125;7;527;1,48594677448273E-07;-1,54436863958836E-07;100 nA
-0,400390625;271,17071831536;-9,4970703125E-09;-0,39910888671875;7;528;1,48594677448273E-07;-1,54436863958836E-07;100 nA
-0,450439453125;271,671206314096;-9,613037109375E-09;-0,449005126953125;7;529;1,48594677448273E-07;-1,54436863958836E-07;100 nA
-0,50048828125;272,171694312833;-9,7686767578125E-09;-0,498870849609375;7;530;1,48594677448273E-07;-1,54436863958836E-07;100 nA
-0,550537109375;272,672182311569;-9,87548828125E-09;-0,54876708984375;7;531;1,48594677448273E-07;-1,54436863958836E-07;100 nA
-0,6005859375;273,172670310305;-9,979248046875E-09;-0,5986328125;7;532;1,48594677448273E-07;-1,54436863958836E-07;100 nA
-0,650634765625;273,673158309042;-1,0003662109375E-08;-0,648590087890625;7;533;1,48594677448273E-07;-1,54436863958836E-07;100 nA
-0,70068359375;274,173646307778;-1,0052490234375E-08;-0,69854736328125;7;534;1,48594677448273E-07;-1,54436863958836E-07;100 nA
-0,750732421875;274,674134306514;-1,01898193359375E-08;-0,74859619140625;7;535;1,48594677448273E-07;-1,54436863958836E-07;100 nA
-0,80078125;275,174622305251;-1,03790283203125E-08;-0,7989501953125;7;536;1,48594677448273E-07;-1,54436863958836E-07;100 nA
-0,850830078125;275,675110303987;-1,0577392578125E-08;-0,8489990234375;7;537;1,48594677448273E-07;-1,54436863958836E-07;100 nA
-0,90087890625;276,175598302724;-1,08795166015625E-08;-0,89874267578125;7;538;1,48594677448273E-07;-1,54436863958836E-07;100 nA
-0,950927734375;276,67608630146;-1,12396240234375E-08;-0,948486328125;7;539;1,48594677448273E-07;-1,54436863958836E-07;100 nA
-1,0009765625;277,176574300196;-1,16729736328125E-08;-0,99884033203125;7;540;1,48594677448273E-07;-1,54436863958836E-07;100 nA
-0,950927734375;277,677062298933;-7,80029296875E-09;-0,9490966796875;7;541;1,48594677448273E-07;-1,54436863958836E-07;100 nA
-0,90087890625;278,177550297669;-5,5694580078125E-09;-0,8990478515625;7;542;1,48594677448273E-07;-1,54436863958836E-07;100 nA
-0,850830078125;278,678038296406;-4,0374755859375E-09;-0,848388671875;7;543;1,48594677448273E-07;-1,54436863958836E-07;100 nA
-0,80078125;279,178526295142;-2,825927734375E-09;-0,79833984375;7;544;1,48594677448273E-07;-1,54436863958836E-07;100 nA
-0,750732421875;279,679014293878;-1,806640625E-09;-0,7486572265625;7;545;1,48594677448273E-07;-1,54436863958836E-07;100 nA
-0,70068359375;280,179502292615;-8,880615234375E-10;-0,698699951171875;7;546;1,48594677448273E-07;-1,54436863958836E-07;100 nA
-0,650634765625;280,679990291351;-5,4931640625E-11;-0,648651123046875;7;547;1,48594677448273E-07;-1,54436863958836E-07;100 nA
-0,6005859375;281,180478290088;8,60595703125E-10;-0,598663330078125;7;548;1,48594677448273E-07;-1,54436863958836E-07;100 nA
-0,550537109375;281,680966288824;1,7059326171875E-09;-0,548828125;7;549;1,48594677448273E-07;-1,54436863958836E-07;100 nA
-0,50048828125;282,18145428756;2,545166015625E-09;-0,498870849609375;7;550;1,48594677448273E-07;-1,54436863958836E-07;100 nA
-0,450439453125;282,681942286297;3,3935546875E-09;-0,44903564453125;7;551;1,48594677448273E-07;-1,54436863958836E-07;100 nA
-0,400390625;283,182430285033;4,2755126953125E-09;-0,399139404296875;7;552;1,48594677448273E-07;-1,54436863958836E-07;100 nA
-0,350341796875;283,682918283769;5,169677734375E-09;-0,349273681640625;7;553;1,48594677448273E-07;-1,54436863958836E-07;100 nA
-0,30029296875;284,183406282506;6,26220703125E-09;-0,299346923828125;7;554;1,48594677448273E-07;-1,54436863958836E-07;100 nA
-0,250244140625;284,683894281242;7,391357421875E-09;-0,249481201171875;7;555;1,48594677448273E-07;-1,54436863958836E-07;100 nA
-0,2001953125;285,184382279979;8,0413818359375E-09;-0,199493408203125;7;556;1,48594677448273E-07;-1,54436863958836E-07;100 nA
-0,150146484375;285,684870278715;8,343505859375E-09;-0,149627685546875;7;557;1,48594677448273E-07;-1,54436863958836E-07;100 nA
-0,10009765625;286,185358277451;8,428955078125E-09;-0,0997314453125;7;558;1,48594677448273E-07;-1,54436863958836E-07;100 nA
-0,050048828125;286,685846276188;8,1787109375E-09;-0,04986572265625;7;559;1,48594677448273E-07;-1,54436863958836E-07;100 nA
0;287,186334274924;7,32421875E-09;0,0001068115234375;7;560;1,48594677448273E-07;-1,54436863958836E-07;100 nA
0,050048828125;287,686822273661;6,6314697265625E-09;0,050079345703125;8;561;1,47221572697163E-07;-1,52504742145538E-07;100 nA
0,10009765625;288,187310272397;6,8084716796875E-09;0,10003662109375;8;562;1,47221572697163E-07;-1,52504742145538E-07;100 nA
0,150146484375;288,687798271133;7,16552734375E-09;0,150115966796875;8;563;1,47221572697163E-07;-1,52504742145538E-07;100 nA
0,2001953125;289,18828626987;7,611083984375E-09;0,200042724609375;8;564;1,47221572697163E-07;-1,52504742145538E-07;100 nA
0,250244140625;289,688774268606;8,1207275390625E-09;0,250091552734375;8;565;1,47221572697163E-07;-1,52504742145538E-07;100 nA
0,30029296875;290,189262267343;8,70361328125E-09;0,30010986328125;8;566;1,47221572697163E-07;-1,52504742145538E-07;100 nA
0,350341796875;290,689750266079;9,3231201171875E-09;0,350128173828125;8;567;1,47221572697163E-07;-1,52504742145538E-07;100 nA
0,400390625;291,190238264815;1,0015869140625E-08;0,400177001953125;8;568;1,47221572697163E-07;-1,52504742145538E-07;100 nA
0,450439453125;291,690726263552;1,068115234375E-08;0,4500732421875;8;569;1,47221572697163E-07;-1,52504742145538E-07;100 nA
0,50048828125;292,191214262288;1,13189697265625E-08;0,500213623046875;8;570;1,47221572697163E-07;-1,52504742145538E-07;100 nA
0,550537109375;292,691702261024;1,16851806640625E-08;0,55010986328125;8;571;1,47221572697163E-07;-1,52504742145538E-07;100 nA
0,6005859375;293,192190259761;1,190185546875E-08;0,60015869140625;8;572;1,47221572697163E-07;-1,52504742145538E-07;100 nA
0,650634765625;293,692678258497;1,19171142578125E-08;0,650054931640625;8;573;1,47221572697163E-07;-1,52504742145538E-07;100 nA
0,70068359375;294,193166257234;1,17340087890625E-08;0,699981689453125;8;574;1,47221572697163E-07;-1,52504742145538E-07;100 nA
0,750732421875;294,69365425597;1,1505126953125E-08;0,7498779296875;8;575;1,47221572697163E-07;-1,52504742145538E-07;100 nA
0,80078125;295,194142254706;1,1285400390625E-08;0,799560546875;8;576;1,47221572697163E-07;-1,52504742145538E-07;100 nA
0,850830078125;295,694630253443;1,119384765625E-08;0,8502197265625;8;577;1,47221572697163E-07;-1,52504742145538E-07;100 nA
0,90087890625;296,195118252179;1,1163330078125E-08;0,899658203125;8;578;1,47221572697163E-07;-1,52504742145538E-07;100 nA
0,950927734375;296,695606250916;1,12548828125E-08;0,9503173828125;8;579;1,47221572697163E-07;-1,52504742145538E-07;100 nA
1,0009765625;297,196094249652;1,14654541015625E-08;0,99945068359375;8;580;1,47221572697163E-07;-1,52504742145538E-07;100 nA
0,950927734375;297,696582248388;7,4615478515625E-09;0,94970703125;8;581;1,47221572697163E-07;-1,52504742145538E-07;100 nA
0,90087890625;298,197070247125;5,2490234375E-09;0,89996337890625;8;582;1,47221572697163E-07;-1,52504742145538E-07;100 nA
0,850830078125;298,697558245861;3,7353515625E-09;0,8502197265625;8;583;1,47221572697163E-07;-1,52504742145538E-07;100 nA
0,80078125;299,198046244598;2,6123046875E-09;0,79986572265625;8;584;1,47221572697163E-07;-1,52504742145538E-07;100 nA
0,750732421875;299,698534243334;1,6845703125E-09;0,7498779296875;8;585;1,47221572697163E-07;-1,52504742145538E-07;100 nA
0,70068359375;300,19902224207;8,544921875E-10;0,699981689453125;8;586;1,47221572697163E-07;-1,52504742145538E-07;100 nA
0,650634765625;300,699510240807;-6,103515625E-12;0,650115966796875;8;587;1,47221572697163E-07;-1,52504742145538E-07;100 nA
0,6005859375;301,199998239543;-7,720947265625E-10;0,600189208984375;8;588;1,47221572697163E-07;-1,52504742145538E-07;100 nA
0,550537109375;301,70048623828;-1,6845703125E-09;0,550079345703125;8;589;1,47221572697163E-07;-1,52504742145538E-07;100 nA
0,50048828125;302,200974237016;-2,6458740234375E-09;0,50018310546875;8;590;1,47221572697163E-07;-1,52504742145538E-07;100 nA
0,450439453125;302,701462235752;-3,62548828125E-09;0,450164794921875;8;591;1,47221572697163E-07;-1,52504742145538E-07;100 nA
0,400390625;303,201950234489;-4,547119140625E-09;0,400115966796875;8;592;1,47221572697163E-07;-1,52504742145538E-07;100 nA
0,350341796875;303,702438233225;-5,377197265625E-09;0,35009765625;8;593;1,47221572697163E-07;-1,52504742145538E-07;100 nA
0,30029296875;304,202926231961;-6,1492919921875E-09;0,30010986328125;8;594;1,47221572697163E-07;-1,52504742145538E-07;100 nA
0,250244140625;304,703414230698;-6,9427490234375E-09;0,250091552734375;8;595;1,47221572697163E-07;-1,52504742145538E-07;100 nA
0,2001953125;305,203902229434;-7,611083984375E-09;0,200103759765625;8;596;1,47221572697163E-07;-1,52504742145538E-07;100 nA
0,150146484375;305,704390228171;-8,160400390625E-09;0,150115966796875;8;597;1,47221572697163E-07;-1,52504742145538E-07;100 nA
0,10009765625;306,204878226907;-8,6669921875E-09;0,10009765625;8;598;1,47221572697163E-07;-1,52504742145538E-07;100 nA
0,050048828125;306,705366225643;-9,31396484375E-09;0,050079345703125;8;599;1,47221572697163E-07;-1,52504742145538E-07;100 nA
0;307,20585422438;-1,0321044921875E-08;0,000158691406249994;8;600;1,47221572697163E-07;-1,52504742145538E-07;100 nA
-0,050048828125;307,706342223116;-1,19659423828125E-08;-0,0497161865234375;8;601;1,47221572697163E-07;-1,52504742145538E-07;100 nA
-0,10009765625;308,206830221853;-1,35528564453125E-08;-0,099700927734375;8;602;1,47221572697163E-07;-1,52504742145538E-07;100 nA
-0,150146484375;308,707318220589;-1,15966796875E-08;-0,14959716796875;8;603;1,47221572697163E-07;-1,52504742145538E-07;100 nA
-0,2001953125;309,207806219325;-8,795166015625E-09;-0,199462890625;8;604;1,47221572697163E-07;-1,52504742145538E-07;100 nA
-0,250244140625;309,708294218062;-8,80126953125E-09;-0,249359130859375;8;605;1,47221572697163E-07;-1,52504742145538E-07;100 nA
-0,30029296875;310,208782216798;-9,1552734375E-09;-0,29931640625;8;606;1,47221572697163E-07;-1,52504742145538E-07;100 nA
-0,350341796875;310,709270215535;-9,2926025390625E-09;-0,3492431640625;8;607;1,47221572697163E-07;-1,52504742145538E-07;100 nA
-0,400390625;311,209758214271;-9,393310546875E-09;-0,399017333984375;8;608;1,47221572697163E-07;-1,52504742145538E-07;100 nA
-0,450439453125;311,710246213007;-9,5458984375E-09;-0,449005126953125;8;609;1,47221572697163E-07;-1,52504742145538E-07;100 nA
-0,50048828125;312,210734211744;-9,698486328125E-09;-0,498870849609375;8;610;1,47221572697163E-07;-1,52504742145538E-07;100 nA
-0,550537109375;312,71122221048;-9,8419189453125E-09;-0,54876708984375;8;611;1,47221572697163E-07;-1,52504742145538E-07;100 nA
-0,6005859375;313,211710209216;-9,8968505859375E-09;-0,598663330078125;8;612;1,47221572697163E-07;-1,52504742145538E-07;100 nA
-0,650634765625;313,712198207953;-9,9365234375E-09;-0,648590087890625;8;613;1,47221572697163E-07;-1,52504742145538E-07;100 nA
-0,70068359375;314,212686206689;-1,0003662109375E-08;-0,698577880859375;8;614;1,47221572697163E-07;-1,52504742145538E-07;100 nA
-0,750732421875;314,713174205426;-1,0137939453125E-08;-0,74859619140625;8;615;1,47221572697163E-07;-1,52504742145538E-07;100 nA
-0,80078125;315,213662204162;-1,03424072265625E-08;-0,79864501953125;8;616;1,47221572697163E-07;-1,52504742145538E-07;100 nA
-0,850830078125;315,714150202898;-1,0546875E-08;-0,8489990234375;8;617;1,47221572697163E-07;-1,52504742145538E-07;100 nA
-0,90087890625;316,214638201635;-1,0833740234375E-08;-0,89874267578125;8;618;1,47221572697163E-07;-1,52504742145538E-07;100 nA
-0,950927734375;316,715126200371;-1,116943359375E-08;-0,948486328125;8;619;1,47221572697163E-07;-1,52504742145538E-07;100 nA
-1,0009765625;317,215614199108;-1,1602783203125E-08;-0,99884033203125;8;620;1,47221572697163E-07;-1,52504742145538E-07;100 nA
-0,950927734375;317,716102197844;-7,7667236328125E-09;-0,94940185546875;8;621;1,47221572697163E-07;-1,52504742145538E-07;100 nA
-0,90087890625;318,21659019658;-5,535888671875E-09;-0,8984375;8;622;1,47221572697163E-07;-1,52504742145538E-07;100 nA
-0,850830078125;318,717078195317;-3,99169921875E-09;-0,84869384765625;8;623;1,47221572697163E-07;-1,52504742145538E-07;100 nA
-0,80078125;319,217566194053;-2,789306640625E-09;-0,7989501953125;8;624;1,47221572697163E-07;-1,52504742145538E-07;100 nA
-0,750732421875;319,71805419279;-1,788330078125E-09;-0,748687744140625;8;625;1,47221572697163E-07;-1,52504742145538E-07;100 nA
-0,70068359375;320,218542191526;-8,72802734375E-10;-0,698638916015625;8;626;1,47221572697163E-07;-1,52504742145538E-07;100 nA
-0,650634765625;320,719030190262;-3,35693359375E-11;-0,64862060546875;8;627;1,47221572697163E-07;-1,52504742145538E-07;100 nA
-0,6005859375;321,219518188999;8,514404296875E-10;-0,59869384765625;8;628;1,47221572697163E-07;-1,52504742145538E-07;100 nA
-0,550537109375;321,720006187735;1,708984375E-09;-0,54888916015625;8;629;1,47221572697163E-07;-1,52504742145538E-07;100 nA
-0,50048828125;322,220494186471;2,5726318359375E-09;-0,498931884765625;8;630;1,47221572697163E-07;-1,52504742145538E-07;100 nA
-0,450439453125;322,720982185208;3,448486328125E-09;-0,449005126953125;8;631;1,47221572697163E-07;-1,52504742145538E-07;100 nA
-0,400390625;323,221470183944;4,2877197265625E-09;-0,399200439453125;8;632;1,47221572697163E-07;-1,52504742145538E-07;100 nA
-0,350341796875;323,721958182681;5,1513671875E-09;-0,349273681640625;8;633;1,47221572697163E-07;-1,52504742145538E-07;100 nA
-0,30029296875;324,222446181417;6,182861328125E-09;-0,29931640625;8;634;1,47221572697163E-07;-1,52504742145538E-07;100 nA
-0,250244140625;324,722934180153;7,3516845703125E-09;-0,249420166015625;8;635;1,47221572697163E-07;-1,52504742145538E-07;100 nA
-0,2001953125;325,22342217889;8,0291748046875E-09;-0,19952392578125;8;636;1,47221572697163E-07;-1,52504742145538E-07;100 nA
-0,150146484375;325,723910177626;8,294677734375E-09;-0,149658203125;8;637;1,47221572697163E-07;-1,52504742145538E-07;100 nA
-0,10009765625;326,224398176363;8,3221435546875E-09;-0,099700927734375;8;638;1,47221572697163E-07;-1,52504742145538E-07;100 nA
-0,050048828125;326,724886175099;7,952880859375E-09;-0,049896240234375;8;639;1,47221572697163E-07;-1,52504742145538E-07;100 nA
0;327,225374173835;6,9183349609375E-09;0,000119018554687503;8;640;1,47221572697163E-07;-1,52504742145538E-07;100 nA
0,050048828125;327,725862172572;6,4178466796875E-09;0,050018310546875;9;641;1,44982449710369E-07;-1,50232017040253E-07;100 nA
0,10009765625;328,226350171308;6,640625E-09;0,100067138671875;9;642;1,44982449710369E-07;-1,50232017040253E-07;100 nA
0,150146484375;328,726838170045;6,9580078125E-09;0,1500244140625;9;643;1,44982449710369E-07;-1,50232017040253E-07;100 nA
0,2001953125;329,227326168781;7,4371337890625E-09;0,200042724609375;9;644;1,44982449710369E-07;-1,50232017040253E-07;100 nA
0,250244140625;329,727814167517;7,9437255859375E-09;0,250030517578125;9;645;1,44982449710369E-07;-1,50232017040253E-07;100 nA
0,30029296875;330,228302166254;8,489990234375E-09;0,300079345703125;9;646;1,44982449710369E-07;-1,50232017040253E-07;100 nA
0,350341796875;330,72879016499;9,1217041015625E-09;0,35009765625;9;647;1,44982449710369E-07;-1,50232017040253E-07;100 nA
0,400390625;331,229278163726;9,8297119140625E-09;0,40008544921875;9;648;1,44982449710369E-07;-1,50232017040253E-07;100 nA
0,450439453125;331,729766162463;1,05133056640625E-08;0,450103759765625;9;649;1,44982449710369E-07;-1,50232017040253E-07;100 nA
0,50048828125;332,230254161199;1,10809326171875E-08;0,50006103515625;9;650;1,44982449710369E-07;-1,50232017040253E-07;100 nA
0,550537109375;332,730742159936;1,1505126953125E-08;0,55010986328125;9;651;1,44982449710369E-07;-1,50232017040253E-07;100 nA
0,6005859375;333,231230158672;1,1737060546875E-08;0,600067138671875;9;652;1,44982449710369E-07;-1,50232017040253E-07;100 nA
0,650634765625;333,731718157408;1,173095703125E-08;0,6500244140625;9;653;1,44982449710369E-07;-1,50232017040253E-07;100 nA
0,70068359375;334,232206156145;1,15509033203125E-08;0,699981689453125;9;654;1,44982449710369E-07;-1,50232017040253E-07;100 nA
0,750732421875;334,732694154881;1,131591796875E-08;0,749786376953125;9;655;1,44982449710369E-07;-1,50232017040253E-07;100 nA
0,80078125;335,233182153618;1,112060546875E-08;0,79986572265625;9;656;1,44982449710369E-07;-1,50232017040253E-07;100 nA
0,850830078125;335,733670152354;1,10321044921875E-08;0,84991455078125;9;657;1,44982449710369E-07;-1,50232017040253E-07;100 nA
0,90087890625;336,23415815109;1,1041259765625E-08;0,89996337890625;9;658;1,44982449710369E-07;-1,50232017040253E-07;100 nA
0,950927734375;336,734646149827;1,1175537109375E-08;0,95001220703125;9;659;1,44982449710369E-07;-1,50232017040253E-07;100 nA
1,0009765625;337,235134148563;1,1419677734375E-08;0,99945068359375;9;660;1,44982449710369E-07;-1,50232017040253E-07;100 nA
0,950927734375;337,7356221473;7,5042724609375E-09;0,9490966796875;9;661;1,44982449710369E-07;-1,50232017040253E-07;100 nA
0,90087890625;338,236110146036;5,267333984375E-09;0,899658203125;9;662;1,44982449710369E-07;-1,50232017040253E-07;100 nA
0,850830078125;338,736598144772;3,7689208984375E-09;0,84991455078125;9;663;1,44982449710369E-07;-1,50232017040253E-07;100 nA
0,80078125;339,237086143509;2,6458740234375E-09;0,79986572265625;9;664;1,44982449710369E-07;-1,50232017040253E-07;100 nA
0,750732421875;339,737574142245;1,7364501953125E-09;0,749908447265625;9;665;1,44982449710369E-07;-1,50232017040253E-07;100 nA
0,70068359375;340,238062140981;9,21630859375E-10;0,699981689453125;9;666;1,44982449710369E-07;-1,50232017040253E-07;100 nA
0,650634765625;340,738550139718;1,312255859375E-10;0,650054931640625;9;667;1,44982449710369E-07;-1,50232017040253E-07;100 nA
0,6005859375;341,239038138454;-6,8359375E-10;0,60015869140625;9;668;1,44982449710369E-07;-1,50232017040253E-07;100 nA
0,550537109375;341,739526137191;-1,5594482421875E-09;0,5501708984375;9;669;1,44982449710369E-07;-1,50232017040253E-07;100 nA
0,50048828125;342,240014135927;-2,50244140625E-09;0,500152587890625;9;670;1,44982449710369E-07;-1,50232017040253E-07;100 nA
0,450439453125;342,740502134663;-3,424072265625E-09;0,4501953125;9;671;1,44982449710369E-07;-1,50232017040253E-07;100 nA
0,400390625;343,2409901334;-4,339599609375E-09;0,40020751953125;9;672;1,44982449710369E-07;-1,50232017040253E-07;100 nA
0,350341796875;343,741478132136;-5,21240234375E-09;0,350189208984375;9;673;1,44982449710369E-07;-1,50232017040253E-07;100 nA
0,30029296875;344,241966130873;-6,0302734375E-09;0,300262451171875;9;674;1,44982449710369E-07;-1,50232017040253E-07;100 nA
0,250244140625;344,742454129609;-6,805419921875E-09;0,250152587890625;9;675;1,44982449710369E-07;-1,50232017040253E-07;100 nA
0,2001953125;345,242942128345;-7,4615478515625E-09;0,20013427734375;9;676;1,44982449710369E-07;-1,50232017040253E-07;100 nA
0,150146484375;345,743430127082;-7,97119140625E-09;0,150177001953125;9;677;1,44982449710369E-07;-1,50232017040253E-07;100 nA
0,10009765625;346,243918125818;-8,50830078125E-09;0,100189208984375;9;678;1,44982449710369E-07;-1,50232017040253E-07;100 nA
0,050048828125;346,744406124555;-9,130859375E-09;0,050048828125;9;679;1,44982449710369E-07;-1,50232017040253E-07;100 nA
0;347,244894123291;-1,0101318359375E-08;0,000140380859374997;9;680;1,44982449710369E-07;-1,50232017040253E-07;100 nA
-0,050048828125;347,745382122027;-1,16363525390625E-08;-0,049603271484375;9;681;1,44982449710369E-07;-1,50232017040253E-07;100 nA
-0,10009765625;348,245870120764;-1,2957763671875E-08;-0,099609375;9;682;1,44982449710369E-07;-1,50232017040253E-07;100 nA
-0,150146484375;348,7463581195;-1,05072021484375E-08;-0,14959716796875;9;683;1,44982449710369E-07;-1,50232017040253E-07;100 nA
-0,2001953125;349,246846118236;-8,4716796875E-09;-0,199432373046875;9;684;1,44982449710369E-07;-1,50232017040253E-07;100 nA
-0,250244140625;349,747334116973;-8,6578369140625E-09;-0,249359130859375;9;685;1,44982449710369E-07;-1,50232017040253E-07;100 nA
-0,30029296875;350,247822115709;-8,99658203125E-09;-0,2991943359375;9;686;1,44982449710369E-07;-1,50232017040253E-07;100 nA
-0,350341796875;350,748310114446;-9,1796875E-09;-0,34918212890625;9;687;1,44982449710369E-07;-1,50232017040253E-07;100 nA
-0,400390625;351,248798113182;-9,2803955078125E-09;-0,39910888671875;9;688;1,44982449710369E-07;-1,50232017040253E-07;100 nA
-0,450439453125;351,749286111918;-9,46044921875E-09;-0,448974609375;9;689;1,44982449710369E-07;-1,50232017040253E-07;100 nA
-0,50048828125;352,249774110655;-9,637451171875E-09;-0,4989013671875;9;690;1,44982449710369E-07;-1,50232017040253E-07;100 nA
-0,550537109375;352,750262109391;-9,765625E-09;-0,548797607421875;9;691;1,44982449710369E-07;-1,50232017040253E-07;100 nA
-0,6005859375;353,250750108128;-9,85107421875E-09;-0,598663330078125;9;692;1,44982449710369E-07;-1,50232017040253E-07;100 nA
-0,650634765625;353,751238106864;-9,942626953125E-09;-0,648681640625;9;693;1,44982449710369E-07;-1,50232017040253E-07;100 nA
-0,70068359375;354,2517261056;-1,00677490234375E-08;-0,698516845703125;9;694;1,44982449710369E-07;-1,50232017040253E-07;100 nA
-0,750732421875;354,752214104337;-1,0211181640625E-08;-0,748565673828125;9;695;1,44982449710369E-07;-1,50232017040253E-07;100 nA
-0,80078125;355,252702103073;-1,0357666015625E-08;-0,7989501953125;9;696;1,44982449710369E-07;-1,50232017040253E-07;100 nA
-0,850830078125;355,75319010181;-1,05804443359375E-08;-0,84869384765625;9;697;1,44982449710369E-07;-1,50232017040253E-07;100 nA
-0,90087890625;356,253678100546;-1,08642578125E-08;-0,8984375;9;698;1,44982449710369E-07;-1,50232017040253E-07;100 nA
-0,950927734375;356,754166099282;-1,1199951171875E-08;-0,94879150390625;9;699;1,44982449710369E-07;-1,50232017040253E-07;100 nA
-1,0009765625;357,254654098019;-1,16180419921875E-08;-0,99884033203125;9;700;1,44982449710369E-07;-1,50232017040253E-07;100 nA
-0,950927734375;357,755142096755;-7,818603515625E-09;-0,948486328125;9;701;1,44982449710369E-07;-1,50232017040253E-07;100 nA
-0,90087890625;358,255630095491;-5,6182861328125E-09;-0,8984375;9;702;1,44982449710369E-07;-1,50232017040253E-07;100 nA
-0,850830078125;358,756118094228;-4,0771484375E-09;-0,84869384765625;9;703;1,44982449710369E-07;-1,50232017040253E-07;100 nA
-0,80078125;359,256606092964;-2,8411865234375E-09;-0,79864501953125;9;704;1,44982449710369E-07;-1,50232017040253E-07;100 nA
-0,750732421875;359,757094091701;-1,8310546875E-09;-0,7486572265625;9;705;1,44982449710369E-07;-1,50232017040253E-07;100 nA
-0,70068359375;360,257582090437;-9,307861328125E-10;-0,6986083984375;9;706;1,44982449710369E-07;-1,50232017040253E-07;100 nA
-0,650634765625;360,758070089173;-7,9345703125E-11;-0,648651123046875;9;707;1,44982449710369E-07;-1,50232017040253E-07;100 nA
-0,6005859375;361,25855808791;7,62939453125E-10;-0,5987548828125;9;708;1,44982449710369E-07;-1,50232017040253E-07;100 nA
-0,550537109375;361,759046086646;1,6082763671875E-09;-0,548858642578125;9;709;1,44982449710369E-07;-1,50232017040253E-07;100 nA
-0,50048828125;362,259534085383;2,44140625E-09;-0,498931884765625;9;710;1,44982449710369E-07;-1,50232017040253E-07;100 nA
-0,450439453125;362,760022084119;3,289794921875E-09;-0,449005126953125;9;711;1,44982449710369E-07;-1,50232017040253E-07;100 nA
-0,400390625;363,260510082855;4,1595458984375E-09;-0,399169921875;9;712;1,44982449710369E-07;-1,50232017040253E-07;100 nA
-0,350341796875;363,760998081592;5,0506591796875E-09;-0,349273681640625;9;713;1,44982449710369E-07;-1,50232017040253E-07;100 nA
-0,30029296875;364,261486080328;6,0882568359375E-09;-0,299285888671875;9;714;1,44982449710369E-07;-1,50232017040253E-07;100 nA
-0,250244140625;364,761974079065;7,2357177734375E-09;-0,2493896484375;9;715;1,44982449710369E-07;-1,50232017040253E-07;100 nA
-0,2001953125;365,262462077801;7,9803466796875E-09;-0,199554443359375;9;716;1,44982449710369E-07;-1,50232017040253E-07;100 nA
-0,150146484375;365,762950076537;8,2916259765625E-09;-0,149688720703125;9;717;1,44982449710369E-07;-1,50232017040253E-07;100 nA
-0,10009765625;366,263438075274;8,2763671875E-09;-0,09979248046875;9;718;1,44982449710369E-07;-1,50232017040253E-07;100 nA
-0,050048828125;366,76392607401;7,75146484375E-09;-0,04986572265625;9;719;1,44982449710369E-07;-1,50232017040253E-07;100 nA
0;367,264414072746;6,707763671875E-09;0,000100708007812506;9;720;1,44982449710369E-07;-1,50232017040253E-07;100 nA
0,050048828125;367,764902071483;6,4422607421875E-09;0,050018310546875;10;721;1,45239047706127E-07;-1,50868929922581E-07;100 nA
0,10009765625;368,265390070219;6,6436767578125E-09;0,100006103515625;10;722;1,45239047706127E-07;-1,50868929922581E-07;100 nA
0,150146484375;368,765878068956;6,9732666015625E-09;0,150054931640625;10;723;1,45239047706127E-07;-1,50868929922581E-07;100 nA
0,2001953125;369,266366067692;7,4188232421875E-09;0,200042724609375;10;724;1,45239047706127E-07;-1,50868929922581E-07;100 nA
0,250244140625;369,766854066428;7,9254150390625E-09;0,25006103515625;10;725;1,45239047706127E-07;-1,50868929922581E-07;100 nA
0,30029296875;370,267342065165;8,4930419921875E-09;0,300048828125;10;726;1,45239047706127E-07;-1,50868929922581E-07;100 nA
0,350341796875;370,767830063901;9,1217041015625E-09;0,350128173828125;10;727;1,45239047706127E-07;-1,50868929922581E-07;100 nA
0,400390625;371,268318062638;9,808349609375E-09;0,400054931640625;10;728;1,45239047706127E-07;-1,50868929922581E-07;100 nA
0,450439453125;371,768806061374;1,0516357421875E-08;0,4500732421875;10;729;1,45239047706127E-07;-1,50868929922581E-07;100 nA
0,50048828125;372,26929406011;1,1090087890625E-08;0,500030517578125;10;730;1,45239047706127E-07;-1,50868929922581E-07;100 nA
0,550537109375;372,769782058847;1,1474609375E-08;0,550079345703125;10;731;1,45239047706127E-07;-1,50868929922581E-07;100 nA
0,6005859375;373,270270057583;1,16729736328125E-08;0,600189208984375;10;732;1,45239047706127E-07;-1,50868929922581E-07;100 nA
0,650634765625;373,77075805632;1,165771484375E-08;0,650054931640625;10;733;1,45239047706127E-07;-1,50868929922581E-07;100 nA
0,70068359375;374,271246055056;1,1468505859375E-08;0,699951171875;10;734;1,45239047706127E-07;-1,50868929922581E-07;100 nA
0,750732421875;374,771734053792;1,12335205078125E-08;0,7498779296875;10;735;1,45239047706127E-07;-1,50868929922581E-07;100 nA
0,80078125;375,272222052529;1,10687255859375E-08;0,8001708984375;10;736;1,45239047706127E-07;-1,50868929922581E-07;100 nA
0,850830078125;375,772710051265;1,09771728515625E-08;0,849609375;10;737;1,45239047706127E-07;-1,50868929922581E-07;100 nA
0,90087890625;376,273198050002;1,097412109375E-08;0,8990478515625;10;738;1,45239047706127E-07;-1,50868929922581E-07;100 nA
0,950927734375;376,773686048738;1,1114501953125E-08;0,95001220703125;10;739;1,45239047706127E-07;-1,50868929922581E-07;100 nA
1,0009765625;377,274174047474;1,13494873046875E-08;0,999755859375;10;740;1,45239047706127E-07;-1,50868929922581E-07;100 nA
0,950927734375;377,774662046211;7,4371337890625E-09;0,94940185546875;10;741;1,45239047706127E-07;-1,50868929922581E-07;100 nA
0,90087890625;378,275150044947;5,2764892578125E-09;0,899658203125;10;742;1,45239047706127E-07;-1,50868929922581E-07;100 nA
0,850830078125;378,775638043683;3,802490234375E-09;0,8502197265625;10;743;1,45239047706127E-07;-1,50868929922581E-07;100 nA
0,80078125;379,27612604242;2,6763916015625E-09;0,799560546875;10;744;1,45239047706127E-07;-1,50868929922581E-07;100 nA
0,750732421875;379,776614041156;1,7059326171875E-09;0,74993896484375;10;745;1,45239047706127E-07;-1,50868929922581E-07;100 nA
0,70068359375;380,277102039893;8,880615234375E-10;0,70001220703125;10;746;1,45239047706127E-07;-1,50868929922581E-07;100 nA
0,650634765625;380,777590038629;1,068115234375E-10;0,650146484375;10;747;1,45239047706127E-07;-1,50868929922581E-07;100 nA
0,6005859375;381,278078037365;-7,049560546875E-10;0,6002197265625;10;748;1,45239047706127E-07;-1,50868929922581E-07;100 nA
0,550537109375;381,778566036102;-1,5716552734375E-09;0,5501708984375;10;749;1,45239047706127E-07;-1,50868929922581E-07;100 nA
0,50048828125;382,279054034838;-2,5115966796875E-09;0,50018310546875;10;750;1,45239047706127E-07;-1,50868929922581E-07;100 nA
0,450439453125;382,779542033575;-3,436279296875E-09;0,4501953125;10;751;1,45239047706127E-07;-1,50868929922581E-07;100 nA
0,400390625;383,280030032311;-4,35791015625E-09;0,400146484375;10;752;1,45239047706127E-07;-1,50868929922581E-07;100 nA
0,350341796875;383,780518031047;-5,2032470703125E-09;0,35015869140625;10;753;1,45239047706127E-07;-1,50868929922581E-07;100 nA
0,30029296875;384,281006029784;-6,01806640625E-09;0,3001708984375;10;754;1,45239047706127E-07;-1,50868929922581E-07;100 nA
0,250244140625;384,78149402852;-6,8145751953125E-09;0,25018310546875;10;755;1,45239047706127E-07;-1,50868929922581E-07;100 nA
0,2001953125;385,281982027257;-7,4951171875E-09;0,20013427734375;10;756;1,45239047706127E-07;-1,50868929922581E-07;100 nA
0,150146484375;385,782470025993;-8,0230712890625E-09;0,150115966796875;10;757;1,45239047706127E-07;-1,50868929922581E-07;100 nA
0,10009765625;386,282958024729;-8,59375E-09;0,100128173828125;10;758;1,45239047706127E-07;-1,50868929922581E-07;100 nA
0,050048828125;386,783446023466;-9,228515625E-09;0,0501708984375;10;759;1,45239047706127E-07;-1,50868929922581E-07;100 nA
0;387,283934022202;-1,01287841796875E-08;0,000164794921875003;10;760;1,45239047706127E-07;-1,50868929922581E-07;100 nA
-0,050048828125;387,784422020938;-1,14776611328125E-08;-0,04974365234375;10;761;1,45239047706127E-07;-1,50868929922581E-07;100 nA
-0,10009765625;388,284910019675;-1,24359130859375E-08;-0,09967041015625;10;762;1,45239047706127E-07;-1,50868929922581E-07;100 nA
-0,150146484375;388,785398018411;-9,7442626953125E-09;-0,149566650390625;10;763;1,45239047706127E-07;-1,50868929922581E-07;100 nA
-0,2001953125;389,285886017148;-8,36181640625E-09;-0,199493408203125;10;764;1,45239047706127E-07;-1,50868929922581E-07;100 nA
-0,250244140625;389,786374015884;-8,6822509765625E-09;-0,2493896484375;10;765;1,45239047706127E-07;-1,50868929922581E-07;100 nA
-0,30029296875;390,28686201462;-9,0240478515625E-09;-0,299346923828125;10;766;1,45239047706127E-07;-1,50868929922581E-07;100 nA
-0,350341796875;390,787350013357;-1,14959716796875E-08;-0,3492431640625;10;767;1,45239047706127E-07;-1,50868929922581E-07;100 nA
-0,400390625;391,287838012093;-9,381103515625E-09;-0,399139404296875;10;768;1,45239047706127E-07;-1,50868929922581E-07;100 nA
-0,450439453125;391,78832601083;-9,5123291015625E-09;-0,44891357421875;10;769;1,45239047706127E-07;-1,50868929922581E-07;100 nA
-0,50048828125;392,288814009566;-9,686279296875E-09;-0,498870849609375;10;770;1,45239047706127E-07;-1,50868929922581E-07;100 nA
-0,550537109375;392,789302008302;-9,820556640625E-09;-0,548797607421875;10;771;1,45239047706127E-07;-1,50868929922581E-07;100 nA
-0,6005859375;393,289790007039;-9,9029541015625E-09;-0,59869384765625;10;772;1,45239047706127E-07;-1,50868929922581E-07;100 nA
-0,650634765625;393,790278005775;-1,00311279296875E-08;-0,6485595703125;10;773;1,45239047706127E-07;-1,50868929922581E-07;100 nA
-0,70068359375;394,290766004512;-1,0101318359375E-08;-0,698638916015625;10;774;1,45239047706127E-07;-1,50868929922581E-07;100 nA
-0,750732421875;394,791254003248;-1,0223388671875E-08;-0,7486572265625;10;775;1,45239047706127E-07;-1,50868929922581E-07;100 nA
-0,80078125;395,291742001984;-1,038818359375E-08;-0,79833984375;10;776;1,45239047706127E-07;-1,50868929922581E-07;100 nA
-0,850830078125;395,792230000721;-1,0589599609375E-08;-0,8489990234375;10;777;1,45239047706127E-07;-1,50868929922581E-07;100 nA
-0,90087890625;396,292717999457;-1,087646484375E-08;-0,89874267578125;10;778;1,45239047706127E-07;-1,50868929922581E-07;100 nA
-0,950927734375;396,793205998193;-1,12060546875E-08;-0,948486328125;10;779;1,45239047706127E-07;-1,50868929922581E-07;100 nA
-1,0009765625;397,29369399693;-1,1590576171875E-08;-0,9991455078125;10;780;1,45239047706127E-07;-1,50868929922581E-07;100 nA
-0,950927734375;397,794181995666;-7,7667236328125E-09;-0,948486328125;10;781;1,45239047706127E-07;-1,50868929922581E-07;100 nA
-0,90087890625;398,294669994403;-5,5572509765625E-09;-0,8990478515625;10;782;1,45239047706127E-07;-1,50868929922581E-07;100 nA
-0,850830078125;398,795157993139;-4,0069580078125E-09;-0,84869384765625;10;783;1,45239047706127E-07;-1,50868929922581E-07;100 nA
-0,80078125;399,295645991875;-2,8045654296875E-09;-0,79864501953125;10;784;1,45239047706127E-07;-1,50868929922581E-07;100 nA
-0,750732421875;399,796133990612;-1,788330078125E-09;-0,7486572265625;10;785;1,45239047706127E-07;-1,50868929922581E-07;100 nA
-0,70068359375;400,296621989348;-8,85009765625E-10;-0,698699951171875;10;786;1,45239047706127E-07;-1,50868929922581E-07;100 nA
-0,650634765625;400,797109988085;-1,52587890625E-11;-0,648651123046875;10;787;1,45239047706127E-07;-1,50868929922581E-07;100 nA
-0,6005859375;401,297597986821;8,544921875E-10;-0,598724365234375;10;788;1,45239047706127E-07;-1,50868929922581E-07;100 nA
-0,550537109375;401,798085985557;1,739501953125E-09;-0,548858642578125;10;789;1,45239047706127E-07;-1,50868929922581E-07;100 nA
-0,50048828125;402,298573984294;2,5787353515625E-09;-0,4989013671875;10;790;1,45239047706127E-07;-1,50868929922581E-07;100 nA
-0,450439453125;402,79906198303;3,4393310546875E-09;-0,449005126953125;10;791;1,45239047706127E-07;-1,50868929922581E-07;100 nA
-0,400390625;403,299549981767;4,28466796875E-09;-0,399139404296875;10;792;1,45239047706127E-07;-1,50868929922581E-07;100 nA
-0,350341796875;403,800037980503;5,16357421875E-09;-0,3492431640625;10;793;1,45239047706127E-07;-1,50868929922581E-07;100 nA
-0,30029296875;404,300525979239;6,1614990234375E-09;-0,29931640625;10;794;1,45239047706127E-07;-1,50868929922581E-07;100 nA
-0,250244140625;404,801013977976;7,3486328125E-09;-0,249420166015625;10;795;1,45239047706127E-07;-1,50868929922581E-07;100 nA
-0,2001953125;405,301501976712;8,135986328125E-09;-0,199493408203125;10;796;1,45239047706127E-07;-1,50868929922581E-07;100 nA
-0,150146484375;405,801989975448;8,4136962890625E-09;-0,149658203125;10;797;1,45239047706127E-07;-1,50868929922581E-07;100 nA
-0,10009765625;406,302477974185;8,355712890625E-09;-0,09979248046875;10;798;1,45239047706127E-07;-1,50868929922581E-07;100 nA
-0,050048828125;406,802965972921;7,733154296875E-09;-0,04986572265625;10;799;1,45239047706127E-07;-1,50868929922581E-07;100 nA
0;407,303453971658;6,6680908203125E-09;0,000115966796875006;10;800;1,45239047706127E-07;-1,50868929922581E-07;100 nA
