Potential applied (V);Time (s);WE(1).Current (A);WE(1).Potential (V);Scan;Index;Q+;Q-;Current range
0,050048828125;7,38875798134518;4,058837890625E-10;0,05010986328125;1;1;7,82883539795875E-08;-1,00170969963074E-07;100 nA
0,10009765625;7,88924598008157;1,165771484375E-09;0,10009765625;1;2;7,82883539795875E-08;-1,00170969963074E-07;100 nA
0,150146484375;8,38973397881796;1,739501953125E-09;0,15008544921875;1;3;7,82883539795875E-08;-1,00170969963074E-07;100 nA
0,2001953125;8,89022197755435;2,2796630859375E-09;0,20013427734375;1;4;7,82883539795875E-08;-1,00170969963074E-07;100 nA
0,250244140625;9,39070997629074;2,838134765625E-09;0,250091552734375;1;5;7,82883539795875E-08;-1,00170969963074E-07;100 nA
0,30029296875;9,89119797502713;3,314208984375E-09;0,300079345703125;1;6;7,82883539795875E-08;-1,00170969963074E-07;100 nA
0,350341796875;10,3916859737635;3,8330078125E-09;0,35009765625;1;7;7,82883539795875E-08;-1,00170969963074E-07;100 nA
0,400390625;10,8921739724999;4,3609619140625E-09;0,400146484375;1;8;7,82883539795875E-08;-1,00170969963074E-07;100 nA
0,450439453125;11,3926619712363;4,937744140625E-09;0,450164794921875;1;9;7,82883539795875E-08;-1,00170969963074E-07;100 nA
0,50048828125;11,8931499699727;5,45654296875E-09;0,50018310546875;1;10;7,82883539795875E-08;-1,00170969963074E-07;100 nA
0,550537109375;12,3936379687091;5,950927734375E-09;0,5501708984375;1;11;7,82883539795875E-08;-1,00170969963074E-07;100 nA
0,6005859375;12,8941259674455;6,3568115234375E-09;0,600128173828125;1;12;7,82883539795875E-08;-1,00170969963074E-07;100 nA
0,650634765625;13,3946139661819;6,689453125E-09;0,65008544921875;1;13;7,82883539795875E-08;-1,00170969963074E-07;100 nA
0,70068359375;13,8951019649182;6,9488525390625E-09;0,70001220703125;1;14;7,82883539795875E-08;-1,00170969963074E-07;100 nA
0,750732421875;14,3955899636546;7,0159912109375E-09;0,749908447265625;1;15;7,82883539795875E-08;-1,00170969963074E-07;100 nA
0,80078125;14,896077962391;7,0770263671875E-09;0,79986572265625;1;16;7,82883539795875E-08;-1,00170969963074E-07;100 nA
0,850830078125;15,3965659611274;7,1502685546875E-09;0,8502197265625;1;17;7,82883539795875E-08;-1,00170969963074E-07;100 nA
0,90087890625;15,8970539598638;7,1990966796875E-09;0,89996337890625;1;18;7,82883539795875E-08;-1,00170969963074E-07;100 nA
0,950927734375;16,3975419586002;7,269287109375E-09;0,94970703125;1;19;7,82883539795875E-08;-1,00170969963074E-07;100 nA
1,0009765625;16,8980299573366;7,354736328125E-09;0,9991455078125;1;20;7,82883539795875E-08;-1,00170969963074E-07;100 nA
0,950927734375;17,398517956073;4,632568359375E-09;0,94970703125;1;21;7,82883539795875E-08;-1,00170969963074E-07;100 nA
0,90087890625;17,8990059548094;3,082275390625E-09;0,899658203125;1;22;7,82883539795875E-08;-1,00170969963074E-07;100 nA
0,850830078125;18,3994939535457;1,9989013671875E-09;0,850830078125;1;23;7,82883539795875E-08;-1,00170969963074E-07;100 nA
0,80078125;18,8999819522821;1,1474609375E-09;0,8001708984375;1;24;7,82883539795875E-08;-1,00170969963074E-07;100 nA
0,750732421875;19,4004699510185;4,45556640625E-10;0,7498779296875;1;25;7,82883539795875E-08;-1,00170969963074E-07;100 nA
0,70068359375;19,9009579497549;-1,15966796875E-10;0,699981689453125;1;26;7,82883539795875E-08;-1,00170969963074E-07;100 nA
0,650634765625;20,4014459484913;-6,9580078125E-10;0,65008544921875;1;27;7,82883539795875E-08;-1,00170969963074E-07;100 nA
0,6005859375;20,9019339472277;-1,2786865234375E-09;0,60015869140625;1;28;7,82883539795875E-08;-1,00170969963074E-07;100 nA
0,550537109375;21,4024219459641;-1,861572265625E-09;0,550201416015625;1;29;7,82883539795875E-08;-1,00170969963074E-07;100 nA
0,50048828125;21,9029099447005;-2,4627685546875E-09;0,50018310546875;1;30;7,82883539795875E-08;-1,00170969963074E-07;100 nA
0,450439453125;22,4033979434369;-3,0059814453125E-09;0,450164794921875;1;31;7,82883539795875E-08;-1,00170969963074E-07;100 nA
0,400390625;22,9038859421732;-3,521728515625E-09;0,400238037109375;1;32;7,82883539795875E-08;-1,00170969963074E-07;100 nA
0,350341796875;23,4043739409096;-4,022216796875E-09;0,350189208984375;1;33;7,82883539795875E-08;-1,00170969963074E-07;100 nA
0,30029296875;23,904861939646;-4,559326171875E-09;0,30010986328125;1;34;7,82883539795875E-08;-1,00170969963074E-07;100 nA
0,250244140625;24,4053499383824;-4,96826171875E-09;0,25018310546875;1;35;7,82883539795875E-08;-1,00170969963074E-07;100 nA
0,2001953125;24,9058379371188;-5,26123046875E-09;0,200103759765625;1;36;7,82883539795875E-08;-1,00170969963074E-07;100 nA
0,150146484375;25,4063259358552;-5,5877685546875E-09;0,150177001953125;1;37;7,82883539795875E-08;-1,00170969963074E-07;100 nA
0,10009765625;25,9068139345916;-6,0150146484375E-09;0,100189208984375;1;38;7,82883539795875E-08;-1,00170969963074E-07;100 nA
0,050048828125;26,407301933328;-6,5277099609375E-09;0,0501708984375;1;39;7,82883539795875E-08;-1,00170969963074E-07;100 nA
0;26,9077899320644;-7,470703125E-09;0,000143432617187494;1;40;7,82883539795875E-08;-1,00170969963074E-07;100 nA
-0,050048828125;27,4082779308008;-9,5306396484375E-09;-0,0498046875;1;41;7,82883539795875E-08;-1,00170969963074E-07;100 nA
-0,10009765625;27,9087659295371;-1,15814208984375E-08;-0,099639892578125;1;42;7,82883539795875E-08;-1,00170969963074E-07;100 nA
-0,150146484375;28,4092539282735;-1,1285400390625E-08;-0,14947509765625;1;43;7,82883539795875E-08;-1,00170969963074E-07;100 nA
-0,2001953125;28,9097419270099;-7,55615234375E-09;-0,19940185546875;1;44;7,82883539795875E-08;-1,00170969963074E-07;100 nA
-0,250244140625;29,4102299257463;-5,755615234375E-09;-0,249359130859375;1;45;7,82883539795875E-08;-1,00170969963074E-07;100 nA
-0,30029296875;29,9107179244827;-5,9295654296875E-09;-0,299224853515625;1;46;7,82883539795875E-08;-1,00170969963074E-07;100 nA
-0,350341796875;30,4112059232191;-6,33544921875E-09;-0,3492431640625;1;47;7,82883539795875E-08;-1,00170969963074E-07;100 nA
-0,400390625;30,9116939219555;-6,50634765625E-09;-0,399078369140625;1;48;7,82883539795875E-08;-1,00170969963074E-07;100 nA
-0,450439453125;31,4121819206919;-6,402587890625E-09;-0,44903564453125;1;49;7,82883539795875E-08;-1,00170969963074E-07;100 nA
-0,50048828125;31,9126699194283;-6,2652587890625E-09;-0,498870849609375;1;50;7,82883539795875E-08;-1,00170969963074E-07;100 nA
-0,550537109375;32,4131579181646;-6,18896484375E-09;-0,548736572265625;1;51;7,82883539795875E-08;-1,00170969963074E-07;100 nA
-0,6005859375;32,913645916901;-6,0089111328125E-09;-0,59869384765625;1;52;7,82883539795875E-08;-1,00170969963074E-07;100 nA
-0,650634765625;33,4141339156374;-5,8441162109375E-09;-0,64862060546875;1;53;7,82883539795875E-08;-1,00170969963074E-07;100 nA
-0,70068359375;33,9146219143738;-5,731201171875E-09;-0,698638916015625;1;54;7,82883539795875E-08;-1,00170969963074E-07;100 nA
-0,750732421875;34,4151099131102;-5,6060791015625E-09;-0,74859619140625;1;55;7,82883539795875E-08;-1,00170969963074E-07;100 nA
-0,80078125;34,9155979118466;-5,572509765625E-09;-0,79925537109375;1;56;7,82883539795875E-08;-1,00170969963074E-07;100 nA
-0,850830078125;35,416085910583;-5,55419921875E-09;-0,8489990234375;1;57;7,82883539795875E-08;-1,00170969963074E-07;100 nA
-0,90087890625;35,9165739093194;-5,5999755859375E-09;-0,89874267578125;1;58;7,82883539795875E-08;-1,00170969963074E-07;100 nA
-0,950927734375;36,4170619080558;-5,6884765625E-09;-0,94879150390625;1;59;7,82883539795875E-08;-1,00170969963074E-07;100 nA
-1,0009765625;36,9175499067921;-5,877685546875E-09;-0,99853515625;1;60;7,82883539795875E-08;-1,00170969963074E-07;100 nA
-0,950927734375;37,4180379055285;-3,411865234375E-09;-0,94940185546875;1;61;7,82883539795875E-08;-1,00170969963074E-07;100 nA
-0,90087890625;37,9185259042649;-2,13623046875E-09;-0,8990478515625;1;62;7,82883539795875E-08;-1,00170969963074E-07;100 nA
-0,850830078125;38,4190139030013;-1,3427734375E-09;-0,8489990234375;1;63;7,82883539795875E-08;-1,00170969963074E-07;100 nA
-0,80078125;38,9195019017377;-7,843017578125E-10;-0,7989501953125;1;64;7,82883539795875E-08;-1,00170969963074E-07;100 nA
-0,750732421875;39,4199899004741;-2,960205078125E-10;-0,748626708984375;1;65;7,82883539795875E-08;-1,00170969963074E-07;100 nA
-0,70068359375;39,9204778992105;1,52587890625E-10;-0,698577880859375;1;66;7,82883539795875E-08;-1,00170969963074E-07;100 nA
-0,650634765625;40,4209658979469;4,7607421875E-10;-0,648651123046875;1;67;7,82883539795875E-08;-1,00170969963074E-07;100 nA
-0,6005859375;40,9214538966833;8,97216796875E-10;-0,598724365234375;1;68;7,82883539795875E-08;-1,00170969963074E-07;100 nA
-0,550537109375;41,4219418954197;1,3580322265625E-09;-0,548736572265625;1;69;7,82883539795875E-08;-1,00170969963074E-07;100 nA
-0,50048828125;41,922429894156;1,788330078125E-09;-0,498809814453125;1;70;7,82883539795875E-08;-1,00170969963074E-07;100 nA
-0,450439453125;42,4229178928924;2,3101806640625E-09;-0,448944091796875;1;71;7,82883539795875E-08;-1,00170969963074E-07;100 nA
-0,400390625;42,9234058916288;2,8228759765625E-09;-0,39910888671875;1;72;7,82883539795875E-08;-1,00170969963074E-07;100 nA
-0,350341796875;43,4238938903652;3,411865234375E-09;-0,3492431640625;1;73;7,82883539795875E-08;-1,00170969963074E-07;100 nA
-0,30029296875;43,9243818891016;4,1778564453125E-09;-0,29931640625;1;74;7,82883539795875E-08;-1,00170969963074E-07;100 nA
-0,250244140625;44,424869887838;4,864501953125E-09;-0,24945068359375;1;75;7,82883539795875E-08;-1,00170969963074E-07;100 nA
-0,2001953125;44,9253578865744;5,2032470703125E-09;-0,199554443359375;1;76;7,82883539795875E-08;-1,00170969963074E-07;100 nA
-0,150146484375;45,4258458853108;5,145263671875E-09;-0,149627685546875;1;77;7,82883539795875E-08;-1,00170969963074E-07;100 nA
-0,10009765625;45,9263338840472;4,7607421875E-09;-0,0997314453125;1;78;7,82883539795875E-08;-1,00170969963074E-07;100 nA
-0,050048828125;46,4268218827835;4,2572021484375E-09;-0,0498046875;1;79;7,82883539795875E-08;-1,00170969963074E-07;100 nA
0;46,9273098815199;4,1473388671875E-09;0,0001068115234375;1;80;7,82883539795875E-08;-1,00170969963074E-07;100 nA
0,050048828125;47,4277978802563;4,302978515625E-09;0,050079345703125;2;81;9,96898487210273E-08;-9,67221707105637E-08;100 nA
0,10009765625;47,9282858789927;4,50439453125E-09;0,10009765625;2;82;9,96898487210273E-08;-9,67221707105637E-08;100 nA
0,150146484375;48,4287738777291;4,7637939453125E-09;0,150054931640625;2;83;9,96898487210273E-08;-9,67221707105637E-08;100 nA
0,2001953125;48,9292618764655;5,13916015625E-09;0,20001220703125;2;84;9,96898487210273E-08;-9,67221707105637E-08;100 nA
0,250244140625;49,4297498752019;5,560302734375E-09;0,250091552734375;2;85;9,96898487210273E-08;-9,67221707105637E-08;100 nA
0,30029296875;49,9302378739383;5,926513671875E-09;0,300079345703125;2;86;9,96898487210273E-08;-9,67221707105637E-08;100 nA
0,350341796875;50,4307258726747;6,3079833984375E-09;0,350128173828125;2;87;9,96898487210273E-08;-9,67221707105637E-08;100 nA
0,400390625;50,931213871411;6,65283203125E-09;0,400146484375;2;88;9,96898487210273E-08;-9,67221707105637E-08;100 nA
0,450439453125;51,4317018701474;6,9976806640625E-09;0,450103759765625;2;89;9,96898487210273E-08;-9,67221707105637E-08;100 nA
0,50048828125;51,9321898688838;7,33642578125E-09;0,5001220703125;2;90;9,96898487210273E-08;-9,67221707105637E-08;100 nA
0,550537109375;52,4326778676202;7,647705078125E-09;0,55010986328125;2;91;9,96898487210273E-08;-9,67221707105637E-08;100 nA
0,6005859375;52,9331658663566;7,9254150390625E-09;0,60009765625;2;92;9,96898487210273E-08;-9,67221707105637E-08;100 nA
0,650634765625;53,433653865093;8,1634521484375E-09;0,65008544921875;2;93;9,96898487210273E-08;-9,67221707105637E-08;100 nA
0,70068359375;53,9341418638294;8,233642578125E-09;0,70001220703125;2;94;9,96898487210273E-08;-9,67221707105637E-08;100 nA
0,750732421875;54,4346298625658;8,209228515625E-09;0,749908447265625;2;95;9,96898487210273E-08;-9,67221707105637E-08;100 nA
0,80078125;54,9351178613022;8,1817626953125E-09;0,8001708984375;2;96;9,96898487210273E-08;-9,67221707105637E-08;100 nA
0,850830078125;55,4356058600386;8,148193359375E-09;0,849609375;2;97;9,96898487210273E-08;-9,67221707105637E-08;100 nA
0,90087890625;55,9360938587749;8,123779296875E-09;0,89935302734375;2;98;9,96898487210273E-08;-9,67221707105637E-08;100 nA
0,950927734375;56,4365818575113;8,1268310546875E-09;0,95001220703125;2;99;9,96898487210273E-08;-9,67221707105637E-08;100 nA
1,0009765625;56,9370698562477;8,184814453125E-09;0,999755859375;2;100;9,96898487210273E-08;-9,67221707105637E-08;100 nA
0,950927734375;57,4375578549841;5,255126953125E-09;0,94940185546875;2;101;9,96898487210273E-08;-9,67221707105637E-08;100 nA
0,90087890625;57,9380458537205;3,5797119140625E-09;0,89996337890625;2;102;9,96898487210273E-08;-9,67221707105637E-08;100 nA
0,850830078125;58,4385338524569;2,42919921875E-09;0,85052490234375;2;103;9,96898487210273E-08;-9,67221707105637E-08;100 nA
0,80078125;58,9390218511933;1,544189453125E-09;0,79986572265625;2;104;9,96898487210273E-08;-9,67221707105637E-08;100 nA
0,750732421875;59,4395098499297;7,720947265625E-10;0,7498779296875;2;105;9,96898487210273E-08;-9,67221707105637E-08;100 nA
0,70068359375;59,9399978486661;1,617431640625E-10;0,699981689453125;2;106;9,96898487210273E-08;-9,67221707105637E-08;100 nA
0,650634765625;60,4404858474024;-4,82177734375E-10;0,650115966796875;2;107;9,96898487210273E-08;-9,67221707105637E-08;100 nA
0,6005859375;60,9409738461388;-1,1688232421875E-09;0,600189208984375;2;108;9,96898487210273E-08;-9,67221707105637E-08;100 nA
0,550537109375;61,4414618448752;-1,8096923828125E-09;0,550140380859375;2;109;9,96898487210273E-08;-9,67221707105637E-08;100 nA
0,50048828125;61,9419498436116;-2,435302734375E-09;0,500152587890625;2;110;9,96898487210273E-08;-9,67221707105637E-08;100 nA
0,450439453125;62,442437842348;-2,9937744140625E-09;0,450103759765625;2;111;9,96898487210273E-08;-9,67221707105637E-08;100 nA
0,400390625;62,9429258410844;-3,533935546875E-09;0,400177001953125;2;112;9,96898487210273E-08;-9,67221707105637E-08;100 nA
0,350341796875;63,4434138398208;-4,034423828125E-09;0,350128173828125;2;113;9,96898487210273E-08;-9,67221707105637E-08;100 nA
0,30029296875;63,9439018385572;-4,5806884765625E-09;0,300140380859375;2;114;9,96898487210273E-08;-9,67221707105637E-08;100 nA
0,250244140625;64,4443898372936;-5,0262451171875E-09;0,250091552734375;2;115;9,96898487210273E-08;-9,67221707105637E-08;100 nA
0,2001953125;64,9448778360299;-5,303955078125E-09;0,200164794921875;2;116;9,96898487210273E-08;-9,67221707105637E-08;100 nA
0,150146484375;65,4453658347663;-5,6793212890625E-09;0,15008544921875;2;117;9,96898487210273E-08;-9,67221707105637E-08;100 nA
0,10009765625;65,9458538335027;-6,060791015625E-09;0,100189208984375;2;118;9,96898487210273E-08;-9,67221707105637E-08;100 nA
0,050048828125;66,4463418322391;-6,5765380859375E-09;0,050140380859375;2;119;9,96898487210273E-08;-9,67221707105637E-08;100 nA
0;66,9468298309755;-7,5927734375E-09;0,000149536132812503;2;120;9,96898487210273E-08;-9,67221707105637E-08;100 nA
-0,050048828125;67,4473178297119;-9,796142578125E-09;-0,0497100830078125;2;121;9,96898487210273E-08;-9,67221707105637E-08;100 nA
-0,10009765625;67,9478058284483;-1,18408203125E-08;-0,099609375;2;122;9,96898487210273E-08;-9,67221707105637E-08;100 nA
-0,150146484375;68,4482938271847;-1,13311767578125E-08;-0,149505615234375;2;123;9,96898487210273E-08;-9,67221707105637E-08;100 nA
-0,2001953125;68,9487818259211;-7,2784423828125E-09;-0,199432373046875;2;124;9,96898487210273E-08;-9,67221707105637E-08;100 nA
-0,250244140625;69,4492698246574;-5,8380126953125E-09;-0,24932861328125;2;125;9,96898487210273E-08;-9,67221707105637E-08;100 nA
-0,30029296875;69,9497578233938;-5,926513671875E-09;-0,299224853515625;2;126;9,96898487210273E-08;-9,67221707105637E-08;100 nA
-0,350341796875;70,4502458221302;-6,170654296875E-09;-0,349212646484375;2;127;9,96898487210273E-08;-9,67221707105637E-08;100 nA
-0,400390625;70,9507338208666;-6,2042236328125E-09;-0,399078369140625;2;128;9,96898487210273E-08;-9,67221707105637E-08;100 nA
-0,450439453125;71,451221819603;-5,9967041015625E-09;-0,448944091796875;2;129;9,96898487210273E-08;-9,67221707105637E-08;100 nA
-0,50048828125;71,9517098183394;-5,82275390625E-09;-0,498870849609375;2;130;9,96898487210273E-08;-9,67221707105637E-08;100 nA
-0,550537109375;72,4521978170758;-5,615234375E-09;-0,54876708984375;2;131;9,96898487210273E-08;-9,67221707105637E-08;100 nA
-0,6005859375;72,9526858158122;-5,426025390625E-09;-0,598663330078125;2;132;9,96898487210273E-08;-9,67221707105637E-08;100 nA
-0,650634765625;73,4531738145486;-5,255126953125E-09;-0,648590087890625;2;133;9,96898487210273E-08;-9,67221707105637E-08;100 nA
-0,70068359375;73,953661813285;-5,1239013671875E-09;-0,698638916015625;2;134;9,96898487210273E-08;-9,67221707105637E-08;100 nA
-0,750732421875;74,4541498120213;-5,0384521484375E-09;-0,748626708984375;2;135;9,96898487210273E-08;-9,67221707105637E-08;100 nA
-0,80078125;74,9546378107577;-5,035400390625E-09;-0,7989501953125;2;136;9,96898487210273E-08;-9,67221707105637E-08;100 nA
-0,850830078125;75,4551258094941;-5,059814453125E-09;-0,848388671875;2;137;9,96898487210273E-08;-9,67221707105637E-08;100 nA
-0,90087890625;75,9556138082305;-5,1025390625E-09;-0,89874267578125;2;138;9,96898487210273E-08;-9,67221707105637E-08;100 nA
-0,950927734375;76,4561018069669;-5,2581787109375E-09;-0,94879150390625;2;139;9,96898487210273E-08;-9,67221707105637E-08;100 nA
-1,0009765625;76,9565898057033;-5,4901123046875E-09;-0,99884033203125;2;140;9,96898487210273E-08;-9,67221707105637E-08;100 nA
-0,950927734375;77,4570778044397;-3,1951904296875E-09;-0,9490966796875;2;141;9,96898487210273E-08;-9,67221707105637E-08;100 nA
-0,90087890625;77,9575658031761;-2,008056640625E-09;-0,89874267578125;2;142;9,96898487210273E-08;-9,67221707105637E-08;100 nA
-0,850830078125;78,4580538019125;-1,23291015625E-09;-0,84869384765625;2;143;9,96898487210273E-08;-9,67221707105637E-08;100 nA
-0,80078125;78,9585418006488;-6,8359375E-10;-0,79803466796875;2;144;9,96898487210273E-08;-9,67221707105637E-08;100 nA
-0,750732421875;79,4590297993852;-2,471923828125E-10;-0,7486572265625;2;145;9,96898487210273E-08;-9,67221707105637E-08;100 nA
-0,70068359375;79,9595177981216;1,617431640625E-10;-0,6986083984375;2;146;9,96898487210273E-08;-9,67221707105637E-08;100 nA
-0,650634765625;80,460005796858;5,92041015625E-10;-0,64862060546875;2;147;9,96898487210273E-08;-9,67221707105637E-08;100 nA
-0,6005859375;80,9604937955944;9,6435546875E-10;-0,598724365234375;2;148;9,96898487210273E-08;-9,67221707105637E-08;100 nA
-0,550537109375;81,4609817943308;1,416015625E-09;-0,548797607421875;2;149;9,96898487210273E-08;-9,67221707105637E-08;100 nA
-0,50048828125;81,9614697930672;1,8829345703125E-09;-0,4989013671875;2;150;9,96898487210273E-08;-9,67221707105637E-08;100 nA
-0,450439453125;82,4619577918036;2,362060546875E-09;-0,449005126953125;2;151;9,96898487210273E-08;-9,67221707105637E-08;100 nA
-0,400390625;82,96244579054;2,899169921875E-09;-0,3990478515625;2;152;9,96898487210273E-08;-9,67221707105637E-08;100 nA
-0,350341796875;83,4629337892763;3,4576416015625E-09;-0,3492431640625;2;153;9,96898487210273E-08;-9,67221707105637E-08;100 nA
-0,30029296875;83,9634217880127;4,2266845703125E-09;-0,29925537109375;2;154;9,96898487210273E-08;-9,67221707105637E-08;100 nA
-0,250244140625;84,4639097867491;4,9407958984375E-09;-0,249420166015625;2;155;9,96898487210273E-08;-9,67221707105637E-08;100 nA
-0,2001953125;84,9643977854855;5,328369140625E-09;-0,199462890625;2;156;9,96898487210273E-08;-9,67221707105637E-08;100 nA
-0,150146484375;85,4648857842219;5,2978515625E-09;-0,14959716796875;2;157;9,96898487210273E-08;-9,67221707105637E-08;100 nA
-0,10009765625;85,9653737829583;4,815673828125E-09;-0,09979248046875;2;158;9,96898487210273E-08;-9,67221707105637E-08;100 nA
-0,050048828125;86,4658617816947;4,3670654296875E-09;-0,049896240234375;2;159;9,96898487210273E-08;-9,67221707105637E-08;100 nA
0;86,9663497804311;4,2938232421875E-09;0,000119018554687503;2;160;9,96898487210273E-08;-9,67221707105637E-08;100 nA
0,050048828125;87,4668377791675;4,4219970703125E-09;0,05010986328125;3;161;9,9237747490406E-08;-9,5028318464756E-08;100 nA
0,10009765625;87,9673257779039;4,5989990234375E-09;0,10003662109375;3;162;9,9237747490406E-08;-9,5028318464756E-08;100 nA
0,150146484375;88,4678137766402;4,8675537109375E-09;0,150115966796875;3;163;9,9237747490406E-08;-9,5028318464756E-08;100 nA
0,2001953125;88,9683017753766;5,2276611328125E-09;0,200103759765625;3;164;9,9237747490406E-08;-9,5028318464756E-08;100 nA
0,250244140625;89,468789774113;5,62744140625E-09;0,2501220703125;3;165;9,9237747490406E-08;-9,5028318464756E-08;100 nA
0,30029296875;89,9692777728494;5,975341796875E-09;0,300079345703125;3;166;9,9237747490406E-08;-9,5028318464756E-08;100 nA
0,350341796875;90,4697657715858;6,304931640625E-09;0,350128173828125;3;167;9,9237747490406E-08;-9,5028318464756E-08;100 nA
0,400390625;90,9702537703222;6,610107421875E-09;0,400115966796875;3;168;9,9237747490406E-08;-9,5028318464756E-08;100 nA
0,450439453125;91,4707417690586;6,9427490234375E-09;0,45013427734375;3;169;9,9237747490406E-08;-9,5028318464756E-08;100 nA
0,50048828125;91,971229767795;7,2906494140625E-09;0,500091552734375;3;170;9,9237747490406E-08;-9,5028318464756E-08;100 nA
0,550537109375;92,4717177665314;7,6141357421875E-09;0,55010986328125;3;171;9,9237747490406E-08;-9,5028318464756E-08;100 nA
0,6005859375;92,9722057652677;7,879638671875E-09;0,60015869140625;3;172;9,9237747490406E-08;-9,5028318464756E-08;100 nA
0,650634765625;93,4726937640041;8,038330078125E-09;0,6500244140625;3;173;9,9237747490406E-08;-9,5028318464756E-08;100 nA
0,70068359375;93,9731817627405;8,09326171875E-09;0,699920654296875;3;174;9,9237747490406E-08;-9,5028318464756E-08;100 nA
0,750732421875;94,4736697614769;8,111572265625E-09;0,7498779296875;3;175;9,9237747490406E-08;-9,5028318464756E-08;100 nA
0,80078125;94,9741577602133;8,1329345703125E-09;0,8001708984375;3;176;9,9237747490406E-08;-9,5028318464756E-08;100 nA
0,850830078125;95,4746457589497;8,0657958984375E-09;0,849609375;3;177;9,9237747490406E-08;-9,5028318464756E-08;100 nA
0,90087890625;95,9751337576861;8,038330078125E-09;0,899658203125;3;178;9,9237747490406E-08;-9,5028318464756E-08;100 nA
0,950927734375;96,4756217564225;8,026123046875E-09;0,94940185546875;3;179;9,9237747490406E-08;-9,5028318464756E-08;100 nA
1,0009765625;96,9761097551589;8,1298828125E-09;0,999755859375;3;180;9,9237747490406E-08;-9,5028318464756E-08;100 nA
0,950927734375;97,4765977538952;5,224609375E-09;0,95001220703125;3;181;9,9237747490406E-08;-9,5028318464756E-08;100 nA
0,90087890625;97,9770857526316;3,5125732421875E-09;0,899658203125;3;182;9,9237747490406E-08;-9,5028318464756E-08;100 nA
0,850830078125;98,477573751368;2,40478515625E-09;0,84991455078125;3;183;9,9237747490406E-08;-9,5028318464756E-08;100 nA
0,80078125;98,9780617501044;1,5045166015625E-09;0,79986572265625;3;184;9,9237747490406E-08;-9,5028318464756E-08;100 nA
0,750732421875;99,4785497488408;7,843017578125E-10;0,749908447265625;3;185;9,9237747490406E-08;-9,5028318464756E-08;100 nA
0,70068359375;99,9790377475772;1,953125E-10;0,699981689453125;3;186;9,9237747490406E-08;-9,5028318464756E-08;100 nA
0,650634765625;100,479525746314;-4,45556640625E-10;0,650115966796875;3;187;9,9237747490406E-08;-9,5028318464756E-08;100 nA
0,6005859375;100,98001374505;-1,0528564453125E-09;0,600128173828125;3;188;9,9237747490406E-08;-9,5028318464756E-08;100 nA
0,550537109375;101,480501743786;-1,6998291015625E-09;0,55010986328125;3;189;9,9237747490406E-08;-9,5028318464756E-08;100 nA
0,50048828125;101,980989742523;-2,3345947265625E-09;0,50018310546875;3;190;9,9237747490406E-08;-9,5028318464756E-08;100 nA
0,450439453125;102,481477741259;-2,9205322265625E-09;0,450164794921875;3;191;9,9237747490406E-08;-9,5028318464756E-08;100 nA
0,400390625;102,981965739996;-3,411865234375E-09;0,400177001953125;3;192;9,9237747490406E-08;-9,5028318464756E-08;100 nA
0,350341796875;103,482453738732;-3,955078125E-09;0,3502197265625;3;193;9,9237747490406E-08;-9,5028318464756E-08;100 nA
0,30029296875;103,982941737468;-4,510498046875E-09;0,300140380859375;3;194;9,9237747490406E-08;-9,5028318464756E-08;100 nA
0,250244140625;104,483429736205;-4,9530029296875E-09;0,25018310546875;3;195;9,9237747490406E-08;-9,5028318464756E-08;100 nA
0,2001953125;104,983917734941;-5,2764892578125E-09;0,200164794921875;3;196;9,9237747490406E-08;-9,5028318464756E-08;100 nA
0,150146484375;105,484405733677;-5,645751953125E-09;0,150146484375;3;197;9,9237747490406E-08;-9,5028318464756E-08;100 nA
0,10009765625;105,984893732414;-6,0546875E-09;0,10009765625;3;198;9,9237747490406E-08;-9,5028318464756E-08;100 nA
0,050048828125;106,48538173115;-6,5521240234375E-09;0,050140380859375;3;199;9,9237747490406E-08;-9,5028318464756E-08;100 nA
0;106,985869729887;-7,5408935546875E-09;0,000146484375000006;3;200;9,9237747490406E-08;-9,5028318464756E-08;100 nA
-0,050048828125;107,486357728623;-9,7625732421875E-09;-0,04971923828125;3;201;9,9237747490406E-08;-9,5028318464756E-08;100 nA
-0,10009765625;107,986845727359;-1,1871337890625E-08;-0,09967041015625;3;202;9,9237747490406E-08;-9,5028318464756E-08;100 nA
-0,150146484375;108,487333726096;-1,123046875E-08;-0,1495361328125;3;203;9,9237747490406E-08;-9,5028318464756E-08;100 nA
-0,2001953125;108,987821724832;-7,0587158203125E-09;-0,199432373046875;3;204;9,9237747490406E-08;-9,5028318464756E-08;100 nA
-0,250244140625;109,488309723569;-5,7952880859375E-09;-0,2493896484375;3;205;9,9237747490406E-08;-9,5028318464756E-08;100 nA
-0,30029296875;109,988797722305;-5,902099609375E-09;-0,29925537109375;3;206;9,9237747490406E-08;-9,5028318464756E-08;100 nA
-0,350341796875;110,489285721041;-6,1187744140625E-09;-0,34918212890625;3;207;9,9237747490406E-08;-9,5028318464756E-08;100 nA
-0,400390625;110,989773719778;-6,1279296875E-09;-0,399078369140625;3;208;9,9237747490406E-08;-9,5028318464756E-08;100 nA
-0,450439453125;111,490261718514;-5,8929443359375E-09;-0,448944091796875;3;209;9,9237747490406E-08;-9,5028318464756E-08;100 nA
-0,50048828125;111,990749717251;-5,7098388671875E-09;-0,498870849609375;3;210;9,9237747490406E-08;-9,5028318464756E-08;100 nA
-0,550537109375;112,491237715987;-5,5206298828125E-09;-0,54876708984375;3;211;9,9237747490406E-08;-9,5028318464756E-08;100 nA
-0,6005859375;112,991725714723;-5,33447265625E-09;-0,598663330078125;3;212;9,9237747490406E-08;-9,5028318464756E-08;100 nA
-0,650634765625;113,49221371346;-5,120849609375E-09;-0,648590087890625;3;213;9,9237747490406E-08;-9,5028318464756E-08;100 nA
-0,70068359375;113,992701712196;-4,986572265625E-09;-0,698577880859375;3;214;9,9237747490406E-08;-9,5028318464756E-08;100 nA
-0,750732421875;114,493189710932;-4,9102783203125E-09;-0,748687744140625;3;215;9,9237747490406E-08;-9,5028318464756E-08;100 nA
-0,80078125;114,993677709669;-4,8675537109375E-09;-0,79864501953125;3;216;9,9237747490406E-08;-9,5028318464756E-08;100 nA
-0,850830078125;115,494165708405;-4,8095703125E-09;-0,848388671875;3;217;9,9237747490406E-08;-9,5028318464756E-08;100 nA
-0,90087890625;115,994653707142;-4,9652099609375E-09;-0,8984375;3;218;9,9237747490406E-08;-9,5028318464756E-08;100 nA
-0,950927734375;116,495141705878;-5,11474609375E-09;-0,948486328125;3;219;9,9237747490406E-08;-9,5028318464756E-08;100 nA
-1,0009765625;116,995629704614;-5,2703857421875E-09;-0,9991455078125;3;220;9,9237747490406E-08;-9,5028318464756E-08;100 nA
-0,950927734375;117,496117703351;-3,0792236328125E-09;-0,9490966796875;3;221;9,9237747490406E-08;-9,5028318464756E-08;100 nA
-0,90087890625;117,996605702087;-1,8890380859375E-09;-0,8990478515625;3;222;9,9237747490406E-08;-9,5028318464756E-08;100 nA
-0,850830078125;118,497093700824;-1,2603759765625E-09;-0,84869384765625;3;223;9,9237747490406E-08;-9,5028318464756E-08;100 nA
-0,80078125;118,99758169956;-6,439208984375E-10;-0,7989501953125;3;224;9,9237747490406E-08;-9,5028318464756E-08;100 nA
-0,750732421875;119,498069698296;-2,74658203125E-10;-0,7486572265625;3;225;9,9237747490406E-08;-9,5028318464756E-08;100 nA
-0,70068359375;119,998557697033;1,556396484375E-10;-0,698699951171875;3;226;9,9237747490406E-08;-9,5028318464756E-08;100 nA
-0,650634765625;120,499045695769;6,195068359375E-10;-0,64862060546875;3;227;9,9237747490406E-08;-9,5028318464756E-08;100 nA
-0,6005859375;120,999533694506;7,080078125E-10;-0,598724365234375;3;228;9,9237747490406E-08;-9,5028318464756E-08;100 nA
-0,550537109375;121,500021693242;1,416015625E-09;-0,548797607421875;3;229;9,9237747490406E-08;-9,5028318464756E-08;100 nA
-0,50048828125;122,000509691978;1,91650390625E-09;-0,49884033203125;3;230;9,9237747490406E-08;-9,5028318464756E-08;100 nA
-0,450439453125;122,500997690715;2,459716796875E-09;-0,449005126953125;3;231;9,9237747490406E-08;-9,5028318464756E-08;100 nA
-0,400390625;123,001485689451;2,874755859375E-09;-0,399078369140625;3;232;9,9237747490406E-08;-9,5028318464756E-08;100 nA
-0,350341796875;123,501973688187;3,4515380859375E-09;-0,349212646484375;3;233;9,9237747490406E-08;-9,5028318464756E-08;100 nA
-0,30029296875;124,002461686924;4,18701171875E-09;-0,299224853515625;3;234;9,9237747490406E-08;-9,5028318464756E-08;100 nA
-0,250244140625;124,50294968566;4,8614501953125E-09;-0,2493896484375;3;235;9,9237747490406E-08;-9,5028318464756E-08;100 nA
-0,2001953125;125,003437684397;5,35888671875E-09;-0,199493408203125;3;236;9,9237747490406E-08;-9,5028318464756E-08;100 nA
-0,150146484375;125,503925683133;5,2734375E-09;-0,14959716796875;3;237;9,9237747490406E-08;-9,5028318464756E-08;100 nA
-0,10009765625;126,004413681869;4,8309326171875E-09;-0,099761962890625;3;238;9,9237747490406E-08;-9,5028318464756E-08;100 nA
-0,050048828125;126,504901680606;4,3243408203125E-09;-0,049774169921875;3;239;9,9237747490406E-08;-9,5028318464756E-08;100 nA
0;127,005389679342;4,2205810546875E-09;0,000119018554687503;3;240;9,9237747490406E-08;-9,5028318464756E-08;100 nA
0,050048828125;127,505877678079;4,3914794921875E-09;0,050079345703125;4;241;9,87428799271583E-08;-9,47075709700584E-08;100 nA
0,10009765625;128,006365676815;4,6051025390625E-09;0,100067138671875;4;242;9,87428799271583E-08;-9,47075709700584E-08;100 nA
0,150146484375;128,506853675551;4,8492431640625E-09;0,150115966796875;4;243;9,87428799271583E-08;-9,47075709700584E-08;100 nA
0,2001953125;129,007341674288;5,2337646484375E-09;0,2000732421875;4;244;9,87428799271583E-08;-9,47075709700584E-08;100 nA
0,250244140625;129,507829673024;5,6304931640625E-09;0,25006103515625;4;245;9,87428799271583E-08;-9,47075709700584E-08;100 nA
0,30029296875;130,008317671761;5,975341796875E-09;0,300048828125;4;246;9,87428799271583E-08;-9,47075709700584E-08;100 nA
0,350341796875;130,508805670497;6,2744140625E-09;0,350128173828125;4;247;9,87428799271583E-08;-9,47075709700584E-08;100 nA
0,400390625;131,009293669233;6,597900390625E-09;0,40020751953125;4;248;9,87428799271583E-08;-9,47075709700584E-08;100 nA
0,450439453125;131,50978166797;6,9580078125E-09;0,450103759765625;4;249;9,87428799271583E-08;-9,47075709700584E-08;100 nA
0,50048828125;132,010269666706;7,2540283203125E-09;0,500091552734375;4;250;9,87428799271583E-08;-9,47075709700584E-08;100 nA
0,550537109375;132,510757665443;7,5531005859375E-09;0,55010986328125;4;251;9,87428799271583E-08;-9,47075709700584E-08;100 nA
0,6005859375;133,011245664179;7,80029296875E-09;0,60009765625;4;252;9,87428799271583E-08;-9,47075709700584E-08;100 nA
0,650634765625;133,511733662915;8,0078125E-09;0,650054931640625;4;253;9,87428799271583E-08;-9,47075709700584E-08;100 nA
0,70068359375;134,012221661652;8,0718994140625E-09;0,69989013671875;4;254;9,87428799271583E-08;-9,47075709700584E-08;100 nA
0,750732421875;134,512709660388;8,0474853515625E-09;0,7498779296875;4;255;9,87428799271583E-08;-9,47075709700584E-08;100 nA
0,80078125;135,013197659124;7,9986572265625E-09;0,8001708984375;4;256;9,87428799271583E-08;-9,47075709700584E-08;100 nA
0,850830078125;135,513685657861;8,0108642578125E-09;0,84991455078125;4;257;9,87428799271583E-08;-9,47075709700584E-08;100 nA
0,90087890625;136,014173656597;7,9986572265625E-09;0,89935302734375;4;258;9,87428799271583E-08;-9,47075709700584E-08;100 nA
0,950927734375;136,514661655334;8,074951171875E-09;0,94970703125;4;259;9,87428799271583E-08;-9,47075709700584E-08;100 nA
1,0009765625;137,01514965407;8,1329345703125E-09;1,00006103515625;4;260;9,87428799271583E-08;-9,47075709700584E-08;100 nA
0,950927734375;137,515637652806;5,2215576171875E-09;0,94970703125;4;261;9,87428799271583E-08;-9,47075709700584E-08;100 nA
0,90087890625;138,016125651543;3,57666015625E-09;0,899658203125;4;262;9,87428799271583E-08;-9,47075709700584E-08;100 nA
0,850830078125;138,516613650279;2,435302734375E-09;0,84991455078125;4;263;9,87428799271583E-08;-9,47075709700584E-08;100 nA
0,80078125;139,017101649016;1,5625E-09;0,79986572265625;4;264;9,87428799271583E-08;-9,47075709700584E-08;100 nA
0,750732421875;139,517589647752;8,331298828125E-10;0,749908447265625;4;265;9,87428799271583E-08;-9,47075709700584E-08;100 nA
0,70068359375;140,018077646488;2,197265625E-10;0,699981689453125;4;266;9,87428799271583E-08;-9,47075709700584E-08;100 nA
0,650634765625;140,518565645225;-3,84521484375E-10;0,650115966796875;4;267;9,87428799271583E-08;-9,47075709700584E-08;100 nA
0,6005859375;141,019053643961;-9,8876953125E-10;0,60015869140625;4;268;9,87428799271583E-08;-9,47075709700584E-08;100 nA
0,550537109375;141,519541642698;-1,666259765625E-09;0,55010986328125;4;269;9,87428799271583E-08;-9,47075709700584E-08;100 nA
0,50048828125;142,020029641434;-2,28271484375E-09;0,50018310546875;4;270;9,87428799271583E-08;-9,47075709700584E-08;100 nA
0,450439453125;142,52051764017;-2,8564453125E-09;0,450225830078125;4;271;9,87428799271583E-08;-9,47075709700584E-08;100 nA
0,400390625;143,021005638907;-3,41796875E-09;0,400146484375;4;272;9,87428799271583E-08;-9,47075709700584E-08;100 nA
0,350341796875;143,521493637643;-3,9276123046875E-09;0,350189208984375;4;273;9,87428799271583E-08;-9,47075709700584E-08;100 nA
0,30029296875;144,021981636379;-4,5135498046875E-09;0,30010986328125;4;274;9,87428799271583E-08;-9,47075709700584E-08;100 nA
0,250244140625;144,522469635116;-4,9407958984375E-09;0,25018310546875;4;275;9,87428799271583E-08;-9,47075709700584E-08;100 nA
0,2001953125;145,022957633852;-5,230712890625E-09;0,200103759765625;4;276;9,87428799271583E-08;-9,47075709700584E-08;100 nA
0,150146484375;145,523445632589;-5,5908203125E-09;0,150177001953125;4;277;9,87428799271583E-08;-9,47075709700584E-08;100 nA
0,10009765625;146,023933631325;-6,0211181640625E-09;0,10009765625;4;278;9,87428799271583E-08;-9,47075709700584E-08;100 nA
0,050048828125;146,524421630061;-6,5521240234375E-09;0,050201416015625;4;279;9,87428799271583E-08;-9,47075709700584E-08;100 nA
0;147,024909628798;-7,5927734375E-09;0,000146484375000006;4;280;9,87428799271583E-08;-9,47075709700584E-08;100 nA
-0,050048828125;147,525397627534;-9,8236083984375E-09;-0,0497222900390625;4;281;9,87428799271583E-08;-9,47075709700584E-08;100 nA
-0,10009765625;148,025885626271;-1,19232177734375E-08;-0,099639892578125;4;282;9,87428799271583E-08;-9,47075709700584E-08;100 nA
-0,150146484375;148,526373625007;-1,11297607421875E-08;-0,1495361328125;4;283;9,87428799271583E-08;-9,47075709700584E-08;100 nA
-0,2001953125;149,026861623743;-6,92138671875E-09;-0,199432373046875;4;284;9,87428799271583E-08;-9,47075709700584E-08;100 nA
-0,250244140625;149,52734962248;-5,816650390625E-09;-0,2493896484375;4;285;9,87428799271583E-08;-9,47075709700584E-08;100 nA
-0,30029296875;150,027837621216;-5,87158203125E-09;-0,29925537109375;4;286;9,87428799271583E-08;-9,47075709700584E-08;100 nA
-0,350341796875;150,528325619953;-6,1126708984375E-09;-0,3492431640625;4;287;9,87428799271583E-08;-9,47075709700584E-08;100 nA
-0,400390625;151,028813618689;-6,1187744140625E-09;-0,399078369140625;4;288;9,87428799271583E-08;-9,47075709700584E-08;100 nA
-0,450439453125;151,529301617425;-5,908203125E-09;-0,449005126953125;4;289;9,87428799271583E-08;-9,47075709700584E-08;100 nA
-0,50048828125;152,029789616162;-5,6793212890625E-09;-0,498870849609375;4;290;9,87428799271583E-08;-9,47075709700584E-08;100 nA
-0,550537109375;152,530277614898;-5,4595947265625E-09;-0,548797607421875;4;291;9,87428799271583E-08;-9,47075709700584E-08;100 nA
-0,6005859375;153,030765613634;-5,2520751953125E-09;-0,59857177734375;4;292;9,87428799271583E-08;-9,47075709700584E-08;100 nA
-0,650634765625;153,531253612371;-5,0933837890625E-09;-0,64862060546875;4;293;9,87428799271583E-08;-9,47075709700584E-08;100 nA
-0,70068359375;154,031741611107;-4,937744140625E-09;-0,6986083984375;4;294;9,87428799271583E-08;-9,47075709700584E-08;100 nA
-0,750732421875;154,532229609844;-4,8492431640625E-09;-0,748626708984375;4;295;9,87428799271583E-08;-9,47075709700584E-08;100 nA
-0,80078125;155,03271760858;-4,8126220703125E-09;-0,79864501953125;4;296;9,87428799271583E-08;-9,47075709700584E-08;100 nA
-0,850830078125;155,533205607316;-4,8492431640625E-09;-0,848388671875;4;297;9,87428799271583E-08;-9,47075709700584E-08;100 nA
-0,90087890625;156,033693606053;-4,974365234375E-09;-0,89874267578125;4;298;9,87428799271583E-08;-9,47075709700584E-08;100 nA
-0,950927734375;156,534181604789;-5,0994873046875E-09;-0,948486328125;4;299;9,87428799271583E-08;-9,47075709700584E-08;100 nA
-1,0009765625;157,034669603526;-5,322265625E-09;-0,99884033203125;4;300;9,87428799271583E-08;-9,47075709700584E-08;100 nA
-0,950927734375;157,535157602262;-3,094482421875E-09;-0,94879150390625;4;301;9,87428799271583E-08;-9,47075709700584E-08;100 nA
-0,90087890625;158,035645600998;-1,9561767578125E-09;-0,8990478515625;4;302;9,87428799271583E-08;-9,47075709700584E-08;100 nA
-0,850830078125;158,536133599735;-1,2359619140625E-09;-0,8489990234375;4;303;9,87428799271583E-08;-9,47075709700584E-08;100 nA
-0,80078125;159,036621598471;-7,293701171875E-10;-0,79864501953125;4;304;9,87428799271583E-08;-9,47075709700584E-08;100 nA
-0,750732421875;159,537109597208;-2,9296875E-10;-0,7486572265625;4;305;9,87428799271583E-08;-9,47075709700584E-08;100 nA
-0,70068359375;160,037597595944;1,251220703125E-10;-0,6986083984375;4;306;9,87428799271583E-08;-9,47075709700584E-08;100 nA
-0,650634765625;160,53808559468;5,126953125E-10;-0,64862060546875;4;307;9,87428799271583E-08;-9,47075709700584E-08;100 nA
-0,6005859375;161,038573593417;9,124755859375E-10;-0,598724365234375;4;308;9,87428799271583E-08;-9,47075709700584E-08;100 nA
-0,550537109375;161,539061592153;1,3427734375E-09;-0,548797607421875;4;309;9,87428799271583E-08;-9,47075709700584E-08;100 nA
-0,50048828125;162,039549590889;1,8035888671875E-09;-0,498931884765625;4;310;9,87428799271583E-08;-9,47075709700584E-08;100 nA
-0,450439453125;162,540037589626;2,3040771484375E-09;-0,44903564453125;4;311;9,87428799271583E-08;-9,47075709700584E-08;100 nA
-0,400390625;163,040525588362;2,783203125E-09;-0,399078369140625;4;312;9,87428799271583E-08;-9,47075709700584E-08;100 nA
-0,350341796875;163,541013587099;3,3660888671875E-09;-0,34930419921875;4;313;9,87428799271583E-08;-9,47075709700584E-08;100 nA
-0,30029296875;164,041501585835;4,1534423828125E-09;-0,299285888671875;4;314;9,87428799271583E-08;-9,47075709700584E-08;100 nA
-0,250244140625;164,541989584571;4,8919677734375E-09;-0,2493896484375;4;315;9,87428799271583E-08;-9,47075709700584E-08;100 nA
-0,2001953125;165,042477583308;5,2215576171875E-09;-0,19952392578125;4;316;9,87428799271583E-08;-9,47075709700584E-08;100 nA
-0,150146484375;165,542965582044;5,2032470703125E-09;-0,149566650390625;4;317;9,87428799271583E-08;-9,47075709700584E-08;100 nA
-0,10009765625;166,043453580781;4,7637939453125E-09;-0,09967041015625;4;318;9,87428799271583E-08;-9,47075709700584E-08;100 nA
-0,050048828125;166,543941579517;4,3243408203125E-09;-0,0498046875;4;319;9,87428799271583E-08;-9,47075709700584E-08;100 nA
0;167,044429578253;4,2694091796875E-09;8,85009765625028E-05;4;320;9,87428799271583E-08;-9,47075709700584E-08;100 nA
0,050048828125;167,54491757699;4,4189453125E-09;0,050048828125;5;321;9,88543778657914E-08;-9,3953050673008E-08;100 nA
0,10009765625;168,045405575726;4,58984375E-09;0,100067138671875;5;322;9,88543778657914E-08;-9,3953050673008E-08;100 nA
0,150146484375;168,545893574463;4,8858642578125E-09;0,150115966796875;5;323;9,88543778657914E-08;-9,3953050673008E-08;100 nA
0,2001953125;169,046381573199;5,2581787109375E-09;0,2000732421875;5;324;9,88543778657914E-08;-9,3953050673008E-08;100 nA
0,250244140625;169,546869571935;5,682373046875E-09;0,250152587890625;5;325;9,88543778657914E-08;-9,3953050673008E-08;100 nA
0,30029296875;170,047357570672;6,04248046875E-09;0,30010986328125;5;326;9,88543778657914E-08;-9,3953050673008E-08;100 nA
0,350341796875;170,547845569408;6,2896728515625E-09;0,350128173828125;5;327;9,88543778657914E-08;-9,3953050673008E-08;100 nA
0,400390625;171,048333568144;6,6131591796875E-09;0,400177001953125;5;328;9,88543778657914E-08;-9,3953050673008E-08;100 nA
0,450439453125;171,548821566881;6,9580078125E-09;0,450103759765625;5;329;9,88543778657914E-08;-9,3953050673008E-08;100 nA
0,50048828125;172,049309565617;7,318115234375E-09;0,500091552734375;5;330;9,88543778657914E-08;-9,3953050673008E-08;100 nA
0,550537109375;172,549797564354;7,598876953125E-09;0,550140380859375;5;331;9,88543778657914E-08;-9,3953050673008E-08;100 nA
0,6005859375;173,05028556309;7,8521728515625E-09;0,600128173828125;5;332;9,88543778657914E-08;-9,3953050673008E-08;100 nA
0,650634765625;173,550773561826;8,0413818359375E-09;0,65008544921875;5;333;9,88543778657914E-08;-9,3953050673008E-08;100 nA
0,70068359375;174,051261560563;8,1207275390625E-09;0,699920654296875;5;334;9,88543778657914E-08;-9,3953050673008E-08;100 nA
0,750732421875;174,551749559299;8,11767578125E-09;0,7498779296875;5;335;9,88543778657914E-08;-9,3953050673008E-08;100 nA
0,80078125;175,052237558036;8,0810546875E-09;0,8001708984375;5;336;9,88543778657914E-08;-9,3953050673008E-08;100 nA
0,850830078125;175,552725556772;8,0596923828125E-09;0,849609375;5;337;9,88543778657914E-08;-9,3953050673008E-08;100 nA
0,90087890625;176,053213555508;8,0474853515625E-09;0,9002685546875;5;338;9,88543778657914E-08;-9,3953050673008E-08;100 nA
0,950927734375;176,553701554245;8,087158203125E-09;0,94970703125;5;339;9,88543778657914E-08;-9,3953050673008E-08;100 nA
1,0009765625;177,054189552981;8,1573486328125E-09;0,999755859375;5;340;9,88543778657914E-08;-9,3953050673008E-08;100 nA
0,950927734375;177,554677551718;5,2001953125E-09;0,9490966796875;5;341;9,88543778657914E-08;-9,3953050673008E-08;100 nA
0,90087890625;178,055165550454;3,5430908203125E-09;0,9002685546875;5;342;9,88543778657914E-08;-9,3953050673008E-08;100 nA
0,850830078125;178,55565354919;2,35595703125E-09;0,84930419921875;5;343;9,88543778657914E-08;-9,3953050673008E-08;100 nA
0,80078125;179,056141547927;1,4923095703125E-09;0,79986572265625;5;344;9,88543778657914E-08;-9,3953050673008E-08;100 nA
0,750732421875;179,556629546663;7,476806640625E-10;0,7498779296875;5;345;9,88543778657914E-08;-9,3953050673008E-08;100 nA
0,70068359375;180,057117545399;1,0986328125E-10;0,699951171875;5;346;9,88543778657914E-08;-9,3953050673008E-08;100 nA
0,650634765625;180,557605544136;-4,852294921875E-10;0,650115966796875;5;347;9,88543778657914E-08;-9,3953050673008E-08;100 nA
0,6005859375;181,058093542872;-1,1322021484375E-09;0,60003662109375;5;348;9,88543778657914E-08;-9,3953050673008E-08;100 nA
0,550537109375;181,558581541609;-1,739501953125E-09;0,550140380859375;5;349;9,88543778657914E-08;-9,3953050673008E-08;100 nA
0,50048828125;182,059069540345;-2,40478515625E-09;0,500152587890625;5;350;9,88543778657914E-08;-9,3953050673008E-08;100 nA
0,450439453125;182,559557539081;-2,947998046875E-09;0,45013427734375;5;351;9,88543778657914E-08;-9,3953050673008E-08;100 nA
0,400390625;183,060045537818;-3,466796875E-09;0,400115966796875;5;352;9,88543778657914E-08;-9,3953050673008E-08;100 nA
0,350341796875;183,560533536554;-3,9825439453125E-09;0,350128173828125;5;353;9,88543778657914E-08;-9,3953050673008E-08;100 nA
0,30029296875;184,061021535291;-4,52880859375E-09;0,300048828125;5;354;9,88543778657914E-08;-9,3953050673008E-08;100 nA
0,250244140625;184,561509534027;-5,0079345703125E-09;0,250091552734375;5;355;9,88543778657914E-08;-9,3953050673008E-08;100 nA
0,2001953125;185,061997532763;-5,2947998046875E-09;0,20013427734375;5;356;9,88543778657914E-08;-9,3953050673008E-08;100 nA
0,150146484375;185,5624855315;-5,6427001953125E-09;0,150177001953125;5;357;9,88543778657914E-08;-9,3953050673008E-08;100 nA
0,10009765625;186,062973530236;-6,0455322265625E-09;0,10009765625;5;358;9,88543778657914E-08;-9,3953050673008E-08;100 nA
0,050048828125;186,563461528973;-6,4971923828125E-09;0,05010986328125;5;359;9,88543778657914E-08;-9,3953050673008E-08;100 nA
0;187,063949527709;-7,5347900390625E-09;0,000180053710937503;5;360;9,88543778657914E-08;-9,3953050673008E-08;100 nA
-0,050048828125;187,564437526445;-9,80224609375E-09;-0,04970703125;5;361;9,88543778657914E-08;-9,3953050673008E-08;100 nA
-0,10009765625;188,064925525182;-1,18408203125E-08;-0,099639892578125;5;362;9,88543778657914E-08;-9,3953050673008E-08;100 nA
-0,150146484375;188,565413523918;-1,10137939453125E-08;-0,1495361328125;5;363;9,88543778657914E-08;-9,3953050673008E-08;100 nA
-0,2001953125;189,065901522654;-6,7413330078125E-09;-0,19940185546875;5;364;9,88543778657914E-08;-9,3953050673008E-08;100 nA
-0,250244140625;189,566389521391;-5,6884765625E-09;-0,24932861328125;5;365;9,88543778657914E-08;-9,3953050673008E-08;100 nA
-0,30029296875;190,066877520127;-5,7769775390625E-09;-0,29925537109375;5;366;9,88543778657914E-08;-9,3953050673008E-08;100 nA
-0,350341796875;190,567365518864;-6,0333251953125E-09;-0,349212646484375;5;367;9,88543778657914E-08;-9,3953050673008E-08;100 nA
-0,400390625;191,0678535176;-6,0028076171875E-09;-0,399078369140625;5;368;9,88543778657914E-08;-9,3953050673008E-08;100 nA
-0,450439453125;191,568341516336;-5,77392578125E-09;-0,448944091796875;5;369;9,88543778657914E-08;-9,3953050673008E-08;100 nA
-0,50048828125;192,068829515073;-5,5389404296875E-09;-0,49884033203125;5;370;9,88543778657914E-08;-9,3953050673008E-08;100 nA
-0,550537109375;192,569317513809;-5,3558349609375E-09;-0,54876708984375;5;371;9,88543778657914E-08;-9,3953050673008E-08;100 nA
-0,6005859375;193,069805512546;-5,1513671875E-09;-0,5986328125;5;372;9,88543778657914E-08;-9,3953050673008E-08;100 nA
-0,650634765625;193,570293511282;-4,9591064453125E-09;-0,648590087890625;5;373;9,88543778657914E-08;-9,3953050673008E-08;100 nA
-0,70068359375;194,070781510018;-4,82177734375E-09;-0,698577880859375;5;374;9,88543778657914E-08;-9,3953050673008E-08;100 nA
-0,750732421875;194,571269508755;-4,77294921875E-09;-0,74859619140625;5;375;9,88543778657914E-08;-9,3953050673008E-08;100 nA
-0,80078125;195,071757507491;-4,766845703125E-09;-0,79864501953125;5;376;9,88543778657914E-08;-9,3953050673008E-08;100 nA
-0,850830078125;195,572245506228;-4,766845703125E-09;-0,84869384765625;5;377;9,88543778657914E-08;-9,3953050673008E-08;100 nA
-0,90087890625;196,072733504964;-4,8370361328125E-09;-0,8990478515625;5;378;9,88543778657914E-08;-9,3953050673008E-08;100 nA
-0,950927734375;196,5732215037;-4,96826171875E-09;-0,9490966796875;5;379;9,88543778657914E-08;-9,3953050673008E-08;100 nA
-1,0009765625;197,073709502437;-5,218505859375E-09;-0,9991455078125;5;380;9,88543778657914E-08;-9,3953050673008E-08;100 nA
-0,950927734375;197,574197501173;-3,01513671875E-09;-0,9490966796875;5;381;9,88543778657914E-08;-9,3953050673008E-08;100 nA
-0,90087890625;198,074685499909;-1,9287109375E-09;-0,89874267578125;5;382;9,88543778657914E-08;-9,3953050673008E-08;100 nA
-0,850830078125;198,575173498646;-1,251220703125E-09;-0,84869384765625;5;383;9,88543778657914E-08;-9,3953050673008E-08;100 nA
-0,80078125;199,075661497382;-7,080078125E-10;-0,79925537109375;5;384;9,88543778657914E-08;-9,3953050673008E-08;100 nA
-0,750732421875;199,576149496119;-2,777099609375E-10;-0,74871826171875;5;385;9,88543778657914E-08;-9,3953050673008E-08;100 nA
-0,70068359375;200,076637494855;1,190185546875E-10;-0,69866943359375;5;386;9,88543778657914E-08;-9,3953050673008E-08;100 nA
-0,650634765625;200,577125493591;4,974365234375E-10;-0,648651123046875;5;387;9,88543778657914E-08;-9,3953050673008E-08;100 nA
-0,6005859375;201,077613492328;9,124755859375E-10;-0,598663330078125;5;388;9,88543778657914E-08;-9,3953050673008E-08;100 nA
-0,550537109375;201,578101491064;1,3397216796875E-09;-0,548828125;5;389;9,88543778657914E-08;-9,3953050673008E-08;100 nA
-0,50048828125;202,078589489801;1,8096923828125E-09;-0,4989013671875;5;390;9,88543778657914E-08;-9,3953050673008E-08;100 nA
-0,450439453125;202,579077488537;2,3193359375E-09;-0,44903564453125;5;391;9,88543778657914E-08;-9,3953050673008E-08;100 nA
-0,400390625;203,079565487273;2,8350830078125E-09;-0,399078369140625;5;392;9,88543778657914E-08;-9,3953050673008E-08;100 nA
-0,350341796875;203,58005348601;3,4088134765625E-09;-0,349212646484375;5;393;9,88543778657914E-08;-9,3953050673008E-08;100 nA
-0,30029296875;204,080541484746;4,1229248046875E-09;-0,29931640625;5;394;9,88543778657914E-08;-9,3953050673008E-08;100 nA
-0,250244140625;204,581029483483;4,8492431640625E-09;-0,249359130859375;5;395;9,88543778657914E-08;-9,3953050673008E-08;100 nA
-0,2001953125;205,081517482219;5,1910400390625E-09;-0,199493408203125;5;396;9,88543778657914E-08;-9,3953050673008E-08;100 nA
-0,150146484375;205,582005480955;5,1361083984375E-09;-0,14959716796875;5;397;9,88543778657914E-08;-9,3953050673008E-08;100 nA
-0,10009765625;206,082493479692;4,7637939453125E-09;-0,099700927734375;5;398;9,88543778657914E-08;-9,3953050673008E-08;100 nA
-0,050048828125;206,582981478428;4,302978515625E-09;-0,04986572265625;5;399;9,88543778657914E-08;-9,3953050673008E-08;100 nA
0;207,083469477165;4,2388916015625E-09;0,000180053710937503;5;400;9,88543778657914E-08;-9,3953050673008E-08;100 nA
0,050048828125;207,583957475901;4,364013671875E-09;0,05010986328125;6;401;9,78508964180946E-08;-9,31496545672416E-08;100 nA
0,10009765625;208,084445474637;4,547119140625E-09;0,100006103515625;6;402;9,78508964180946E-08;-9,31496545672416E-08;100 nA
0,150146484375;208,584933473374;4,8187255859375E-09;0,15008544921875;6;403;9,78508964180946E-08;-9,31496545672416E-08;100 nA
0,2001953125;209,08542147211;5,1727294921875E-09;0,2000732421875;6;404;9,78508964180946E-08;-9,31496545672416E-08;100 nA
0,250244140625;209,585909470846;5,572509765625E-09;0,250091552734375;6;405;9,78508964180946E-08;-9,31496545672416E-08;100 nA
0,30029296875;210,086397469583;5,914306640625E-09;0,300079345703125;6;406;9,78508964180946E-08;-9,31496545672416E-08;100 nA
0,350341796875;210,586885468319;6,2164306640625E-09;0,35009765625;6;407;9,78508964180946E-08;-9,31496545672416E-08;100 nA
0,400390625;211,087373467056;6,5460205078125E-09;0,400146484375;6;408;9,78508964180946E-08;-9,31496545672416E-08;100 nA
0,450439453125;211,587861465792;6,8695068359375E-09;0,4500732421875;6;409;9,78508964180946E-08;-9,31496545672416E-08;100 nA
0,50048828125;212,088349464528;7,232666015625E-09;0,500091552734375;6;410;9,78508964180946E-08;-9,31496545672416E-08;100 nA
0,550537109375;212,588837463265;7,489013671875E-09;0,550140380859375;6;411;9,78508964180946E-08;-9,31496545672416E-08;100 nA
0,6005859375;213,089325462001;7,7301025390625E-09;0,600067138671875;6;412;9,78508964180946E-08;-9,31496545672416E-08;100 nA
0,650634765625;213,589813460738;7,904052734375E-09;0,649993896484375;6;413;9,78508964180946E-08;-9,31496545672416E-08;100 nA
0,70068359375;214,090301459474;7,9925537109375E-09;0,699920654296875;6;414;9,78508964180946E-08;-9,31496545672416E-08;100 nA
0,750732421875;214,59078945821;8,001708984375E-09;0,74981689453125;6;415;9,78508964180946E-08;-9,31496545672416E-08;100 nA
0,80078125;215,091277456947;8,0108642578125E-09;0,79986572265625;6;416;9,78508964180946E-08;-9,31496545672416E-08;100 nA
0,850830078125;215,591765455683;8,0047607421875E-09;0,849609375;6;417;9,78508964180946E-08;-9,31496545672416E-08;100 nA
0,90087890625;216,09225345442;8,026123046875E-09;0,89996337890625;6;418;9,78508964180946E-08;-9,31496545672416E-08;100 nA
0,950927734375;216,592741453156;8,050537109375E-09;0,95001220703125;6;419;9,78508964180946E-08;-9,31496545672416E-08;100 nA
1,0009765625;217,093229451892;8,233642578125E-09;0,999755859375;6;420;9,78508964180946E-08;-9,31496545672416E-08;100 nA
0,950927734375;217,593717450629;5,28564453125E-09;0,94970703125;6;421;9,78508964180946E-08;-9,31496545672416E-08;100 nA
0,90087890625;218,094205449365;3,619384765625E-09;0,899658203125;6;422;9,78508964180946E-08;-9,31496545672416E-08;100 nA
0,850830078125;218,594693448101;2,4749755859375E-09;0,84991455078125;6;423;9,78508964180946E-08;-9,31496545672416E-08;100 nA
0,80078125;219,095181446838;1,605224609375E-09;0,8001708984375;6;424;9,78508964180946E-08;-9,31496545672416E-08;100 nA
0,750732421875;219,595669445574;8,6669921875E-10;0,749847412109375;6;425;9,78508964180946E-08;-9,31496545672416E-08;100 nA
0,70068359375;220,096157444311;2,777099609375E-10;0,699981689453125;6;426;9,78508964180946E-08;-9,31496545672416E-08;100 nA
0,650634765625;220,596645443047;-3,0517578125E-10;0,650177001953125;6;427;9,78508964180946E-08;-9,31496545672416E-08;100 nA
0,6005859375;221,097133441783;-9,521484375E-10;0,60015869140625;6;428;9,78508964180946E-08;-9,31496545672416E-08;100 nA
0,550537109375;221,59762144052;-1,5777587890625E-09;0,550201416015625;6;429;9,78508964180946E-08;-9,31496545672416E-08;100 nA
0,50048828125;222,098109439256;-2,3040771484375E-09;0,500091552734375;6;430;9,78508964180946E-08;-9,31496545672416E-08;100 nA
0,450439453125;222,598597437993;-2,8594970703125E-09;0,450164794921875;6;431;9,78508964180946E-08;-9,31496545672416E-08;100 nA
0,400390625;223,099085436729;-3,4332275390625E-09;0,400177001953125;6;432;9,78508964180946E-08;-9,31496545672416E-08;100 nA
0,350341796875;223,599573435465;-3,955078125E-09;0,350189208984375;6;433;9,78508964180946E-08;-9,31496545672416E-08;100 nA
0,30029296875;224,100061434202;-4,50439453125E-09;0,30010986328125;6;434;9,78508964180946E-08;-9,31496545672416E-08;100 nA
0,250244140625;224,600549432938;-4,9835205078125E-09;0,250091552734375;6;435;9,78508964180946E-08;-9,31496545672416E-08;100 nA
0,2001953125;225,101037431675;-5,352783203125E-09;0,20013427734375;6;436;9,78508964180946E-08;-9,31496545672416E-08;100 nA
0,150146484375;225,601525430411;-5,7281494140625E-09;0,150115966796875;6;437;9,78508964180946E-08;-9,31496545672416E-08;100 nA
0,10009765625;226,102013429147;-6,11572265625E-09;0,10009765625;6;438;9,78508964180946E-08;-9,31496545672416E-08;100 nA
0,050048828125;226,602501427884;-6,6131591796875E-09;0,050140380859375;6;439;9,78508964180946E-08;-9,31496545672416E-08;100 nA
0;227,10298942662;-7,6385498046875E-09;0,000143432617187494;6;440;9,78508964180946E-08;-9,31496545672416E-08;100 nA
-0,050048828125;227,603477425356;-9,857177734375E-09;-0,049774169921875;6;441;9,78508964180946E-08;-9,31496545672416E-08;100 nA
-0,10009765625;228,103965424093;-1,19140625E-08;-0,09967041015625;6;442;9,78508964180946E-08;-9,31496545672416E-08;100 nA
-0,150146484375;228,604453422829;-1,09771728515625E-08;-0,149658203125;6;443;9,78508964180946E-08;-9,31496545672416E-08;100 nA
-0,2001953125;229,104941421566;-6,7657470703125E-09;-0,199493408203125;6;444;9,78508964180946E-08;-9,31496545672416E-08;100 nA
-0,250244140625;229,605429420302;-5,8624267578125E-09;-0,2493896484375;6;445;9,78508964180946E-08;-9,31496545672416E-08;100 nA
-0,30029296875;230,105917419038;-5,902099609375E-09;-0,299285888671875;6;446;9,78508964180946E-08;-9,31496545672416E-08;100 nA
-0,350341796875;230,606405417775;-6,09130859375E-09;-0,349212646484375;6;447;9,78508964180946E-08;-9,31496545672416E-08;100 nA
-0,400390625;231,106893416511;-6,0089111328125E-09;-0,399078369140625;6;448;9,78508964180946E-08;-9,31496545672416E-08;100 nA
-0,450439453125;231,607381415248;-5,7830810546875E-09;-0,448974609375;6;449;9,78508964180946E-08;-9,31496545672416E-08;100 nA
-0,50048828125;232,107869413984;-5,5389404296875E-09;-0,498870849609375;6;450;9,78508964180946E-08;-9,31496545672416E-08;100 nA
-0,550537109375;232,60835741272;-5,3314208984375E-09;-0,54876708984375;6;451;9,78508964180946E-08;-9,31496545672416E-08;100 nA
-0,6005859375;233,108845411457;-5,0628662109375E-09;-0,598663330078125;6;452;9,78508964180946E-08;-9,31496545672416E-08;100 nA
-0,650634765625;233,609333410193;-4,8919677734375E-09;-0,648590087890625;6;453;9,78508964180946E-08;-9,31496545672416E-08;100 nA
-0,70068359375;234,10982140893;-4,742431640625E-09;-0,698638916015625;6;454;9,78508964180946E-08;-9,31496545672416E-08;100 nA
-0,750732421875;234,610309407666;-4,6539306640625E-09;-0,748626708984375;6;455;9,78508964180946E-08;-9,31496545672416E-08;100 nA
-0,80078125;235,110797406402;-4,608154296875E-09;-0,79833984375;6;456;9,78508964180946E-08;-9,31496545672416E-08;100 nA
-0,850830078125;235,611285405139;-4,6539306640625E-09;-0,848388671875;6;457;9,78508964180946E-08;-9,31496545672416E-08;100 nA
-0,90087890625;236,111773403875;-4,7027587890625E-09;-0,89874267578125;6;458;9,78508964180946E-08;-9,31496545672416E-08;100 nA
-0,950927734375;236,612261402611;-4,8004150390625E-09;-0,94879150390625;6;459;9,78508964180946E-08;-9,31496545672416E-08;100 nA
-1,0009765625;237,112749401348;-5,0384521484375E-09;-0,99884033203125;6;460;9,78508964180946E-08;-9,31496545672416E-08;100 nA
-0,950927734375;237,613237400084;-2,899169921875E-09;-0,9490966796875;6;461;9,78508964180946E-08;-9,31496545672416E-08;100 nA
-0,90087890625;238,113725398821;-1,8157958984375E-09;-0,89874267578125;6;462;9,78508964180946E-08;-9,31496545672416E-08;100 nA
-0,850830078125;238,614213397557;-1,1138916015625E-09;-0,84869384765625;6;463;9,78508964180946E-08;-9,31496545672416E-08;100 nA
-0,80078125;239,114701396293;-5,859375E-10;-0,7989501953125;6;464;9,78508964180946E-08;-9,31496545672416E-08;100 nA
-0,750732421875;239,61518939503;-1,922607421875E-10;-0,7486572265625;6;465;9,78508964180946E-08;-9,31496545672416E-08;100 nA
-0,70068359375;240,115677393766;1,708984375E-10;-0,698638916015625;6;466;9,78508964180946E-08;-9,31496545672416E-08;100 nA
-0,650634765625;240,616165392503;5,43212890625E-10;-0,648651123046875;6;467;9,78508964180946E-08;-9,31496545672416E-08;100 nA
-0,6005859375;241,116653391239;9,307861328125E-10;-0,598663330078125;6;468;9,78508964180946E-08;-9,31496545672416E-08;100 nA
-0,550537109375;241,617141389975;1,3397216796875E-09;-0,548828125;6;469;9,78508964180946E-08;-9,31496545672416E-08;100 nA
-0,50048828125;242,117629388712;1,8035888671875E-09;-0,4989013671875;6;470;9,78508964180946E-08;-9,31496545672416E-08;100 nA
-0,450439453125;242,618117387448;2,25830078125E-09;-0,449066162109375;6;471;9,78508964180946E-08;-9,31496545672416E-08;100 nA
-0,400390625;243,118605386185;2,72216796875E-09;-0,399139404296875;6;472;9,78508964180946E-08;-9,31496545672416E-08;100 nA
-0,350341796875;243,619093384921;3,30810546875E-09;-0,349212646484375;6;473;9,78508964180946E-08;-9,31496545672416E-08;100 nA
-0,30029296875;244,119581383657;3,9947509765625E-09;-0,299285888671875;6;474;9,78508964180946E-08;-9,31496545672416E-08;100 nA
-0,250244140625;244,620069382394;4,6783447265625E-09;-0,24945068359375;6;475;9,78508964180946E-08;-9,31496545672416E-08;100 nA
-0,2001953125;245,12055738113;5,0506591796875E-09;-0,19952392578125;6;476;9,78508964180946E-08;-9,31496545672416E-08;100 nA
-0,150146484375;245,621045379866;4,998779296875E-09;-0,149658203125;6;477;9,78508964180946E-08;-9,31496545672416E-08;100 nA
-0,10009765625;246,121533378603;4,5501708984375E-09;-0,099761962890625;6;478;9,78508964180946E-08;-9,31496545672416E-08;100 nA
-0,050048828125;246,622021377339;4,1778564453125E-09;-0,04986572265625;6;479;9,78508964180946E-08;-9,31496545672416E-08;100 nA
0;247,122509376076;4,156494140625E-09;0,000103759765625003;6;480;9,78508964180946E-08;-9,31496545672416E-08;100 nA
0,050048828125;247,622997374812;4,2999267578125E-09;0,050079345703125;7;481;9,83640924096108E-08;-9,30656492710113E-08;100 nA
0,10009765625;248,123485373548;4,5013427734375E-09;0,10003662109375;7;482;9,83640924096108E-08;-9,30656492710113E-08;100 nA
0,150146484375;248,623973372285;4,840087890625E-09;0,150054931640625;7;483;9,83640924096108E-08;-9,30656492710113E-08;100 nA
0,2001953125;249,124461371021;5,2032470703125E-09;0,200042724609375;7;484;9,83640924096108E-08;-9,30656492710113E-08;100 nA
0,250244140625;249,624949369758;5,5908203125E-09;0,250091552734375;7;485;9,83640924096108E-08;-9,30656492710113E-08;100 nA
0,30029296875;250,125437368494;5,95703125E-09;0,300140380859375;7;486;9,83640924096108E-08;-9,30656492710113E-08;100 nA
0,350341796875;250,62592536723;6,219482421875E-09;0,350067138671875;7;487;9,83640924096108E-08;-9,30656492710113E-08;100 nA
0,400390625;251,126413365967;6,5826416015625E-09;0,400177001953125;7;488;9,83640924096108E-08;-9,30656492710113E-08;100 nA
0,450439453125;251,626901364703;6,8695068359375E-09;0,45013427734375;7;489;9,83640924096108E-08;-9,30656492710113E-08;100 nA
0,50048828125;252,12738936344;7,3150634765625E-09;0,500152587890625;7;490;9,83640924096108E-08;-9,30656492710113E-08;100 nA
0,550537109375;252,627877362176;7,6416015625E-09;0,5501708984375;7;491;9,83640924096108E-08;-9,30656492710113E-08;100 nA
0,6005859375;253,128365360912;7,8643798828125E-09;0,600128173828125;7;492;9,83640924096108E-08;-9,30656492710113E-08;100 nA
0,650634765625;253,628853359649;7,9833984375E-09;0,650054931640625;7;493;9,83640924096108E-08;-9,30656492710113E-08;100 nA
0,70068359375;254,129341358385;8,0474853515625E-09;0,69989013671875;7;494;9,83640924096108E-08;-9,30656492710113E-08;100 nA
0,750732421875;254,629829357121;8,087158203125E-09;0,749847412109375;7;495;9,83640924096108E-08;-9,30656492710113E-08;100 nA
0,80078125;255,130317355858;8,0108642578125E-09;0,80047607421875;7;496;9,83640924096108E-08;-9,30656492710113E-08;100 nA
0,850830078125;255,630805354594;7,9986572265625E-09;0,84991455078125;7;497;9,83640924096108E-08;-9,30656492710113E-08;100 nA
0,90087890625;256,131293353331;8,026123046875E-09;0,89996337890625;7;498;9,83640924096108E-08;-9,30656492710113E-08;100 nA
0,950927734375;256,631781352067;8,04443359375E-09;0,95001220703125;7;499;9,83640924096108E-08;-9,30656492710113E-08;100 nA
1,0009765625;257,132269350803;8,154296875E-09;0,99945068359375;7;500;9,83640924096108E-08;-9,30656492710113E-08;100 nA
0,950927734375;257,63275734954;5,2001953125E-09;0,94940185546875;7;501;9,83640924096108E-08;-9,30656492710113E-08;100 nA
0,90087890625;258,133245348276;3,521728515625E-09;0,9002685546875;7;502;9,83640924096108E-08;-9,30656492710113E-08;100 nA
0,850830078125;258,633733347013;2,3895263671875E-09;0,8502197265625;7;503;9,83640924096108E-08;-9,30656492710113E-08;100 nA
0,80078125;259,134221345749;1,519775390625E-09;0,79986572265625;7;504;9,83640924096108E-08;-9,30656492710113E-08;100 nA
0,750732421875;259,634709344485;7,568359375E-10;0,7498779296875;7;505;9,83640924096108E-08;-9,30656492710113E-08;100 nA
0,70068359375;260,135197343222;1,678466796875E-10;0,699951171875;7;506;9,83640924096108E-08;-9,30656492710113E-08;100 nA
0,650634765625;260,635685341958;-4,69970703125E-10;0,65008544921875;7;507;9,83640924096108E-08;-9,30656492710113E-08;100 nA
0,6005859375;261,136173340695;-1,1322021484375E-09;0,600128173828125;7;508;9,83640924096108E-08;-9,30656492710113E-08;100 nA
0,550537109375;261,636661339431;-1,7822265625E-09;0,550140380859375;7;509;9,83640924096108E-08;-9,30656492710113E-08;100 nA
0,50048828125;262,137149338167;-2,4017333984375E-09;0,500213623046875;7;510;9,83640924096108E-08;-9,30656492710113E-08;100 nA
0,450439453125;262,637637336904;-2,9693603515625E-09;0,450103759765625;7;511;9,83640924096108E-08;-9,30656492710113E-08;100 nA
0,400390625;263,13812533564;-3,521728515625E-09;0,400177001953125;7;512;9,83640924096108E-08;-9,30656492710113E-08;100 nA
0,350341796875;263,638613334376;-3,9764404296875E-09;0,35015869140625;7;513;9,83640924096108E-08;-9,30656492710113E-08;100 nA
0,30029296875;264,139101333113;-4,522705078125E-09;0,300048828125;7;514;9,83640924096108E-08;-9,30656492710113E-08;100 nA
0,250244140625;264,639589331849;-4,986572265625E-09;0,250152587890625;7;515;9,83640924096108E-08;-9,30656492710113E-08;100 nA
0,2001953125;265,140077330586;-5,3192138671875E-09;0,20013427734375;7;516;9,83640924096108E-08;-9,30656492710113E-08;100 nA
0,150146484375;265,640565329322;-5,62744140625E-09;0,150146484375;7;517;9,83640924096108E-08;-9,30656492710113E-08;100 nA
0,10009765625;266,141053328058;-6,0394287109375E-09;0,10015869140625;7;518;9,83640924096108E-08;-9,30656492710113E-08;100 nA
0,050048828125;266,641541326795;-6,53076171875E-09;0,050140380859375;7;519;9,83640924096108E-08;-9,30656492710113E-08;100 nA
0;267,142029325531;-7,5286865234375E-09;0,0001220703125;7;520;9,83640924096108E-08;-9,30656492710113E-08;100 nA
-0,050048828125;267,642517324268;-9,7259521484375E-09;-0,049725341796875;7;521;9,83640924096108E-08;-9,30656492710113E-08;100 nA
-0,10009765625;268,143005323004;-1,1749267578125E-08;-0,099609375;7;522;9,83640924096108E-08;-9,30656492710113E-08;100 nA
-0,150146484375;268,64349332174;-1,0687255859375E-08;-0,149566650390625;7;523;9,83640924096108E-08;-9,30656492710113E-08;100 nA
-0,2001953125;269,143981320477;-6,463623046875E-09;-0,199432373046875;7;524;9,83640924096108E-08;-9,30656492710113E-08;100 nA
-0,250244140625;269,644469319213;-5,7037353515625E-09;-0,249359130859375;7;525;9,83640924096108E-08;-9,30656492710113E-08;100 nA
-0,30029296875;270,14495731795;-5,792236328125E-09;-0,29931640625;7;526;9,83640924096108E-08;-9,30656492710113E-08;100 nA
-0,350341796875;270,645445316686;-5,963134765625E-09;-0,349151611328125;7;527;9,83640924096108E-08;-9,30656492710113E-08;100 nA
-0,400390625;271,145933315422;-5,908203125E-09;-0,399078369140625;7;528;9,83640924096108E-08;-9,30656492710113E-08;100 nA
-0,450439453125;271,646421314159;-5,6884765625E-09;-0,448944091796875;7;529;9,83640924096108E-08;-9,30656492710113E-08;100 nA
-0,50048828125;272,146909312895;-5,4718017578125E-09;-0,49884033203125;7;530;9,83640924096108E-08;-9,30656492710113E-08;100 nA
-0,550537109375;272,647397311631;-5,26123046875E-09;-0,54876708984375;7;531;9,83640924096108E-08;-9,30656492710113E-08;100 nA
-0,6005859375;273,147885310368;-5,1116943359375E-09;-0,598663330078125;7;532;9,83640924096108E-08;-9,30656492710113E-08;100 nA
-0,650634765625;273,648373309104;-4,9346923828125E-09;-0,64862060546875;7;533;9,83640924096108E-08;-9,30656492710113E-08;100 nA
-0,70068359375;274,148861307841;-4,79736328125E-09;-0,6986083984375;7;534;9,83640924096108E-08;-9,30656492710113E-08;100 nA
-0,750732421875;274,649349306577;-4,7119140625E-09;-0,74859619140625;7;535;9,83640924096108E-08;-9,30656492710113E-08;100 nA
-0,80078125;275,149837305313;-4,7027587890625E-09;-0,7989501953125;7;536;9,83640924096108E-08;-9,30656492710113E-08;100 nA
-0,850830078125;275,65032530405;-4,67529296875E-09;-0,8489990234375;7;537;9,83640924096108E-08;-9,30656492710113E-08;100 nA
-0,90087890625;276,150813302786;-4,7698974609375E-09;-0,8990478515625;7;538;9,83640924096108E-08;-9,30656492710113E-08;100 nA
-0,950927734375;276,651301301523;-4,9774169921875E-09;-0,9490966796875;7;539;9,83640924096108E-08;-9,30656492710113E-08;100 nA
-1,0009765625;277,151789300259;-5,169677734375E-09;-0,99884033203125;7;540;9,83640924096108E-08;-9,30656492710113E-08;100 nA
-0,950927734375;277,652277298995;-3,0059814453125E-09;-0,94879150390625;7;541;9,83640924096108E-08;-9,30656492710113E-08;100 nA
-0,90087890625;278,152765297732;-1,8890380859375E-09;-0,8990478515625;7;542;9,83640924096108E-08;-9,30656492710113E-08;100 nA
-0,850830078125;278,653253296468;-1,1688232421875E-09;-0,84869384765625;7;543;9,83640924096108E-08;-9,30656492710113E-08;100 nA
-0,80078125;279,153741295205;-6,28662109375E-10;-0,7989501953125;7;544;9,83640924096108E-08;-9,30656492710113E-08;100 nA
-0,750732421875;279,654229293941;-1,8310546875E-10;-0,7486572265625;7;545;9,83640924096108E-08;-9,30656492710113E-08;100 nA
-0,70068359375;280,154717292677;1,983642578125E-10;-0,698638916015625;7;546;9,83640924096108E-08;-9,30656492710113E-08;100 nA
-0,650634765625;280,655205291414;5,67626953125E-10;-0,648681640625;7;547;9,83640924096108E-08;-9,30656492710113E-08;100 nA
-0,6005859375;281,15569329015;9,979248046875E-10;-0,5986328125;7;548;9,83640924096108E-08;-9,30656492710113E-08;100 nA
-0,550537109375;281,656181288887;1,3885498046875E-09;-0,548736572265625;7;549;9,83640924096108E-08;-9,30656492710113E-08;100 nA
-0,50048828125;282,156669287623;1,8524169921875E-09;-0,4989013671875;7;550;9,83640924096108E-08;-9,30656492710113E-08;100 nA
-0,450439453125;282,657157286359;2,313232421875E-09;-0,449005126953125;7;551;9,83640924096108E-08;-9,30656492710113E-08;100 nA
-0,400390625;283,157645285096;2,8167724609375E-09;-0,39910888671875;7;552;9,83640924096108E-08;-9,30656492710113E-08;100 nA
-0,350341796875;283,658133283832;3,3416748046875E-09;-0,349212646484375;7;553;9,83640924096108E-08;-9,30656492710113E-08;100 nA
-0,30029296875;284,158621282568;4,0863037109375E-09;-0,299224853515625;7;554;9,83640924096108E-08;-9,30656492710113E-08;100 nA
-0,250244140625;284,659109281305;4,87060546875E-09;-0,249420166015625;7;555;9,83640924096108E-08;-9,30656492710113E-08;100 nA
-0,2001953125;285,159597280041;5,206298828125E-09;-0,199432373046875;7;556;9,83640924096108E-08;-9,30656492710113E-08;100 nA
-0,150146484375;285,660085278778;5,09033203125E-09;-0,149627685546875;7;557;9,83640924096108E-08;-9,30656492710113E-08;100 nA
-0,10009765625;286,160573277514;4,6234130859375E-09;-0,099761962890625;7;558;9,83640924096108E-08;-9,30656492710113E-08;100 nA
-0,050048828125;286,66106127625;4,2205810546875E-09;-0,049835205078125;7;559;9,83640924096108E-08;-9,30656492710113E-08;100 nA
0;287,161549274987;4,168701171875E-09;0,000109863281249997;7;560;9,83640924096108E-08;-9,30656492710113E-08;100 nA
0,050048828125;287,662037273723;4,3121337890625E-09;0,050079345703125;8;561;9,75958257913589E-08;-9,23966616392136E-08;100 nA
0,10009765625;288,16252527246;4,5074462890625E-09;0,10003662109375;8;562;9,75958257913589E-08;-9,23966616392136E-08;100 nA
0,150146484375;288,663013271196;4,78515625E-09;0,150054931640625;8;563;9,75958257913589E-08;-9,23966616392136E-08;100 nA
0,2001953125;289,163501269932;5,1361083984375E-09;0,200042724609375;8;564;9,75958257913589E-08;-9,23966616392136E-08;100 nA
0,250244140625;289,663989268669;5,4962158203125E-09;0,25006103515625;8;565;9,75958257913589E-08;-9,23966616392136E-08;100 nA
0,30029296875;290,164477267405;5,8746337890625E-09;0,300048828125;8;566;9,75958257913589E-08;-9,23966616392136E-08;100 nA
0,350341796875;290,664965266142;6,1859130859375E-09;0,350128173828125;8;567;9,75958257913589E-08;-9,23966616392136E-08;100 nA
0,400390625;291,165453264878;6,512451171875E-09;0,400146484375;8;568;9,75958257913589E-08;-9,23966616392136E-08;100 nA
0,450439453125;291,665941263614;6,8084716796875E-09;0,450164794921875;8;569;9,75958257913589E-08;-9,23966616392136E-08;100 nA
0,50048828125;292,166429262351;7,1807861328125E-09;0,500091552734375;8;570;9,75958257913589E-08;-9,23966616392136E-08;100 nA
0,550537109375;292,666917261087;7,452392578125E-09;0,55010986328125;8;571;9,75958257913589E-08;-9,23966616392136E-08;100 nA
0,6005859375;293,167405259823;7,65380859375E-09;0,60009765625;8;572;9,75958257913589E-08;-9,23966616392136E-08;100 nA
0,650634765625;293,66789325856;7,8155517578125E-09;0,6500244140625;8;573;9,75958257913589E-08;-9,23966616392136E-08;100 nA
0,70068359375;294,168381257296;7,9315185546875E-09;0,699920654296875;8;574;9,75958257913589E-08;-9,23966616392136E-08;100 nA
0,750732421875;294,668869256033;7,9345703125E-09;0,7498779296875;8;575;9,75958257913589E-08;-9,23966616392136E-08;100 nA
0,80078125;295,169357254769;7,92236328125E-09;0,799560546875;8;576;9,75958257913589E-08;-9,23966616392136E-08;100 nA
0,850830078125;295,669845253505;7,8948974609375E-09;0,84991455078125;8;577;9,75958257913589E-08;-9,23966616392136E-08;100 nA
0,90087890625;296,170333252242;7,92236328125E-09;0,899658203125;8;578;9,75958257913589E-08;-9,23966616392136E-08;100 nA
0,950927734375;296,670821250978;7,9803466796875E-09;0,94940185546875;8;579;9,75958257913589E-08;-9,23966616392136E-08;100 nA
1,0009765625;297,171309249715;8,0963134765625E-09;0,999755859375;8;580;9,75958257913589E-08;-9,23966616392136E-08;100 nA
0,950927734375;297,671797248451;5,181884765625E-09;0,94940185546875;8;581;9,75958257913589E-08;-9,23966616392136E-08;100 nA
0,90087890625;298,172285247187;3,57666015625E-09;0,9002685546875;8;582;9,75958257913589E-08;-9,23966616392136E-08;100 nA
0,850830078125;298,672773245924;2,4383544921875E-09;0,849609375;8;583;9,75958257913589E-08;-9,23966616392136E-08;100 nA
0,80078125;299,17326124466;1,580810546875E-09;0,8001708984375;8;584;9,75958257913589E-08;-9,23966616392136E-08;100 nA
0,750732421875;299,673749243397;8,636474609375E-10;0,749908447265625;8;585;9,75958257913589E-08;-9,23966616392136E-08;100 nA
0,70068359375;300,174237242133;2,227783203125E-10;0,699951171875;8;586;9,75958257913589E-08;-9,23966616392136E-08;100 nA
0,650634765625;300,674725240869;-3,60107421875E-10;0,650146484375;8;587;9,75958257913589E-08;-9,23966616392136E-08;100 nA
0,6005859375;301,175213239606;-1,007080078125E-09;0,60015869140625;8;588;9,75958257913589E-08;-9,23966616392136E-08;100 nA
0,550537109375;301,675701238342;-1,617431640625E-09;0,55023193359375;8;589;9,75958257913589E-08;-9,23966616392136E-08;100 nA
0,50048828125;302,176189237078;-2,2003173828125E-09;0,500152587890625;8;590;9,75958257913589E-08;-9,23966616392136E-08;100 nA
0,450439453125;302,676677235815;-2,8045654296875E-09;0,450164794921875;8;591;9,75958257913589E-08;-9,23966616392136E-08;100 nA
0,400390625;303,177165234551;-3,3843994140625E-09;0,400238037109375;8;592;9,75958257913589E-08;-9,23966616392136E-08;100 nA
0,350341796875;303,677653233288;-3,912353515625E-09;0,350189208984375;8;593;9,75958257913589E-08;-9,23966616392136E-08;100 nA
0,30029296875;304,178141232024;-4,4525146484375E-09;0,300140380859375;8;594;9,75958257913589E-08;-9,23966616392136E-08;100 nA
0,250244140625;304,67862923076;-4,962158203125E-09;0,250152587890625;8;595;9,75958257913589E-08;-9,23966616392136E-08;100 nA
0,2001953125;305,179117229497;-5,2734375E-09;0,2001953125;8;596;9,75958257913589E-08;-9,23966616392136E-08;100 nA
0,150146484375;305,679605228233;-5,65185546875E-09;0,150115966796875;8;597;9,75958257913589E-08;-9,23966616392136E-08;100 nA
0,10009765625;306,18009322697;-6,060791015625E-09;0,10009765625;8;598;9,75958257913589E-08;-9,23966616392136E-08;100 nA
0,050048828125;306,680581225706;-6,5399169921875E-09;0,05010986328125;8;599;9,75958257913589E-08;-9,23966616392136E-08;100 nA
0;307,181069224442;-7,5408935546875E-09;0,000146484375000006;8;600;9,75958257913589E-08;-9,23966616392136E-08;100 nA
-0,050048828125;307,681557223179;-9,7442626953125E-09;-0,0497100830078125;8;601;9,75958257913589E-08;-9,23966616392136E-08;100 nA
-0,10009765625;308,182045221915;-1,1749267578125E-08;-0,099700927734375;8;602;9,75958257913589E-08;-9,23966616392136E-08;100 nA
-0,150146484375;308,682533220652;-1,0614013671875E-08;-0,14959716796875;8;603;9,75958257913589E-08;-9,23966616392136E-08;100 nA
-0,2001953125;309,183021219388;-6,5216064453125E-09;-0,19952392578125;8;604;9,75958257913589E-08;-9,23966616392136E-08;100 nA
-0,250244140625;309,683509218124;-5,755615234375E-09;-0,249359130859375;8;605;9,75958257913589E-08;-9,23966616392136E-08;100 nA
-0,30029296875;310,183997216861;-5,8746337890625E-09;-0,299224853515625;8;606;9,75958257913589E-08;-9,23966616392136E-08;100 nA
-0,350341796875;310,684485215597;-6,0302734375E-09;-0,3492431640625;8;607;9,75958257913589E-08;-9,23966616392136E-08;100 nA
-0,400390625;311,184973214333;-5,9600830078125E-09;-0,399078369140625;8;608;9,75958257913589E-08;-9,23966616392136E-08;100 nA
-0,450439453125;311,68546121307;-5,7342529296875E-09;-0,44903564453125;8;609;9,75958257913589E-08;-9,23966616392136E-08;100 nA
-0,50048828125;312,185949211806;-5,560302734375E-09;-0,49896240234375;8;610;9,75958257913589E-08;-9,23966616392136E-08;100 nA
-0,550537109375;312,686437210543;-5,3131103515625E-09;-0,548858642578125;8;611;9,75958257913589E-08;-9,23966616392136E-08;100 nA
-0,6005859375;313,186925209279;-5,1055908203125E-09;-0,59869384765625;8;612;9,75958257913589E-08;-9,23966616392136E-08;100 nA
-0,650634765625;313,687413208015;-4,9591064453125E-09;-0,648712158203125;8;613;9,75958257913589E-08;-9,23966616392136E-08;100 nA
-0,70068359375;314,187901206752;-4,78515625E-09;-0,6986083984375;8;614;9,75958257913589E-08;-9,23966616392136E-08;100 nA
-0,750732421875;314,688389205488;-4,7332763671875E-09;-0,7486572265625;8;615;9,75958257913589E-08;-9,23966616392136E-08;100 nA
-0,80078125;315,188877204225;-4,6661376953125E-09;-0,7989501953125;8;616;9,75958257913589E-08;-9,23966616392136E-08;100 nA
-0,850830078125;315,689365202961;-4,6417236328125E-09;-0,8489990234375;8;617;9,75958257913589E-08;-9,23966616392136E-08;100 nA
-0,90087890625;316,189853201697;-4,7088623046875E-09;-0,8990478515625;8;618;9,75958257913589E-08;-9,23966616392136E-08;100 nA
-0,950927734375;316,690341200434;-4,833984375E-09;-0,948486328125;8;619;9,75958257913589E-08;-9,23966616392136E-08;100 nA
-1,0009765625;317,19082919917;-5,059814453125E-09;-0,99884033203125;8;620;9,75958257913589E-08;-9,23966616392136E-08;100 nA
-0,950927734375;317,691317197907;-2,9083251953125E-09;-0,94940185546875;8;621;9,75958257913589E-08;-9,23966616392136E-08;100 nA
-0,90087890625;318,191805196643;-1,812744140625E-09;-0,89874267578125;8;622;9,75958257913589E-08;-9,23966616392136E-08;100 nA
-0,850830078125;318,692293195379;-1,1016845703125E-09;-0,848388671875;8;623;9,75958257913589E-08;-9,23966616392136E-08;100 nA
-0,80078125;319,192781194116;-5,340576171875E-10;-0,7989501953125;8;624;9,75958257913589E-08;-9,23966616392136E-08;100 nA
-0,750732421875;319,693269192852;-1,373291015625E-10;-0,7486572265625;8;625;9,75958257913589E-08;-9,23966616392136E-08;100 nA
-0,70068359375;320,193757191588;2,288818359375E-10;-0,698638916015625;8;626;9,75958257913589E-08;-9,23966616392136E-08;100 nA
-0,650634765625;320,694245190325;6,195068359375E-10;-0,648590087890625;8;627;9,75958257913589E-08;-9,23966616392136E-08;100 nA
-0,6005859375;321,194733189061;9,857177734375E-10;-0,598724365234375;8;628;9,75958257913589E-08;-9,23966616392136E-08;100 nA
-0,550537109375;321,695221187798;1,4068603515625E-09;-0,548828125;8;629;9,75958257913589E-08;-9,23966616392136E-08;100 nA
-0,50048828125;322,195709186534;1,837158203125E-09;-0,498870849609375;8;630;9,75958257913589E-08;-9,23966616392136E-08;100 nA
-0,450439453125;322,69619718527;2,337646484375E-09;-0,449005126953125;8;631;9,75958257913589E-08;-9,23966616392136E-08;100 nA
-0,400390625;323,196685184007;2,7862548828125E-09;-0,399078369140625;8;632;9,75958257913589E-08;-9,23966616392136E-08;100 nA
-0,350341796875;323,697173182743;3,3233642578125E-09;-0,349273681640625;8;633;9,75958257913589E-08;-9,23966616392136E-08;100 nA
-0,30029296875;324,19766118148;4,0557861328125E-09;-0,299346923828125;8;634;9,75958257913589E-08;-9,23966616392136E-08;100 nA
-0,250244140625;324,698149180216;4,803466796875E-09;-0,249420166015625;8;635;9,75958257913589E-08;-9,23966616392136E-08;100 nA
-0,2001953125;325,198637178952;5,2093505859375E-09;-0,199432373046875;8;636;9,75958257913589E-08;-9,23966616392136E-08;100 nA
-0,150146484375;325,699125177689;5,133056640625E-09;-0,149566650390625;8;637;9,75958257913589E-08;-9,23966616392136E-08;100 nA
-0,10009765625;326,199613176425;4,608154296875E-09;-0,099761962890625;8;638;9,75958257913589E-08;-9,23966616392136E-08;100 nA
-0,050048828125;326,700101175162;4,2022705078125E-09;-0,049774169921875;8;639;9,75958257913589E-08;-9,23966616392136E-08;100 nA
0;327,200589173898;4,1961669921875E-09;9,46044921874972E-05;8;640;9,75958257913589E-08;-9,23966616392136E-08;100 nA
0,050048828125;327,701077172634;4,3365478515625E-09;0,050079345703125;9;641;9,6372403204441E-08;-9,14664939045906E-08;100 nA
0,10009765625;328,201565171371;4,5166015625E-09;0,10009765625;9;642;9,6372403204441E-08;-9,14664939045906E-08;100 nA
0,150146484375;328,702053170107;4,791259765625E-09;0,15008544921875;9;643;9,6372403204441E-08;-9,14664939045906E-08;100 nA
0,2001953125;329,202541168843;5,120849609375E-09;0,2000732421875;9;644;9,6372403204441E-08;-9,14664939045906E-08;100 nA
0,250244140625;329,70302916758;5,4962158203125E-09;0,250091552734375;9;645;9,6372403204441E-08;-9,14664939045906E-08;100 nA
0,30029296875;330,203517166316;5,87158203125E-09;0,300048828125;9;646;9,6372403204441E-08;-9,14664939045906E-08;100 nA
0,350341796875;330,704005165053;6,1859130859375E-09;0,350128173828125;9;647;9,6372403204441E-08;-9,14664939045906E-08;100 nA
0,400390625;331,204493163789;6,500244140625E-09;0,400115966796875;9;648;9,6372403204441E-08;-9,14664939045906E-08;100 nA
0,450439453125;331,704981162525;6,8511962890625E-09;0,450103759765625;9;649;9,6372403204441E-08;-9,14664939045906E-08;100 nA
0,50048828125;332,205469161262;7,171630859375E-09;0,5001220703125;9;650;9,6372403204441E-08;-9,14664939045906E-08;100 nA
0,550537109375;332,705957159998;7,476806640625E-09;0,550048828125;9;651;9,6372403204441E-08;-9,14664939045906E-08;100 nA
0,6005859375;333,206445158735;7,7239990234375E-09;0,60009765625;9;652;9,6372403204441E-08;-9,14664939045906E-08;100 nA
0,650634765625;333,706933157471;7,87353515625E-09;0,6500244140625;9;653;9,6372403204441E-08;-9,14664939045906E-08;100 nA
0,70068359375;334,207421156207;7,8887939453125E-09;0,699981689453125;9;654;9,6372403204441E-08;-9,14664939045906E-08;100 nA
0,750732421875;334,707909154944;7,940673828125E-09;0,749847412109375;9;655;9,6372403204441E-08;-9,14664939045906E-08;100 nA
0,80078125;335,20839715368;7,9132080078125E-09;0,8001708984375;9;656;9,6372403204441E-08;-9,14664939045906E-08;100 nA
0,850830078125;335,708885152417;7,8643798828125E-09;0,84991455078125;9;657;9,6372403204441E-08;-9,14664939045906E-08;100 nA
0,90087890625;336,209373151153;7,861328125E-09;0,89996337890625;9;658;9,6372403204441E-08;-9,14664939045906E-08;100 nA
0,950927734375;336,709861149889;7,8521728515625E-09;0,94940185546875;9;659;9,6372403204441E-08;-9,14664939045906E-08;100 nA
1,0009765625;337,210349148626;7,989501953125E-09;0,999755859375;9;660;9,6372403204441E-08;-9,14664939045906E-08;100 nA
0,950927734375;337,710837147362;5,0994873046875E-09;0,94940185546875;9;661;9,6372403204441E-08;-9,14664939045906E-08;100 nA
0,90087890625;338,211325146098;3,4149169921875E-09;0,8990478515625;9;662;9,6372403204441E-08;-9,14664939045906E-08;100 nA
0,850830078125;338,711813144835;2,3101806640625E-09;0,84991455078125;9;663;9,6372403204441E-08;-9,14664939045906E-08;100 nA
0,80078125;339,212301143571;1,4190673828125E-09;0,80047607421875;9;664;9,6372403204441E-08;-9,14664939045906E-08;100 nA
0,750732421875;339,712789142308;7,4462890625E-10;0,749908447265625;9;665;9,6372403204441E-08;-9,14664939045906E-08;100 nA
0,70068359375;340,213277141044;1,46484375E-10;0,699951171875;9;666;9,6372403204441E-08;-9,14664939045906E-08;100 nA
0,650634765625;340,71376513978;-4,608154296875E-10;0,65008544921875;9;667;9,6372403204441E-08;-9,14664939045906E-08;100 nA
0,6005859375;341,214253138517;-1,0467529296875E-09;0,600128173828125;9;668;9,6372403204441E-08;-9,14664939045906E-08;100 nA
0,550537109375;341,714741137253;-1,6815185546875E-09;0,5501708984375;9;669;9,6372403204441E-08;-9,14664939045906E-08;100 nA
0,50048828125;342,21522913599;-2,313232421875E-09;0,5001220703125;9;670;9,6372403204441E-08;-9,14664939045906E-08;100 nA
0,450439453125;342,715717134726;-2,8839111328125E-09;0,450164794921875;9;671;9,6372403204441E-08;-9,14664939045906E-08;100 nA
0,400390625;343,216205133462;-3,375244140625E-09;0,400177001953125;9;672;9,6372403204441E-08;-9,14664939045906E-08;100 nA
0,350341796875;343,716693132199;-3,9093017578125E-09;0,35015869140625;9;673;9,6372403204441E-08;-9,14664939045906E-08;100 nA
0,30029296875;344,217181130935;-4,443359375E-09;0,300079345703125;9;674;9,6372403204441E-08;-9,14664939045906E-08;100 nA
0,250244140625;344,717669129672;-4,9224853515625E-09;0,25018310546875;9;675;9,6372403204441E-08;-9,14664939045906E-08;100 nA
0,2001953125;345,218157128408;-5,255126953125E-09;0,200103759765625;9;676;9,6372403204441E-08;-9,14664939045906E-08;100 nA
0,150146484375;345,718645127144;-5,6243896484375E-09;0,150146484375;9;677;9,6372403204441E-08;-9,14664939045906E-08;100 nA
0,10009765625;346,219133125881;-5,9722900390625E-09;0,10015869140625;9;678;9,6372403204441E-08;-9,14664939045906E-08;100 nA
0,050048828125;346,719621124617;-6,500244140625E-09;0,050140380859375;9;679;9,6372403204441E-08;-9,14664939045906E-08;100 nA
0;347,220109123354;-7,489013671875E-09;0,000146484375000006;9;680;9,6372403204441E-08;-9,14664939045906E-08;100 nA
-0,050048828125;347,72059712209;-9,619140625E-09;-0,0497161865234375;9;681;9,6372403204441E-08;-9,14664939045906E-08;100 nA
-0,10009765625;348,221085120826;-1,15936279296875E-08;-0,099639892578125;9;682;9,6372403204441E-08;-9,14664939045906E-08;100 nA
-0,150146484375;348,721573119563;-1,03424072265625E-08;-0,1495361328125;9;683;9,6372403204441E-08;-9,14664939045906E-08;100 nA
-0,2001953125;349,222061118299;-6,280517578125E-09;-0,19940185546875;9;684;9,6372403204441E-08;-9,14664939045906E-08;100 nA
-0,250244140625;349,722549117035;-5,5999755859375E-09;-0,2493896484375;9;685;9,6372403204441E-08;-9,14664939045906E-08;100 nA
-0,30029296875;350,223037115772;-5,7586669921875E-09;-0,299285888671875;9;686;9,6372403204441E-08;-9,14664939045906E-08;100 nA
-0,350341796875;350,723525114508;-5,9234619140625E-09;-0,34918212890625;9;687;9,6372403204441E-08;-9,14664939045906E-08;100 nA
-0,400390625;351,224013113245;-5,8380126953125E-09;-0,399078369140625;9;688;9,6372403204441E-08;-9,14664939045906E-08;100 nA
-0,450439453125;351,724501111981;-5,5938720703125E-09;-0,449005126953125;9;689;9,6372403204441E-08;-9,14664939045906E-08;100 nA
-0,50048828125;352,224989110717;-5,3741455078125E-09;-0,498870849609375;9;690;9,6372403204441E-08;-9,14664939045906E-08;100 nA
-0,550537109375;352,725477109454;-5,17578125E-09;-0,548736572265625;9;691;9,6372403204441E-08;-9,14664939045906E-08;100 nA
-0,6005859375;353,22596510819;-4,9896240234375E-09;-0,598724365234375;9;692;9,6372403204441E-08;-9,14664939045906E-08;100 nA
-0,650634765625;353,726453106927;-4,82177734375E-09;-0,64862060546875;9;693;9,6372403204441E-08;-9,14664939045906E-08;100 nA
-0,70068359375;354,226941105663;-4,693603515625E-09;-0,698577880859375;9;694;9,6372403204441E-08;-9,14664939045906E-08;100 nA
-0,750732421875;354,727429104399;-4,58984375E-09;-0,74859619140625;9;695;9,6372403204441E-08;-9,14664939045906E-08;100 nA
-0,80078125;355,227917103136;-4,608154296875E-09;-0,7989501953125;9;696;9,6372403204441E-08;-9,14664939045906E-08;100 nA
-0,850830078125;355,728405101872;-4,6173095703125E-09;-0,84869384765625;9;697;9,6372403204441E-08;-9,14664939045906E-08;100 nA
-0,90087890625;356,228893100609;-4,6844482421875E-09;-0,89813232421875;9;698;9,6372403204441E-08;-9,14664939045906E-08;100 nA
-0,950927734375;356,729381099345;-4,840087890625E-09;-0,948486328125;9;699;9,6372403204441E-08;-9,14664939045906E-08;100 nA
-1,0009765625;357,229869098081;-5,0628662109375E-09;-0,9991455078125;9;700;9,6372403204441E-08;-9,14664939045906E-08;100 nA
-0,950927734375;357,730357096818;-2,923583984375E-09;-0,9490966796875;9;701;9,6372403204441E-08;-9,14664939045906E-08;100 nA
-0,90087890625;358,230845095554;-1,8768310546875E-09;-0,89874267578125;9;702;9,6372403204441E-08;-9,14664939045906E-08;100 nA
-0,850830078125;358,73133309429;-1,1444091796875E-09;-0,84869384765625;9;703;9,6372403204441E-08;-9,14664939045906E-08;100 nA
-0,80078125;359,231821093027;-6,622314453125E-10;-0,7989501953125;9;704;9,6372403204441E-08;-9,14664939045906E-08;100 nA
-0,750732421875;359,732309091763;-2,62451171875E-10;-0,7486572265625;9;705;9,6372403204441E-08;-9,14664939045906E-08;100 nA
-0,70068359375;360,2327970905;7,32421875E-11;-0,698638916015625;9;706;9,6372403204441E-08;-9,14664939045906E-08;100 nA
-0,650634765625;360,733285089236;4,69970703125E-10;-0,648651123046875;9;707;9,6372403204441E-08;-9,14664939045906E-08;100 nA
-0,6005859375;361,233773087972;8,575439453125E-10;-0,59869384765625;9;708;9,6372403204441E-08;-9,14664939045906E-08;100 nA
-0,550537109375;361,734261086709;1,2847900390625E-09;-0,548828125;9;709;9,6372403204441E-08;-9,14664939045906E-08;100 nA
-0,50048828125;362,234749085445;1,7120361328125E-09;-0,4989013671875;9;710;9,6372403204441E-08;-9,14664939045906E-08;100 nA
-0,450439453125;362,735237084182;2,1942138671875E-09;-0,449005126953125;9;711;9,6372403204441E-08;-9,14664939045906E-08;100 nA
-0,400390625;363,235725082918;2,6885986328125E-09;-0,39910888671875;9;712;9,6372403204441E-08;-9,14664939045906E-08;100 nA
-0,350341796875;363,736213081654;3,240966796875E-09;-0,349273681640625;9;713;9,6372403204441E-08;-9,14664939045906E-08;100 nA
-0,30029296875;364,236701080391;3,9520263671875E-09;-0,299285888671875;9;714;9,6372403204441E-08;-9,14664939045906E-08;100 nA
-0,250244140625;364,737189079127;4,69970703125E-09;-0,249359130859375;9;715;9,6372403204441E-08;-9,14664939045906E-08;100 nA
-0,2001953125;365,237677077864;5,06591796875E-09;-0,199462890625;9;716;9,6372403204441E-08;-9,14664939045906E-08;100 nA
-0,150146484375;365,7381650766;5,035400390625E-09;-0,149627685546875;9;717;9,6372403204441E-08;-9,14664939045906E-08;100 nA
-0,10009765625;366,238653075336;4,55322265625E-09;-0,0997314453125;9;718;9,6372403204441E-08;-9,14664939045906E-08;100 nA
-0,050048828125;366,739141074073;4,18701171875E-09;-0,049835205078125;9;719;9,6372403204441E-08;-9,14664939045906E-08;100 nA
0;367,239629072809;4,180908203125E-09;0,000103759765625003;9;720;9,6372403204441E-08;-9,14664939045906E-08;100 nA
0,050048828125;367,740117071545;4,3426513671875E-09;0,050079345703125;10;721;9,72277298569679E-08;-9,25799459218979E-08;100 nA
0,10009765625;368,240605070282;4,52880859375E-09;0,100067138671875;10;722;9,72277298569679E-08;-9,25799459218979E-08;100 nA
0,150146484375;368,741093069018;4,8126220703125E-09;0,15008544921875;10;723;9,72277298569679E-08;-9,25799459218979E-08;100 nA
0,2001953125;369,241581067755;5,145263671875E-09;0,200042724609375;10;724;9,72277298569679E-08;-9,25799459218979E-08;100 nA
0,250244140625;369,742069066491;5,5206298828125E-09;0,25006103515625;10;725;9,72277298569679E-08;-9,25799459218979E-08;100 nA
0,30029296875;370,242557065227;5,8837890625E-09;0,30010986328125;10;726;9,72277298569679E-08;-9,25799459218979E-08;100 nA
0,350341796875;370,743045063964;6,2164306640625E-09;0,350128173828125;10;727;9,72277298569679E-08;-9,25799459218979E-08;100 nA
0,400390625;371,2435330627;6,6009521484375E-09;0,40020751953125;10;728;9,72277298569679E-08;-9,25799459218979E-08;100 nA
0,450439453125;371,744021061437;6,964111328125E-09;0,450103759765625;10;729;9,72277298569679E-08;-9,25799459218979E-08;100 nA
0,50048828125;372,244509060173;7,2479248046875E-09;0,500152587890625;10;730;9,72277298569679E-08;-9,25799459218979E-08;100 nA
0,550537109375;372,744997058909;7,525634765625E-09;0,550201416015625;10;731;9,72277298569679E-08;-9,25799459218979E-08;100 nA
0,6005859375;373,245485057646;7,7484130859375E-09;0,60015869140625;10;732;9,72277298569679E-08;-9,25799459218979E-08;100 nA
0,650634765625;373,745973056382;7,89794921875E-09;0,650115966796875;10;733;9,72277298569679E-08;-9,25799459218979E-08;100 nA
0,70068359375;374,246461055119;7,9681396484375E-09;0,699951171875;10;734;9,72277298569679E-08;-9,25799459218979E-08;100 nA
0,750732421875;374,746949053855;7,965087890625E-09;0,749847412109375;10;735;9,72277298569679E-08;-9,25799459218979E-08;100 nA
0,80078125;375,247437052591;7,9498291015625E-09;0,80047607421875;10;736;9,72277298569679E-08;-9,25799459218979E-08;100 nA
0,850830078125;375,747925051328;7,9254150390625E-09;0,849609375;10;737;9,72277298569679E-08;-9,25799459218979E-08;100 nA
0,90087890625;376,248413050064;7,92236328125E-09;0,899658203125;10;738;9,72277298569679E-08;-9,25799459218979E-08;100 nA
0,950927734375;376,7489010488;7,977294921875E-09;0,95001220703125;10;739;9,72277298569679E-08;-9,25799459218979E-08;100 nA
1,0009765625;377,249389047537;8,06884765625E-09;0,99945068359375;10;740;9,72277298569679E-08;-9,25799459218979E-08;100 nA
0,950927734375;377,749877046273;5,1666259765625E-09;0,94940185546875;10;741;9,72277298569679E-08;-9,25799459218979E-08;100 nA
0,90087890625;378,25036504501;3,50341796875E-09;0,899658203125;10;742;9,72277298569679E-08;-9,25799459218979E-08;100 nA
0,850830078125;378,750853043746;2,374267578125E-09;0,84991455078125;10;743;9,72277298569679E-08;-9,25799459218979E-08;100 nA
0,80078125;379,251341042482;1,52587890625E-09;0,799560546875;10;744;9,72277298569679E-08;-9,25799459218979E-08;100 nA
0,750732421875;379,751829041219;7,965087890625E-10;0,749847412109375;10;745;9,72277298569679E-08;-9,25799459218979E-08;100 nA
0,70068359375;380,252317039955;1,861572265625E-10;0,699981689453125;10;746;9,72277298569679E-08;-9,25799459218979E-08;100 nA
0,650634765625;380,752805038692;-4,302978515625E-10;0,650146484375;10;747;9,72277298569679E-08;-9,25799459218979E-08;100 nA
0,6005859375;381,253293037428;-1,06201171875E-09;0,600128173828125;10;748;9,72277298569679E-08;-9,25799459218979E-08;100 nA
0,550537109375;381,753781036164;-1,7120361328125E-09;0,5501708984375;10;749;9,72277298569679E-08;-9,25799459218979E-08;100 nA
0,50048828125;382,254269034901;-2,3529052734375E-09;0,50018310546875;10;750;9,72277298569679E-08;-9,25799459218979E-08;100 nA
0,450439453125;382,754757033637;-2,9144287109375E-09;0,45013427734375;10;751;9,72277298569679E-08;-9,25799459218979E-08;100 nA
0,400390625;383,255245032374;-3,4576416015625E-09;0,400177001953125;10;752;9,72277298569679E-08;-9,25799459218979E-08;100 nA
0,350341796875;383,75573303111;-3,9703369140625E-09;0,35015869140625;10;753;9,72277298569679E-08;-9,25799459218979E-08;100 nA
0,30029296875;384,256221029846;-4,5074462890625E-09;0,300140380859375;10;754;9,72277298569679E-08;-9,25799459218979E-08;100 nA
0,250244140625;384,756709028583;-5,01708984375E-09;0,250152587890625;10;755;9,72277298569679E-08;-9,25799459218979E-08;100 nA
0,2001953125;385,257197027319;-5,3466796875E-09;0,2000732421875;10;756;9,72277298569679E-08;-9,25799459218979E-08;100 nA
0,150146484375;385,757685026055;-5,712890625E-09;0,150177001953125;10;757;9,72277298569679E-08;-9,25799459218979E-08;100 nA
0,10009765625;386,258173024792;-6,0943603515625E-09;0,100128173828125;10;758;9,72277298569679E-08;-9,25799459218979E-08;100 nA
0,050048828125;386,758661023528;-6,585693359375E-09;0,050140380859375;10;759;9,72277298569679E-08;-9,25799459218979E-08;100 nA
0;387,259149022265;-7,58056640625E-09;0,000134277343750003;10;760;9,72277298569679E-08;-9,25799459218979E-08;100 nA
-0,050048828125;387,759637021001;-9,7137451171875E-09;-0,049835205078125;10;761;9,72277298569679E-08;-9,25799459218979E-08;100 nA
-0,10009765625;388,260125019737;-1,16424560546875E-08;-0,099639892578125;10;762;9,72277298569679E-08;-9,25799459218979E-08;100 nA
-0,150146484375;388,760613018474;-1,03302001953125E-08;-0,14959716796875;10;763;9,72277298569679E-08;-9,25799459218979E-08;100 nA
-0,2001953125;389,26110101721;-6,3720703125E-09;-0,199493408203125;10;764;9,72277298569679E-08;-9,25799459218979E-08;100 nA
-0,250244140625;389,761589015947;-5,7281494140625E-09;-0,249359130859375;10;765;9,72277298569679E-08;-9,25799459218979E-08;100 nA
-0,30029296875;390,262077014683;-5,8563232421875E-09;-0,299285888671875;10;766;9,72277298569679E-08;-9,25799459218979E-08;100 nA
-0,350341796875;390,762565013419;-6,01806640625E-09;-0,3492431640625;10;767;9,72277298569679E-08;-9,25799459218979E-08;100 nA
-0,400390625;391,263053012156;-5,95703125E-09;-0,399139404296875;10;768;9,72277298569679E-08;-9,25799459218979E-08;100 nA
-0,450439453125;391,763541010892;-5,7281494140625E-09;-0,449005126953125;10;769;9,72277298569679E-08;-9,25799459218979E-08;100 nA
-0,50048828125;392,264029009629;-5,4962158203125E-09;-0,498870849609375;10;770;9,72277298569679E-08;-9,25799459218979E-08;100 nA
-0,550537109375;392,764517008365;-5,2642822265625E-09;-0,548797607421875;10;771;9,72277298569679E-08;-9,25799459218979E-08;100 nA
-0,6005859375;393,265005007101;-5,072021484375E-09;-0,598663330078125;10;772;9,72277298569679E-08;-9,25799459218979E-08;100 nA
-0,650634765625;393,765493005838;-4,888916015625E-09;-0,648590087890625;10;773;9,72277298569679E-08;-9,25799459218979E-08;100 nA
-0,70068359375;394,265981004574;-4,7332763671875E-09;-0,6986083984375;10;774;9,72277298569679E-08;-9,25799459218979E-08;100 nA
-0,750732421875;394,76646900331;-4,6783447265625E-09;-0,74859619140625;10;775;9,72277298569679E-08;-9,25799459218979E-08;100 nA
-0,80078125;395,266957002047;-4,6539306640625E-09;-0,79833984375;10;776;9,72277298569679E-08;-9,25799459218979E-08;100 nA
-0,850830078125;395,767445000783;-4,6173095703125E-09;-0,8489990234375;10;777;9,72277298569679E-08;-9,25799459218979E-08;100 nA
-0,90087890625;396,26793299952;-4,69970703125E-09;-0,8984375;10;778;9,72277298569679E-08;-9,25799459218979E-08;100 nA
-0,950927734375;396,768420998256;-4,833984375E-09;-0,94879150390625;10;779;9,72277298569679E-08;-9,25799459218979E-08;100 nA
-1,0009765625;397,268908996992;-5,047607421875E-09;-0,9991455078125;10;780;9,72277298569679E-08;-9,25799459218979E-08;100 nA
-0,950927734375;397,769396995729;-2,978515625E-09;-0,94879150390625;10;781;9,72277298569679E-08;-9,25799459218979E-08;100 nA
-0,90087890625;398,269884994465;-1,8890380859375E-09;-0,8990478515625;10;782;9,72277298569679E-08;-9,25799459218979E-08;100 nA
-0,850830078125;398,770372993202;-1,1627197265625E-09;-0,8489990234375;10;783;9,72277298569679E-08;-9,25799459218979E-08;100 nA
-0,80078125;399,270860991938;-6,500244140625E-10;-0,79864501953125;10;784;9,72277298569679E-08;-9,25799459218979E-08;100 nA
-0,750732421875;399,771348990674;-2,227783203125E-10;-0,748687744140625;10;785;9,72277298569679E-08;-9,25799459218979E-08;100 nA
-0,70068359375;400,271836989411;1,617431640625E-10;-0,69866943359375;10;786;9,72277298569679E-08;-9,25799459218979E-08;100 nA
-0,650634765625;400,772324988147;5,31005859375E-10;-0,648681640625;10;787;9,72277298569679E-08;-9,25799459218979E-08;100 nA
-0,6005859375;401,272812986884;9,490966796875E-10;-0,5987548828125;10;788;9,72277298569679E-08;-9,25799459218979E-08;100 nA
-0,550537109375;401,77330098562;1,361083984375E-09;-0,548858642578125;10;789;9,72277298569679E-08;-9,25799459218979E-08;100 nA
-0,50048828125;402,273788984356;1,7578125E-09;-0,4989013671875;10;790;9,72277298569679E-08;-9,25799459218979E-08;100 nA
-0,450439453125;402,774276983093;2,215576171875E-09;-0,44903564453125;10;791;9,72277298569679E-08;-9,25799459218979E-08;100 nA
-0,400390625;403,274764981829;2,7191162109375E-09;-0,399139404296875;10;792;9,72277298569679E-08;-9,25799459218979E-08;100 nA
-0,350341796875;403,775252980565;3,2867431640625E-09;-0,349273681640625;10;793;9,72277298569679E-08;-9,25799459218979E-08;100 nA
-0,30029296875;404,275740979302;3,9337158203125E-09;-0,299346923828125;10;794;9,72277298569679E-08;-9,25799459218979E-08;100 nA
-0,250244140625;404,776228978038;4,7454833984375E-09;-0,249359130859375;10;795;9,72277298569679E-08;-9,25799459218979E-08;100 nA
-0,2001953125;405,276716976775;5,0628662109375E-09;-0,19952392578125;10;796;9,72277298569679E-08;-9,25799459218979E-08;100 nA
-0,150146484375;405,777204975511;5,0262451171875E-09;-0,149658203125;10;797;9,72277298569679E-08;-9,25799459218979E-08;100 nA
-0,10009765625;406,277692974247;4,40673828125E-09;-0,099700927734375;10;798;9,72277298569679E-08;-9,25799459218979E-08;100 nA
-0,050048828125;406,778180972984;4,1656494140625E-09;-0,0498046875;10;799;9,72277298569679E-08;-9,25799459218979E-08;100 nA
0;407,27866897172;4,1778564453125E-09;0,000149536132812503;10;800;9,72277298569679E-08;-9,25799459218979E-08;100 nA
