Potential applied (V);Time (s);WE(1).Current (A);WE(1).Potential (V);Scan;Index;Q+;Q-;Current range
0,050048828125;7,43915198121795;1,080322265625E-09;0,050140380859375;1;1;9,12266969680786E-08;-1,20240598917007E-07;100 nA
0,10009765625;7,93963997995434;1,28173828125E-09;0,10015869140625;1;2;9,12266969680786E-08;-1,20240598917007E-07;100 nA
0,150146484375;8,44012797869073;2,0172119140625E-09;0,150115966796875;1;3;9,12266969680786E-08;-1,20240598917007E-07;100 nA
0,2001953125;8,94061597742711;2,508544921875E-09;0,20013427734375;1;4;9,12266969680786E-08;-1,20240598917007E-07;100 nA
0,250244140625;9,4411039761635;3,082275390625E-09;0,2501220703125;1;5;9,12266969680786E-08;-1,20240598917007E-07;100 nA
0,30029296875;9,94159197489989;3,6407470703125E-09;0,300079345703125;1;6;9,12266969680786E-08;-1,20240598917007E-07;100 nA
0,350341796875;10,4420799736363;4,2510986328125E-09;0,350189208984375;1;7;9,12266969680786E-08;-1,20240598917007E-07;100 nA
0,400390625;10,9425679723727;4,87060546875E-09;0,400177001953125;1;8;9,12266969680786E-08;-1,20240598917007E-07;100 nA
0,450439453125;11,4430559711091;5,4443359375E-09;0,450164794921875;1;9;9,12266969680786E-08;-1,20240598917007E-07;100 nA
0,50048828125;11,9435439698455;5,94482421875E-09;0,500152587890625;1;10;9,12266969680786E-08;-1,20240598917007E-07;100 nA
0,550537109375;12,4440319685818;6,268310546875E-09;0,550140380859375;1;11;9,12266969680786E-08;-1,20240598917007E-07;100 nA
0,6005859375;12,9445199673182;6,439208984375E-09;0,60015869140625;1;12;9,12266969680786E-08;-1,20240598917007E-07;100 nA
0,650634765625;13,4450079660546;6,54296875E-09;0,650054931640625;1;13;9,12266969680786E-08;-1,20240598917007E-07;100 nA
0,70068359375;13,945495964791;6,5887451171875E-09;0,699951171875;1;14;9,12266969680786E-08;-1,20240598917007E-07;100 nA
0,750732421875;14,4459839635274;6,6192626953125E-09;0,7498779296875;1;15;9,12266969680786E-08;-1,20240598917007E-07;100 nA
0,80078125;14,9464719622638;6,683349609375E-09;0,8001708984375;1;16;9,12266969680786E-08;-1,20240598917007E-07;100 nA
0,850830078125;15,4469599610002;6,70166015625E-09;0,84991455078125;1;17;9,12266969680786E-08;-1,20240598917007E-07;100 nA
0,90087890625;15,9474479597366;6,7840576171875E-09;0,9002685546875;1;18;9,12266969680786E-08;-1,20240598917007E-07;100 nA
0,950927734375;16,447935958473;6,8878173828125E-09;0,95001220703125;1;19;9,12266969680786E-08;-1,20240598917007E-07;100 nA
1,0009765625;16,9484239572093;7,025146484375E-09;0,999755859375;1;20;9,12266969680786E-08;-1,20240598917007E-07;100 nA
0,950927734375;17,4489119559457;4,2083740234375E-09;0,95001220703125;1;21;9,12266969680786E-08;-1,20240598917007E-07;100 nA
0,90087890625;17,9493999546821;2,642822265625E-09;0,89996337890625;1;22;9,12266969680786E-08;-1,20240598917007E-07;100 nA
0,850830078125;18,4498879534185;1,5899658203125E-09;0,84991455078125;1;23;9,12266969680786E-08;-1,20240598917007E-07;100 nA
0,80078125;18,9503759521549;8,148193359375E-10;0,8001708984375;1;24;9,12266969680786E-08;-1,20240598917007E-07;100 nA
0,750732421875;19,4508639508913;2,62451171875E-10;0,74993896484375;1;25;9,12266969680786E-08;-1,20240598917007E-07;100 nA
0,70068359375;19,9513519496277;-2,227783203125E-10;0,699981689453125;1;26;9,12266969680786E-08;-1,20240598917007E-07;100 nA
0,650634765625;20,4518399483641;-7,14111328125E-10;0,65008544921875;1;27;9,12266969680786E-08;-1,20240598917007E-07;100 nA
0,6005859375;20,9523279471005;-1,2115478515625E-09;0,600189208984375;1;28;9,12266969680786E-08;-1,20240598917007E-07;100 nA
0,550537109375;21,4528159458368;-1,7791748046875E-09;0,550201416015625;1;29;9,12266969680786E-08;-1,20240598917007E-07;100 nA
0,50048828125;21,9533039445732;-2,44140625E-09;0,500152587890625;1;30;9,12266969680786E-08;-1,20240598917007E-07;100 nA
0,450439453125;22,4537919433096;-3,06396484375E-09;0,45013427734375;1;31;9,12266969680786E-08;-1,20240598917007E-07;100 nA
0,400390625;22,954279942046;-3,7261962890625E-09;0,400146484375;1;32;9,12266969680786E-08;-1,20240598917007E-07;100 nA
0,350341796875;23,4547679407824;-4,364013671875E-09;0,350189208984375;1;33;9,12266969680786E-08;-1,20240598917007E-07;100 nA
0,30029296875;23,9552559395188;-5,0048828125E-09;0,300048828125;1;34;9,12266969680786E-08;-1,20240598917007E-07;100 nA
0,250244140625;24,4557439382552;-5,5206298828125E-09;0,2501220703125;1;35;9,12266969680786E-08;-1,20240598917007E-07;100 nA
0,2001953125;24,9562319369916;-5,8807373046875E-09;0,200103759765625;1;36;9,12266969680786E-08;-1,20240598917007E-07;100 nA
0,150146484375;25,456719935728;-6,1859130859375E-09;0,150146484375;1;37;9,12266969680786E-08;-1,20240598917007E-07;100 nA
0,10009765625;25,9572079344644;-6,4453125E-09;0,100128173828125;1;38;9,12266969680786E-08;-1,20240598917007E-07;100 nA
0,050048828125;26,4576959332007;-6,7169189453125E-09;0,050079345703125;1;39;9,12266969680786E-08;-1,20240598917007E-07;100 nA
0;26,9581839319371;-7,01904296875E-09;0,000146484375000006;1;40;9,12266969680786E-08;-1,20240598917007E-07;100 nA
-0,050048828125;27,4586719306735;-7,6995849609375E-09;-0,04986572265625;1;41;9,12266969680786E-08;-1,20240598917007E-07;100 nA
-0,10009765625;27,9591599294099;-7,5103759765625E-09;-0,099639892578125;1;42;9,12266969680786E-08;-1,20240598917007E-07;100 nA
-0,150146484375;28,4596479281463;-5,810546875E-09;-0,149505615234375;1;43;9,12266969680786E-08;-1,20240598917007E-07;100 nA
-0,2001953125;28,9601359268827;-5,8624267578125E-09;-0,199462890625;1;44;9,12266969680786E-08;-1,20240598917007E-07;100 nA
-0,250244140625;29,4606239256191;-6,3934326171875E-09;-0,249359130859375;1;45;9,12266969680786E-08;-1,20240598917007E-07;100 nA
-0,30029296875;29,9611119243555;-6,890869140625E-09;-0,299224853515625;1;46;9,12266969680786E-08;-1,20240598917007E-07;100 nA
-0,350341796875;30,4615999230919;-7,3211669921875E-09;-0,34918212890625;1;47;9,12266969680786E-08;-1,20240598917007E-07;100 nA
-0,400390625;30,9620879218282;-7,50732421875E-09;-0,399078369140625;1;48;9,12266969680786E-08;-1,20240598917007E-07;100 nA
-0,450439453125;31,4625759205646;-7,70263671875E-09;-0,448974609375;1;49;9,12266969680786E-08;-1,20240598917007E-07;100 nA
-0,50048828125;31,963063919301;-7,9254150390625E-09;-0,49884033203125;1;50;9,12266969680786E-08;-1,20240598917007E-07;100 nA
-0,550537109375;32,4635519180374;-8,2244873046875E-09;-0,5487060546875;1;51;9,12266969680786E-08;-1,20240598917007E-07;100 nA
-0,6005859375;32,9640399167738;-8,526611328125E-09;-0,59869384765625;1;52;9,12266969680786E-08;-1,20240598917007E-07;100 nA
-0,650634765625;33,4645279155102;-8,80126953125E-09;-0,648590087890625;1;53;9,12266969680786E-08;-1,20240598917007E-07;100 nA
-0,70068359375;33,9650159142466;-9,051513671875E-09;-0,698577880859375;1;54;9,12266969680786E-08;-1,20240598917007E-07;100 nA
-0,750732421875;34,465503912983;-9,2681884765625E-09;-0,748565673828125;1;55;9,12266969680786E-08;-1,20240598917007E-07;100 nA
-0,80078125;34,9659919117194;-9,515380859375E-09;-0,79864501953125;1;56;9,12266969680786E-08;-1,20240598917007E-07;100 nA
-0,850830078125;35,4664799104557;-9,7625732421875E-09;-0,8489990234375;1;57;9,12266969680786E-08;-1,20240598917007E-07;100 nA
-0,90087890625;35,9669679091921;-9,9761962890625E-09;-0,89874267578125;1;58;9,12266969680786E-08;-1,20240598917007E-07;100 nA
-0,950927734375;36,4674559079285;-1,0162353515625E-08;-0,9490966796875;1;59;9,12266969680786E-08;-1,20240598917007E-07;100 nA
-1,0009765625;36,9679439066649;-1,0406494140625E-08;-0,99884033203125;1;60;9,12266969680786E-08;-1,20240598917007E-07;100 nA
-0,950927734375;37,4684319054013;-6,6314697265625E-09;-0,9490966796875;1;61;9,12266969680786E-08;-1,20240598917007E-07;100 nA
-0,90087890625;37,9689199041377;-4,3304443359375E-09;-0,89813232421875;1;62;9,12266969680786E-08;-1,20240598917007E-07;100 nA
-0,850830078125;38,4694079028741;-2,703857421875E-09;-0,8489990234375;1;63;9,12266969680786E-08;-1,20240598917007E-07;100 nA
-0,80078125;38,9698959016105;-1,4984130859375E-09;-0,7989501953125;1;64;9,12266969680786E-08;-1,20240598917007E-07;100 nA
-0,750732421875;39,4703839003469;-4,669189453125E-10;-0,7486572265625;1;65;9,12266969680786E-08;-1,20240598917007E-07;100 nA
-0,70068359375;39,9708718990832;4,302978515625E-10;-0,698699951171875;1;66;9,12266969680786E-08;-1,20240598917007E-07;100 nA
-0,650634765625;40,4713598978196;1,20849609375E-09;-0,648681640625;1;67;9,12266969680786E-08;-1,20240598917007E-07;100 nA
-0,6005859375;40,971847896556;1,947021484375E-09;-0,598602294921875;1;68;9,12266969680786E-08;-1,20240598917007E-07;100 nA
-0,550537109375;41,4723358952924;2,587890625E-09;-0,548828125;1;69;9,12266969680786E-08;-1,20240598917007E-07;100 nA
-0,50048828125;41,9728238940288;3,302001953125E-09;-0,498931884765625;1;70;9,12266969680786E-08;-1,20240598917007E-07;100 nA
-0,450439453125;42,4733118927652;3,89404296875E-09;-0,4490966796875;1;71;9,12266969680786E-08;-1,20240598917007E-07;100 nA
-0,400390625;42,9737998915016;4,6722412109375E-09;-0,399169921875;1;72;9,12266969680786E-08;-1,20240598917007E-07;100 nA
-0,350341796875;43,474287890238;5,615234375E-09;-0,349273681640625;1;73;9,12266969680786E-08;-1,20240598917007E-07;100 nA
-0,30029296875;43,9747758889744;6,3140869140625E-09;-0,29937744140625;1;74;9,12266969680786E-08;-1,20240598917007E-07;100 nA
-0,250244140625;44,4752638877108;6,6253662109375E-09;-0,24945068359375;1;75;9,12266969680786E-08;-1,20240598917007E-07;100 nA
-0,2001953125;44,9757518864471;6,8389892578125E-09;-0,199493408203125;1;76;9,12266969680786E-08;-1,20240598917007E-07;100 nA
-0,150146484375;45,4762398851835;7,03125E-09;-0,149627685546875;1;77;9,12266969680786E-08;-1,20240598917007E-07;100 nA
-0,10009765625;45,9767278839199;7,2296142578125E-09;-0,0997314453125;1;78;9,12266969680786E-08;-1,20240598917007E-07;100 nA
-0,050048828125;46,4772158826563;7,3638916015625E-09;-0,049896240234375;1;79;9,12266969680786E-08;-1,20240598917007E-07;100 nA
0;46,9777038813927;7,0343017578125E-09;0,000125122070312497;1;80;9,12266969680786E-08;-1,20240598917007E-07;100 nA
0,050048828125;47,4781918801291;6,26220703125E-09;0,050079345703125;2;81;1,14940628409386E-07;-1,18177123367786E-07;100 nA
0,10009765625;47,9786798788655;6,16455078125E-09;0,100128173828125;2;82;1,14940628409386E-07;-1,18177123367786E-07;100 nA
0,150146484375;48,4791678776019;6,2591552734375E-09;0,15008544921875;2;83;1,14940628409386E-07;-1,18177123367786E-07;100 nA
0,2001953125;48,9796558763383;6,439208984375E-09;0,200103759765625;2;84;1,14940628409386E-07;-1,18177123367786E-07;100 nA
0,250244140625;49,4801438750746;6,6375732421875E-09;0,2501220703125;2;85;1,14940628409386E-07;-1,18177123367786E-07;100 nA
0,30029296875;49,980631873811;6,8695068359375E-09;0,300079345703125;2;86;1,14940628409386E-07;-1,18177123367786E-07;100 nA
0,350341796875;50,4811198725474;7,159423828125E-09;0,350128173828125;2;87;1,14940628409386E-07;-1,18177123367786E-07;100 nA
0,400390625;50,9816078712838;7,4188232421875E-09;0,40020751953125;2;88;1,14940628409386E-07;-1,18177123367786E-07;100 nA
0,450439453125;51,4820958700202;7,6385498046875E-09;0,450164794921875;2;89;1,14940628409386E-07;-1,18177123367786E-07;100 nA
0,50048828125;51,9825838687566;7,8338623046875E-09;0,500091552734375;2;90;1,14940628409386E-07;-1,18177123367786E-07;100 nA
0,550537109375;52,483071867493;7,9681396484375E-09;0,5501708984375;2;91;1,14940628409386E-07;-1,18177123367786E-07;100 nA
0,6005859375;52,9835598662294;7,9803466796875E-09;0,600189208984375;2;92;1,14940628409386E-07;-1,18177123367786E-07;100 nA
0,650634765625;53,4840478649658;7,8277587890625E-09;0,65008544921875;2;93;1,14940628409386E-07;-1,18177123367786E-07;100 nA
0,70068359375;53,9845358637021;7,65380859375E-09;0,699981689453125;2;94;1,14940628409386E-07;-1,18177123367786E-07;100 nA
0,750732421875;54,4850238624385;7,513427734375E-09;0,7498779296875;2;95;1,14940628409386E-07;-1,18177123367786E-07;100 nA
0,80078125;54,9855118611749;7,3699951171875E-09;0,79986572265625;2;96;1,14940628409386E-07;-1,18177123367786E-07;100 nA
0,850830078125;55,4859998599113;7,3028564453125E-09;0,84991455078125;2;97;1,14940628409386E-07;-1,18177123367786E-07;100 nA
0,90087890625;55,9864878586477;7,269287109375E-09;0,89996337890625;2;98;1,14940628409386E-07;-1,18177123367786E-07;100 nA
0,950927734375;56,4869758573841;7,3150634765625E-09;0,94940185546875;2;99;1,14940628409386E-07;-1,18177123367786E-07;100 nA
1,0009765625;56,9874638561205;7,4127197265625E-09;0,99945068359375;2;100;1,14940628409386E-07;-1,18177123367786E-07;100 nA
0,950927734375;57,4879518548569;4,510498046875E-09;0,94970703125;2;101;1,14940628409386E-07;-1,18177123367786E-07;100 nA
0,90087890625;57,9884398535933;2,9052734375E-09;0,89935302734375;2;102;1,14940628409386E-07;-1,18177123367786E-07;100 nA
0,850830078125;58,4889278523297;1,806640625E-09;0,84991455078125;2;103;1,14940628409386E-07;-1,18177123367786E-07;100 nA
0,80078125;58,989415851066;9,8876953125E-10;0,79986572265625;2;104;1,14940628409386E-07;-1,18177123367786E-07;100 nA
0,750732421875;59,4899038498024;4,0283203125E-10;0,74993896484375;2;105;1,14940628409386E-07;-1,18177123367786E-07;100 nA
0,70068359375;59,9903918485388;-1,129150390625E-10;0,699951171875;2;106;1,14940628409386E-07;-1,18177123367786E-07;100 nA
0,650634765625;60,4908798472752;-5,767822265625E-10;0,65008544921875;2;107;1,14940628409386E-07;-1,18177123367786E-07;100 nA
0,6005859375;60,9913678460116;-1,1383056640625E-09;0,600128173828125;2;108;1,14940628409386E-07;-1,18177123367786E-07;100 nA
0,550537109375;61,491855844748;-1,64794921875E-09;0,5501708984375;2;109;1,14940628409386E-07;-1,18177123367786E-07;100 nA
0,50048828125;61,9923438434844;-2,2552490234375E-09;0,5001220703125;2;110;1,14940628409386E-07;-1,18177123367786E-07;100 nA
0,450439453125;62,4928318422208;-2,9144287109375E-09;0,450164794921875;2;111;1,14940628409386E-07;-1,18177123367786E-07;100 nA
0,400390625;62,9933198409572;-3,57666015625E-09;0,400146484375;2;112;1,14940628409386E-07;-1,18177123367786E-07;100 nA
0,350341796875;63,4938078396935;-4,1839599609375E-09;0,350128173828125;2;113;1,14940628409386E-07;-1,18177123367786E-07;100 nA
0,30029296875;63,9942958384299;-4,7698974609375E-09;0,300140380859375;2;114;1,14940628409386E-07;-1,18177123367786E-07;100 nA
0,250244140625;64,4947838371663;-5,291748046875E-09;0,2501220703125;2;115;1,14940628409386E-07;-1,18177123367786E-07;100 nA
0,2001953125;64,9952718359027;-5,6671142578125E-09;0,200164794921875;2;116;1,14940628409386E-07;-1,18177123367786E-07;100 nA
0,150146484375;65,4957598346391;-5,987548828125E-09;0,150115966796875;2;117;1,14940628409386E-07;-1,18177123367786E-07;100 nA
0,10009765625;65,9962478333755;-6,243896484375E-09;0,100128173828125;2;118;1,14940628409386E-07;-1,18177123367786E-07;100 nA
0,050048828125;66,4967358321119;-6,5521240234375E-09;0,05010986328125;2;119;1,14940628409386E-07;-1,18177123367786E-07;100 nA
0;66,9972238308483;-7,0831298828125E-09;0,000222778320312506;2;120;1,14940628409386E-07;-1,18177123367786E-07;100 nA
-0,050048828125;67,4977118295847;-8,154296875E-09;-0,04974365234375;2;121;1,14940628409386E-07;-1,18177123367786E-07;100 nA
-0,10009765625;67,998199828321;-8,465576171875E-09;-0,099609375;2;122;1,14940628409386E-07;-1,18177123367786E-07;100 nA
-0,150146484375;68,4986878270574;-6,292724609375E-09;-0,1495361328125;2;123;1,14940628409386E-07;-1,18177123367786E-07;100 nA
-0,2001953125;68,9991758257938;-6,0821533203125E-09;-0,199432373046875;2;124;1,14940628409386E-07;-1,18177123367786E-07;100 nA
-0,250244140625;69,4996638245302;-6,5460205078125E-09;-0,2493896484375;2;125;1,14940628409386E-07;-1,18177123367786E-07;100 nA
-0,30029296875;70,0001518232666;-7,0159912109375E-09;-0,29931640625;2;126;1,14940628409386E-07;-1,18177123367786E-07;100 nA
-0,350341796875;70,500639822003;-7,3883056640625E-09;-0,3492431640625;2;127;1,14940628409386E-07;-1,18177123367786E-07;100 nA
-0,400390625;71,0011278207394;-7,623291015625E-09;-0,39910888671875;2;128;1,14940628409386E-07;-1,18177123367786E-07;100 nA
-0,450439453125;71,5016158194758;-7,7239990234375E-09;-0,448974609375;2;129;1,14940628409386E-07;-1,18177123367786E-07;100 nA
-0,50048828125;72,0021038182122;-7,867431640625E-09;-0,498870849609375;2;130;1,14940628409386E-07;-1,18177123367786E-07;100 nA
-0,550537109375;72,5025918169486;-8,3251953125E-09;-0,548736572265625;2;131;1,14940628409386E-07;-1,18177123367786E-07;100 nA
-0,6005859375;73,0030798156849;-8,36181640625E-09;-0,59869384765625;2;132;1,14940628409386E-07;-1,18177123367786E-07;100 nA
-0,650634765625;73,5035678144213;-8,575439453125E-09;-0,648590087890625;2;133;1,14940628409386E-07;-1,18177123367786E-07;100 nA
-0,70068359375;74,0040558131577;-8,770751953125E-09;-0,6986083984375;2;134;1,14940628409386E-07;-1,18177123367786E-07;100 nA
-0,750732421875;74,5045438118941;-9,0118408203125E-09;-0,748565673828125;2;135;1,14940628409386E-07;-1,18177123367786E-07;100 nA
-0,80078125;75,0050318106305;-9,1888427734375E-09;-0,79864501953125;2;136;1,14940628409386E-07;-1,18177123367786E-07;100 nA
-0,850830078125;75,5055198093669;-9,31396484375E-09;-0,84869384765625;2;137;1,14940628409386E-07;-1,18177123367786E-07;100 nA
-0,90087890625;76,0060078081033;-9,4482421875E-09;-0,89874267578125;2;138;1,14940628409386E-07;-1,18177123367786E-07;100 nA
-0,950927734375;76,5064958068397;-9,637451171875E-09;-0,94879150390625;2;139;1,14940628409386E-07;-1,18177123367786E-07;100 nA
-1,0009765625;77,0069838055761;-9,918212890625E-09;-0,9991455078125;2;140;1,14940628409386E-07;-1,18177123367786E-07;100 nA
-0,950927734375;77,5074718043124;-6,23779296875E-09;-0,94879150390625;2;141;1,14940628409386E-07;-1,18177123367786E-07;100 nA
-0,90087890625;78,0079598030488;-4,071044921875E-09;-0,8990478515625;2;142;1,14940628409386E-07;-1,18177123367786E-07;100 nA
-0,850830078125;78,5084478017852;-2,4932861328125E-09;-0,84869384765625;2;143;1,14940628409386E-07;-1,18177123367786E-07;100 nA
-0,80078125;79,0089358005216;-1,318359375E-09;-0,79864501953125;2;144;1,14940628409386E-07;-1,18177123367786E-07;100 nA
-0,750732421875;79,509423799258;-2,899169921875E-10;-0,748687744140625;2;145;1,14940628409386E-07;-1,18177123367786E-07;100 nA
-0,70068359375;80,0099117979944;5,7373046875E-10;-0,6986083984375;2;146;1,14940628409386E-07;-1,18177123367786E-07;100 nA
-0,650634765625;80,5103997967308;1,361083984375E-09;-0,648590087890625;2;147;1,14940628409386E-07;-1,18177123367786E-07;100 nA
-0,6005859375;81,0108877954672;2,0843505859375E-09;-0,598663330078125;2;148;1,14940628409386E-07;-1,18177123367786E-07;100 nA
-0,550537109375;81,5113757942036;2,74658203125E-09;-0,548858642578125;2;149;1,14940628409386E-07;-1,18177123367786E-07;100 nA
-0,50048828125;82,0118637929399;3,4423828125E-09;-0,4989013671875;2;150;1,14940628409386E-07;-1,18177123367786E-07;100 nA
-0,450439453125;82,5123517916763;4,156494140625E-09;-0,448944091796875;2;151;1,14940628409386E-07;-1,18177123367786E-07;100 nA
-0,400390625;83,0128397904127;4,913330078125E-09;-0,399139404296875;2;152;1,14940628409386E-07;-1,18177123367786E-07;100 nA
-0,350341796875;83,5133277891491;5,841064453125E-09;-0,349273681640625;2;153;1,14940628409386E-07;-1,18177123367786E-07;100 nA
-0,30029296875;84,0138157878855;6,5277099609375E-09;-0,29931640625;2;154;1,14940628409386E-07;-1,18177123367786E-07;100 nA
-0,250244140625;84,5143037866219;6,829833984375E-09;-0,249359130859375;2;155;1,14940628409386E-07;-1,18177123367786E-07;100 nA
-0,2001953125;85,0147917853583;7,01904296875E-09;-0,199493408203125;2;156;1,14940628409386E-07;-1,18177123367786E-07;100 nA
-0,150146484375;85,5152797840947;7,2052001953125E-09;-0,149658203125;2;157;1,14940628409386E-07;-1,18177123367786E-07;100 nA
-0,10009765625;86,0157677828311;7,3944091796875E-09;-0,09967041015625;2;158;1,14940628409386E-07;-1,18177123367786E-07;100 nA
-0,050048828125;86,5162557815675;7,5286865234375E-09;-0,049835205078125;2;159;1,14940628409386E-07;-1,18177123367786E-07;100 nA
0;87,0167437803038;7,122802734375E-09;0,000109863281249997;2;160;1,14940628409386E-07;-1,18177123367786E-07;100 nA
0,050048828125;87,5172317790402;6,3934326171875E-09;0,050079345703125;3;161;1,14748179912567E-07;-1,17060616612434E-07;100 nA
0,10009765625;88,0177197777766;6,2469482421875E-09;0,10009765625;3;162;1,14748179912567E-07;-1,17060616612434E-07;100 nA
0,150146484375;88,518207776513;6,298828125E-09;0,150115966796875;3;163;1,14748179912567E-07;-1,17060616612434E-07;100 nA
0,2001953125;89,0186957752494;6,463623046875E-09;0,200042724609375;3;164;1,14748179912567E-07;-1,17060616612434E-07;100 nA
0,250244140625;89,5191837739858;6,65283203125E-09;0,25006103515625;3;165;1,14748179912567E-07;-1,17060616612434E-07;100 nA
0,30029296875;90,0196717727222;6,878662109375E-09;0,300048828125;3;166;1,14748179912567E-07;-1,17060616612434E-07;100 nA
0,350341796875;90,5201597714586;7,1014404296875E-09;0,35015869140625;3;167;1,14748179912567E-07;-1,17060616612434E-07;100 nA
0,400390625;91,020647770195;7,3638916015625E-09;0,400146484375;3;168;1,14748179912567E-07;-1,17060616612434E-07;100 nA
0,450439453125;91,5211357689313;7,6202392578125E-09;0,45013427734375;3;169;1,14748179912567E-07;-1,17060616612434E-07;100 nA
0,50048828125;92,0216237676677;7,8460693359375E-09;0,5001220703125;3;170;1,14748179912567E-07;-1,17060616612434E-07;100 nA
0,550537109375;92,5221117664041;7,92236328125E-09;0,55010986328125;3;171;1,14748179912567E-07;-1,17060616612434E-07;100 nA
0,6005859375;93,0225997651405;7,9254150390625E-09;0,60009765625;3;172;1,14748179912567E-07;-1,17060616612434E-07;100 nA
0,650634765625;93,5230877638769;7,7789306640625E-09;0,650054931640625;3;173;1,14748179912567E-07;-1,17060616612434E-07;100 nA
0,70068359375;94,0235757626133;7,60498046875E-09;0,699951171875;3;174;1,14748179912567E-07;-1,17060616612434E-07;100 nA
0,750732421875;94,5240637613497;7,452392578125E-09;0,749847412109375;3;175;1,14748179912567E-07;-1,17060616612434E-07;100 nA
0,80078125;95,0245517600861;7,3272705078125E-09;0,799560546875;3;176;1,14748179912567E-07;-1,17060616612434E-07;100 nA
0,850830078125;95,5250397588225;7,257080078125E-09;0,8502197265625;3;177;1,14748179912567E-07;-1,17060616612434E-07;100 nA
0,90087890625;96,0255277575588;7,2540283203125E-09;0,899658203125;3;178;1,14748179912567E-07;-1,17060616612434E-07;100 nA
0,950927734375;96,5260157562952;7,23876953125E-09;0,94970703125;3;179;1,14748179912567E-07;-1,17060616612434E-07;100 nA
1,0009765625;97,0265037550316;7,3486328125E-09;0,99945068359375;3;180;1,14748179912567E-07;-1,17060616612434E-07;100 nA
0,950927734375;97,526991753768;4,522705078125E-09;0,94970703125;3;181;1,14748179912567E-07;-1,17060616612434E-07;100 nA
0,90087890625;98,0274797525044;2,8717041015625E-09;0,9002685546875;3;182;1,14748179912567E-07;-1,17060616612434E-07;100 nA
0,850830078125;98,5279677512408;1,7608642578125E-09;0,84991455078125;3;183;1,14748179912567E-07;-1,17060616612434E-07;100 nA
0,80078125;99,0284557499772;1,01318359375E-09;0,80047607421875;3;184;1,14748179912567E-07;-1,17060616612434E-07;100 nA
0,750732421875;99,5289437487136;4,119873046875E-10;0,7498779296875;3;185;1,14748179912567E-07;-1,17060616612434E-07;100 nA
0,70068359375;100,02943174745;-9,46044921875E-11;0,69989013671875;3;186;1,14748179912567E-07;-1,17060616612434E-07;100 nA
0,650634765625;100,529919746186;-5,67626953125E-10;0,65008544921875;3;187;1,14748179912567E-07;-1,17060616612434E-07;100 nA
0,6005859375;101,030407744923;-1,0833740234375E-09;0,60015869140625;3;188;1,14748179912567E-07;-1,17060616612434E-07;100 nA
0,550537109375;101,530895743659;-1,641845703125E-09;0,5501708984375;3;189;1,14748179912567E-07;-1,17060616612434E-07;100 nA
0,50048828125;102,031383742396;-2,227783203125E-09;0,500213623046875;3;190;1,14748179912567E-07;-1,17060616612434E-07;100 nA
0,450439453125;102,531871741132;-2,8961181640625E-09;0,45013427734375;3;191;1,14748179912567E-07;-1,17060616612434E-07;100 nA
0,400390625;103,032359739868;-3,55224609375E-09;0,400115966796875;3;192;1,14748179912567E-07;-1,17060616612434E-07;100 nA
0,350341796875;103,532847738605;-4,1259765625E-09;0,35015869140625;3;193;1,14748179912567E-07;-1,17060616612434E-07;100 nA
0,30029296875;104,033335737341;-4,7271728515625E-09;0,300140380859375;3;194;1,14748179912567E-07;-1,17060616612434E-07;100 nA
0,250244140625;104,533823736077;-5,26123046875E-09;0,250152587890625;3;195;1,14748179912567E-07;-1,17060616612434E-07;100 nA
0,2001953125;105,034311734814;-5,6304931640625E-09;0,200103759765625;3;196;1,14748179912567E-07;-1,17060616612434E-07;100 nA
0,150146484375;105,53479973355;-5,9234619140625E-09;0,150115966796875;3;197;1,14748179912567E-07;-1,17060616612434E-07;100 nA
0,10009765625;106,035287732287;-6,170654296875E-09;0,100189208984375;3;198;1,14748179912567E-07;-1,17060616612434E-07;100 nA
0,050048828125;106,535775731023;-6,451416015625E-09;0,05010986328125;3;199;1,14748179912567E-07;-1,17060616612434E-07;100 nA
0;107,036263729759;-6,9580078125E-09;0,000152587890625;3;200;1,14748179912567E-07;-1,17060616612434E-07;100 nA
-0,050048828125;107,536751728496;-8,0078125E-09;-0,049713134765625;3;201;1,14748179912567E-07;-1,17060616612434E-07;100 nA
-0,10009765625;108,037239727232;-8,1298828125E-09;-0,0997314453125;3;202;1,14748179912567E-07;-1,17060616612434E-07;100 nA
-0,150146484375;108,537727725969;-6,1065673828125E-09;-0,149566650390625;3;203;1,14748179912567E-07;-1,17060616612434E-07;100 nA
-0,2001953125;109,038215724705;-6,0760498046875E-09;-0,199462890625;3;204;1,14748179912567E-07;-1,17060616612434E-07;100 nA
-0,250244140625;109,538703723441;-6,5887451171875E-09;-0,249359130859375;3;205;1,14748179912567E-07;-1,17060616612434E-07;100 nA
-0,30029296875;110,039191722178;-7,073974609375E-09;-0,29925537109375;3;206;1,14748179912567E-07;-1,17060616612434E-07;100 nA
-0,350341796875;110,539679720914;-7,415771484375E-09;-0,34918212890625;3;207;1,14748179912567E-07;-1,17060616612434E-07;100 nA
-0,400390625;111,040167719651;-7,5714111328125E-09;-0,399078369140625;3;208;1,14748179912567E-07;-1,17060616612434E-07;100 nA
-0,450439453125;111,540655718387;-7,7423095703125E-09;-0,448974609375;3;209;1,14748179912567E-07;-1,17060616612434E-07;100 nA
-0,50048828125;112,041143717123;-7,89794921875E-09;-0,498931884765625;3;210;1,14748179912567E-07;-1,17060616612434E-07;100 nA
-0,550537109375;112,54163171586;-8,154296875E-09;-0,548797607421875;3;211;1,14748179912567E-07;-1,17060616612434E-07;100 nA
-0,6005859375;113,042119714596;-8,343505859375E-09;-0,59869384765625;3;212;1,14748179912567E-07;-1,17060616612434E-07;100 nA
-0,650634765625;113,542607713332;-8,599853515625E-09;-0,648590087890625;3;213;1,14748179912567E-07;-1,17060616612434E-07;100 nA
-0,70068359375;114,043095712069;-8,7982177734375E-09;-0,6986083984375;3;214;1,14748179912567E-07;-1,17060616612434E-07;100 nA
-0,750732421875;114,543583710805;-8,966064453125E-09;-0,7486572265625;3;215;1,14748179912567E-07;-1,17060616612434E-07;100 nA
-0,80078125;115,044071709542;-9,11865234375E-09;-0,79864501953125;3;216;1,14748179912567E-07;-1,17060616612434E-07;100 nA
-0,850830078125;115,544559708278;-9,246826171875E-09;-0,8489990234375;3;217;1,14748179912567E-07;-1,17060616612434E-07;100 nA
-0,90087890625;116,045047707014;-9,381103515625E-09;-0,8984375;3;218;1,14748179912567E-07;-1,17060616612434E-07;100 nA
-0,950927734375;116,545535705751;-9,564208984375E-09;-0,9490966796875;3;219;1,14748179912567E-07;-1,17060616612434E-07;100 nA
-1,0009765625;117,046023704487;-9,72900390625E-09;-0,99884033203125;3;220;1,14748179912567E-07;-1,17060616612434E-07;100 nA
-0,950927734375;117,546511703224;-6,1431884765625E-09;-0,9490966796875;3;221;1,14748179912567E-07;-1,17060616612434E-07;100 nA
-0,90087890625;118,04699970196;-3,948974609375E-09;-0,8990478515625;3;222;1,14748179912567E-07;-1,17060616612434E-07;100 nA
-0,850830078125;118,547487700696;-2,4383544921875E-09;-0,84869384765625;3;223;1,14748179912567E-07;-1,17060616612434E-07;100 nA
-0,80078125;119,047975699433;-1,275634765625E-09;-0,79833984375;3;224;1,14748179912567E-07;-1,17060616612434E-07;100 nA
-0,750732421875;119,548463698169;-2,62451171875E-10;-0,7486572265625;3;225;1,14748179912567E-07;-1,17060616612434E-07;100 nA
-0,70068359375;120,048951696906;6,103515625E-10;-0,698638916015625;3;226;1,14748179912567E-07;-1,17060616612434E-07;100 nA
-0,650634765625;120,549439695642;1,3763427734375E-09;-0,64862060546875;3;227;1,14748179912567E-07;-1,17060616612434E-07;100 nA
-0,6005859375;121,049927694378;2,105712890625E-09;-0,59869384765625;3;228;1,14748179912567E-07;-1,17060616612434E-07;100 nA
-0,550537109375;121,550415693115;2,764892578125E-09;-0,548858642578125;3;229;1,14748179912567E-07;-1,17060616612434E-07;100 nA
-0,50048828125;122,050903691851;3,4149169921875E-09;-0,49896240234375;3;230;1,14748179912567E-07;-1,17060616612434E-07;100 nA
-0,450439453125;122,551391690587;4,144287109375E-09;-0,449005126953125;3;231;1,14748179912567E-07;-1,17060616612434E-07;100 nA
-0,400390625;123,051879689324;4,9102783203125E-09;-0,399169921875;3;232;1,14748179912567E-07;-1,17060616612434E-07;100 nA
-0,350341796875;123,55236768806;5,828857421875E-09;-0,3492431640625;3;233;1,14748179912567E-07;-1,17060616612434E-07;100 nA
-0,30029296875;124,052855686797;6,524658203125E-09;-0,29931640625;3;234;1,14748179912567E-07;-1,17060616612434E-07;100 nA
-0,250244140625;124,553343685533;6,8511962890625E-09;-0,249420166015625;3;235;1,14748179912567E-07;-1,17060616612434E-07;100 nA
-0,2001953125;125,053831684269;7,0556640625E-09;-0,19952392578125;3;236;1,14748179912567E-07;-1,17060616612434E-07;100 nA
-0,150146484375;125,554319683006;7,2509765625E-09;-0,14959716796875;3;237;1,14748179912567E-07;-1,17060616612434E-07;100 nA
-0,10009765625;126,054807681742;7,40966796875E-09;-0,099700927734375;3;238;1,14748179912567E-07;-1,17060616612434E-07;100 nA
-0,050048828125;126,555295680479;7,4981689453125E-09;-0,0498046875;3;239;1,14748179912567E-07;-1,17060616612434E-07;100 nA
0;127,055783679215;6,97021484375E-09;9,46044921874972E-05;3;240;1,14748179912567E-07;-1,17060616612434E-07;100 nA
0,050048828125;127,556271677951;6,25E-09;0,050048828125;4;241;1,13698877394199E-07;-1,15795955061913E-07;100 nA
0,10009765625;128,056759676688;6,18896484375E-09;0,100067138671875;4;242;1,13698877394199E-07;-1,15795955061913E-07;100 nA
0,150146484375;128,557247675424;6,3262939453125E-09;0,150115966796875;4;243;1,13698877394199E-07;-1,15795955061913E-07;100 nA
0,2001953125;129,057735674161;6,53076171875E-09;0,2000732421875;4;244;1,13698877394199E-07;-1,15795955061913E-07;100 nA
0,250244140625;129,558223672897;6,6925048828125E-09;0,250091552734375;4;245;1,13698877394199E-07;-1,15795955061913E-07;100 nA
0,30029296875;130,058711671633;6,87255859375E-09;0,300140380859375;4;246;1,13698877394199E-07;-1,15795955061913E-07;100 nA
0,350341796875;130,55919967037;7,0831298828125E-09;0,35015869140625;4;247;1,13698877394199E-07;-1,15795955061913E-07;100 nA
0,400390625;131,059687669106;7,3394775390625E-09;0,400177001953125;4;248;1,13698877394199E-07;-1,15795955061913E-07;100 nA
0,450439453125;131,560175667842;7,5927734375E-09;0,4500732421875;4;249;1,13698877394199E-07;-1,15795955061913E-07;100 nA
0,50048828125;132,060663666579;7,7850341796875E-09;0,5001220703125;4;250;1,13698877394199E-07;-1,15795955061913E-07;100 nA
0,550537109375;132,561151665315;7,867431640625E-09;0,550079345703125;4;251;1,13698877394199E-07;-1,15795955061913E-07;100 nA
0,6005859375;133,061639664052;7,8460693359375E-09;0,60009765625;4;252;1,13698877394199E-07;-1,15795955061913E-07;100 nA
0,650634765625;133,562127662788;7,7056884765625E-09;0,6500244140625;4;253;1,13698877394199E-07;-1,15795955061913E-07;100 nA
0,70068359375;134,062615661524;7,5286865234375E-09;0,699920654296875;4;254;1,13698877394199E-07;-1,15795955061913E-07;100 nA
0,750732421875;134,563103660261;7,3822021484375E-09;0,7498779296875;4;255;1,13698877394199E-07;-1,15795955061913E-07;100 nA
0,80078125;135,063591658997;7,28759765625E-09;0,80047607421875;4;256;1,13698877394199E-07;-1,15795955061913E-07;100 nA
0,850830078125;135,564079657734;7,2113037109375E-09;0,8502197265625;4;257;1,13698877394199E-07;-1,15795955061913E-07;100 nA
0,90087890625;136,06456765647;7,16552734375E-09;0,89996337890625;4;258;1,13698877394199E-07;-1,15795955061913E-07;100 nA
0,950927734375;136,565055655206;7,232666015625E-09;0,94970703125;4;259;1,13698877394199E-07;-1,15795955061913E-07;100 nA
1,0009765625;137,065543653943;7,318115234375E-09;1,00006103515625;4;260;1,13698877394199E-07;-1,15795955061913E-07;100 nA
0,950927734375;137,566031652679;4,4769287109375E-09;0,94970703125;4;261;1,13698877394199E-07;-1,15795955061913E-07;100 nA
0,90087890625;138,066519651416;2,874755859375E-09;0,89935302734375;4;262;1,13698877394199E-07;-1,15795955061913E-07;100 nA
0,850830078125;138,567007650152;1,7669677734375E-09;0,8502197265625;4;263;1,13698877394199E-07;-1,15795955061913E-07;100 nA
0,80078125;139,067495648888;1,03759765625E-09;0,8001708984375;4;264;1,13698877394199E-07;-1,15795955061913E-07;100 nA
0,750732421875;139,567983647625;4,180908203125E-10;0,7498779296875;4;265;1,13698877394199E-07;-1,15795955061913E-07;100 nA
0,70068359375;140,068471646361;-1,3427734375E-10;0,699981689453125;4;266;1,13698877394199E-07;-1,15795955061913E-07;100 nA
0,650634765625;140,568959645097;-6,439208984375E-10;0,650115966796875;4;267;1,13698877394199E-07;-1,15795955061913E-07;100 nA
0,6005859375;141,069447643834;-1,1260986328125E-09;0,600128173828125;4;268;1,13698877394199E-07;-1,15795955061913E-07;100 nA
0,550537109375;141,56993564257;-1,6937255859375E-09;0,550079345703125;4;269;1,13698877394199E-07;-1,15795955061913E-07;100 nA
0,50048828125;142,070423641307;-2,2705078125E-09;0,5001220703125;4;270;1,13698877394199E-07;-1,15795955061913E-07;100 nA
0,450439453125;142,570911640043;-2,96630859375E-09;0,45013427734375;4;271;1,13698877394199E-07;-1,15795955061913E-07;100 nA
0,400390625;143,071399638779;-3,582763671875E-09;0,400177001953125;4;272;1,13698877394199E-07;-1,15795955061913E-07;100 nA
0,350341796875;143,571887637516;-4,1839599609375E-09;0,350189208984375;4;273;1,13698877394199E-07;-1,15795955061913E-07;100 nA
0,30029296875;144,072375636252;-4,74853515625E-09;0,300140380859375;4;274;1,13698877394199E-07;-1,15795955061913E-07;100 nA
0,250244140625;144,572863634989;-5,279541015625E-09;0,2501220703125;4;275;1,13698877394199E-07;-1,15795955061913E-07;100 nA
0,2001953125;145,073351633725;-5,6396484375E-09;0,200103759765625;4;276;1,13698877394199E-07;-1,15795955061913E-07;100 nA
0,150146484375;145,573839632461;-5,8807373046875E-09;0,150115966796875;4;277;1,13698877394199E-07;-1,15795955061913E-07;100 nA
0,10009765625;146,074327631198;-6,1492919921875E-09;0,10015869140625;4;278;1,13698877394199E-07;-1,15795955061913E-07;100 nA
0,050048828125;146,574815629934;-6,4178466796875E-09;0,05010986328125;4;279;1,13698877394199E-07;-1,15795955061913E-07;100 nA
0;147,075303628671;-6,8572998046875E-09;0,000149536132812503;4;280;1,13698877394199E-07;-1,15795955061913E-07;100 nA
-0,050048828125;147,575791627407;-7,6934814453125E-09;-0,04970703125;4;281;1,13698877394199E-07;-1,15795955061913E-07;100 nA
-0,10009765625;148,076279626143;-7,5775146484375E-09;-0,09967041015625;4;282;1,13698877394199E-07;-1,15795955061913E-07;100 nA
-0,150146484375;148,57676762488;-5,92041015625E-09;-0,149505615234375;4;283;1,13698877394199E-07;-1,15795955061913E-07;100 nA
-0,2001953125;149,077255623616;-5,9967041015625E-09;-0,199432373046875;4;284;1,13698877394199E-07;-1,15795955061913E-07;100 nA
-0,250244140625;149,577743622353;-6,50634765625E-09;-0,24932861328125;4;285;1,13698877394199E-07;-1,15795955061913E-07;100 nA
-0,30029296875;150,078231621089;-6,964111328125E-09;-0,29913330078125;4;286;1,13698877394199E-07;-1,15795955061913E-07;100 nA
-0,350341796875;150,578719619825;-7,305908203125E-09;-0,34918212890625;4;287;1,13698877394199E-07;-1,15795955061913E-07;100 nA
-0,400390625;151,079207618562;-7,5225830078125E-09;-0,399017333984375;4;288;1,13698877394199E-07;-1,15795955061913E-07;100 nA
-0,450439453125;151,579695617298;-7,666015625E-09;-0,449005126953125;4;289;1,13698877394199E-07;-1,15795955061913E-07;100 nA
-0,50048828125;152,080183616034;-7,8460693359375E-09;-0,498870849609375;4;290;1,13698877394199E-07;-1,15795955061913E-07;100 nA
-0,550537109375;152,580671614771;-8,06884765625E-09;-0,54876708984375;4;291;1,13698877394199E-07;-1,15795955061913E-07;100 nA
-0,6005859375;153,081159613507;-8,30078125E-09;-0,5986328125;4;292;1,13698877394199E-07;-1,15795955061913E-07;100 nA
-0,650634765625;153,581647612244;-8,50830078125E-09;-0,6485595703125;4;293;1,13698877394199E-07;-1,15795955061913E-07;100 nA
-0,70068359375;154,08213561098;-8,7066650390625E-09;-0,69854736328125;4;294;1,13698877394199E-07;-1,15795955061913E-07;100 nA
-0,750732421875;154,582623609716;-8,8897705078125E-09;-0,748626708984375;4;295;1,13698877394199E-07;-1,15795955061913E-07;100 nA
-0,80078125;155,083111608453;-9,0301513671875E-09;-0,7989501953125;4;296;1,13698877394199E-07;-1,15795955061913E-07;100 nA
-0,850830078125;155,583599607189;-9,1644287109375E-09;-0,84869384765625;4;297;1,13698877394199E-07;-1,15795955061913E-07;100 nA
-0,90087890625;156,084087605926;-9,271240234375E-09;-0,8984375;4;298;1,13698877394199E-07;-1,15795955061913E-07;100 nA
-0,950927734375;156,584575604662;-9,417724609375E-09;-0,9490966796875;4;299;1,13698877394199E-07;-1,15795955061913E-07;100 nA
-1,0009765625;157,085063603398;-9,613037109375E-09;-0,99884033203125;4;300;1,13698877394199E-07;-1,15795955061913E-07;100 nA
-0,950927734375;157,585551602135;-6,060791015625E-09;-0,94940185546875;4;301;1,13698877394199E-07;-1,15795955061913E-07;100 nA
-0,90087890625;158,086039600871;-3,91845703125E-09;-0,8990478515625;4;302;1,13698877394199E-07;-1,15795955061913E-07;100 nA
-0,850830078125;158,586527599608;-2,3651123046875E-09;-0,84869384765625;4;303;1,13698877394199E-07;-1,15795955061913E-07;100 nA
-0,80078125;159,087015598344;-1,20849609375E-09;-0,79864501953125;4;304;1,13698877394199E-07;-1,15795955061913E-07;100 nA
-0,750732421875;159,58750359708;-2,685546875E-10;-0,7486572265625;4;305;1,13698877394199E-07;-1,15795955061913E-07;100 nA
-0,70068359375;160,087991595817;5,279541015625E-10;-0,69866943359375;4;306;1,13698877394199E-07;-1,15795955061913E-07;100 nA
-0,650634765625;160,588479594553;1,2939453125E-09;-0,648681640625;4;307;1,13698877394199E-07;-1,15795955061913E-07;100 nA
-0,6005859375;161,088967593289;2,0355224609375E-09;-0,598785400390625;4;308;1,13698877394199E-07;-1,15795955061913E-07;100 nA
-0,550537109375;161,589455592026;2,679443359375E-09;-0,548858642578125;4;309;1,13698877394199E-07;-1,15795955061913E-07;100 nA
-0,50048828125;162,089943590762;3,350830078125E-09;-0,49896240234375;4;310;1,13698877394199E-07;-1,15795955061913E-07;100 nA
-0,450439453125;162,590431589499;4,01611328125E-09;-0,449066162109375;4;311;1,13698877394199E-07;-1,15795955061913E-07;100 nA
-0,400390625;163,090919588235;4,7607421875E-09;-0,39910888671875;4;312;1,13698877394199E-07;-1,15795955061913E-07;100 nA
-0,350341796875;163,591407586971;5,7037353515625E-09;-0,349273681640625;4;313;1,13698877394199E-07;-1,15795955061913E-07;100 nA
-0,30029296875;164,091895585708;6,451416015625E-09;-0,299285888671875;4;314;1,13698877394199E-07;-1,15795955061913E-07;100 nA
-0,250244140625;164,592383584444;6,8023681640625E-09;-0,249359130859375;4;315;1,13698877394199E-07;-1,15795955061913E-07;100 nA
-0,2001953125;165,092871583181;7,0098876953125E-09;-0,199554443359375;4;316;1,13698877394199E-07;-1,15795955061913E-07;100 nA
-0,150146484375;165,593359581917;7,196044921875E-09;-0,149627685546875;4;317;1,13698877394199E-07;-1,15795955061913E-07;100 nA
-0,10009765625;166,093847580653;7,354736328125E-09;-0,09979248046875;4;318;1,13698877394199E-07;-1,15795955061913E-07;100 nA
-0,050048828125;166,59433557939;7,373046875E-09;-0,049835205078125;4;319;1,13698877394199E-07;-1,15795955061913E-07;100 nA
0;167,094823578126;6,8389892578125E-09;8,85009765625028E-05;4;320;1,13698877394199E-07;-1,15795955061913E-07;100 nA
0,050048828125;167,595311576863;6,195068359375E-09;0,050079345703125;5;321;1,13850086927414E-07;-1,15105584263802E-07;100 nA
0,10009765625;168,095799575599;6,146240234375E-09;0,100067138671875;5;322;1,13850086927414E-07;-1,15105584263802E-07;100 nA
0,150146484375;168,596287574335;6,2713623046875E-09;0,150054931640625;5;323;1,13850086927414E-07;-1,15105584263802E-07;100 nA
0,2001953125;169,096775573072;6,4178466796875E-09;0,2000732421875;5;324;1,13850086927414E-07;-1,15105584263802E-07;100 nA
0,250244140625;169,597263571808;6,6192626953125E-09;0,250091552734375;5;325;1,13850086927414E-07;-1,15105584263802E-07;100 nA
0,30029296875;170,097751570544;6,829833984375E-09;0,300079345703125;5;326;1,13850086927414E-07;-1,15105584263802E-07;100 nA
0,350341796875;170,598239569281;7,061767578125E-09;0,35015869140625;5;327;1,13850086927414E-07;-1,15105584263802E-07;100 nA
0,400390625;171,098727568017;7,330322265625E-09;0,400146484375;5;328;1,13850086927414E-07;-1,15105584263802E-07;100 nA
0,450439453125;171,599215566754;7,5653076171875E-09;0,450103759765625;5;329;1,13850086927414E-07;-1,15105584263802E-07;100 nA
0,50048828125;172,09970356549;7,733154296875E-09;0,500152587890625;5;330;1,13850086927414E-07;-1,15105584263802E-07;100 nA
0,550537109375;172,600191564226;7,8033447265625E-09;0,550140380859375;5;331;1,13850086927414E-07;-1,15105584263802E-07;100 nA
0,6005859375;173,100679562963;7,7789306640625E-09;0,600189208984375;5;332;1,13850086927414E-07;-1,15105584263802E-07;100 nA
0,650634765625;173,601167561699;7,666015625E-09;0,650054931640625;5;333;1,13850086927414E-07;-1,15105584263802E-07;100 nA
0,70068359375;174,101655560436;7,501220703125E-09;0,699951171875;5;334;1,13850086927414E-07;-1,15105584263802E-07;100 nA
0,750732421875;174,602143559172;7,3883056640625E-09;0,749908447265625;5;335;1,13850086927414E-07;-1,15105584263802E-07;100 nA
0,80078125;175,102631557908;7,3211669921875E-09;0,8001708984375;5;336;1,13850086927414E-07;-1,15105584263802E-07;100 nA
0,850830078125;175,603119556645;7,2296142578125E-09;0,84991455078125;5;337;1,13850086927414E-07;-1,15105584263802E-07;100 nA
0,90087890625;176,103607555381;7,208251953125E-09;0,89935302734375;5;338;1,13850086927414E-07;-1,15105584263802E-07;100 nA
0,950927734375;176,604095554118;7,2052001953125E-09;0,94940185546875;5;339;1,13850086927414E-07;-1,15105584263802E-07;100 nA
1,0009765625;177,104583552854;7,330322265625E-09;0,9991455078125;5;340;1,13850086927414E-07;-1,15105584263802E-07;100 nA
0,950927734375;177,60507155159;4,5074462890625E-09;0,95001220703125;5;341;1,13850086927414E-07;-1,15105584263802E-07;100 nA
0,90087890625;178,105559550327;2,89306640625E-09;0,899658203125;5;342;1,13850086927414E-07;-1,15105584263802E-07;100 nA
0,850830078125;178,606047549063;1,8768310546875E-09;0,8502197265625;5;343;1,13850086927414E-07;-1,15105584263802E-07;100 nA
0,80078125;179,106535547799;1,080322265625E-09;0,79986572265625;5;344;1,13850086927414E-07;-1,15105584263802E-07;100 nA
0,750732421875;179,607023546536;4,791259765625E-10;0,749969482421875;5;345;1,13850086927414E-07;-1,15105584263802E-07;100 nA
0,70068359375;180,107511545272;-3,662109375E-11;0,70001220703125;5;346;1,13850086927414E-07;-1,15105584263802E-07;100 nA
0,650634765625;180,607999544009;-5,218505859375E-10;0,650115966796875;5;347;1,13850086927414E-07;-1,15105584263802E-07;100 nA
0,6005859375;181,108487542745;-1,0223388671875E-09;0,60009765625;5;348;1,13850086927414E-07;-1,15105584263802E-07;100 nA
0,550537109375;181,608975541481;-1,5716552734375E-09;0,5501708984375;5;349;1,13850086927414E-07;-1,15105584263802E-07;100 nA
0,50048828125;182,109463540218;-2,191162109375E-09;0,500152587890625;5;350;1,13850086927414E-07;-1,15105584263802E-07;100 nA
0,450439453125;182,609951538954;-2,880859375E-09;0,450164794921875;5;351;1,13850086927414E-07;-1,15105584263802E-07;100 nA
0,400390625;183,110439537691;-3,55224609375E-09;0,400146484375;5;352;1,13850086927414E-07;-1,15105584263802E-07;100 nA
0,350341796875;183,610927536427;-4,1748046875E-09;0,35015869140625;5;353;1,13850086927414E-07;-1,15105584263802E-07;100 nA
0,30029296875;184,111415535163;-4,754638671875E-09;0,300079345703125;5;354;1,13850086927414E-07;-1,15105584263802E-07;100 nA
0,250244140625;184,6119035339;-5,28564453125E-09;0,250152587890625;5;355;1,13850086927414E-07;-1,15105584263802E-07;100 nA
0,2001953125;185,112391532636;-5,6488037109375E-09;0,200103759765625;5;356;1,13850086927414E-07;-1,15105584263802E-07;100 nA
0,150146484375;185,612879531373;-5,9112548828125E-09;0,15008544921875;5;357;1,13850086927414E-07;-1,15105584263802E-07;100 nA
0,10009765625;186,113367530109;-6,1737060546875E-09;0,10009765625;5;358;1,13850086927414E-07;-1,15105584263802E-07;100 nA
0,050048828125;186,613855528845;-6,45751953125E-09;0,050140380859375;5;359;1,13850086927414E-07;-1,15105584263802E-07;100 nA
0;187,114343527582;-6,87255859375E-09;0,000143432617187494;5;360;1,13850086927414E-07;-1,15105584263802E-07;100 nA
-0,050048828125;187,614831526318;-7,4981689453125E-09;-0,049774169921875;5;361;1,13850086927414E-07;-1,15105584263802E-07;100 nA
-0,10009765625;188,115319525054;-7,196044921875E-09;-0,099700927734375;5;362;1,13850086927414E-07;-1,15105584263802E-07;100 nA
-0,150146484375;188,615807523791;-5,8868408203125E-09;-0,149566650390625;5;363;1,13850086927414E-07;-1,15105584263802E-07;100 nA
-0,2001953125;189,116295522527;-6,1248779296875E-09;-0,199462890625;5;364;1,13850086927414E-07;-1,15105584263802E-07;100 nA
-0,250244140625;189,616783521264;-6,6650390625E-09;-0,2493896484375;5;365;1,13850086927414E-07;-1,15105584263802E-07;100 nA
-0,30029296875;190,11727152;-7,1197509765625E-09;-0,299285888671875;5;366;1,13850086927414E-07;-1,15105584263802E-07;100 nA
-0,350341796875;190,617759518736;-7,4432373046875E-09;-0,349212646484375;5;367;1,13850086927414E-07;-1,15105584263802E-07;100 nA
-0,400390625;191,118247517473;-7,5714111328125E-09;-0,3990478515625;5;368;1,13850086927414E-07;-1,15105584263802E-07;100 nA
-0,450439453125;191,618735516209;-7,745361328125E-09;-0,448974609375;5;369;1,13850086927414E-07;-1,15105584263802E-07;100 nA
-0,50048828125;192,119223514946;-7,9132080078125E-09;-0,498809814453125;5;370;1,13850086927414E-07;-1,15105584263802E-07;100 nA
-0,550537109375;192,619711513682;-8,135986328125E-09;-0,54876708984375;5;371;1,13850086927414E-07;-1,15105584263802E-07;100 nA
-0,6005859375;193,120199512418;-8,3465576171875E-09;-0,598663330078125;5;372;1,13850086927414E-07;-1,15105584263802E-07;100 nA
-0,650634765625;193,620687511155;-8,5540771484375E-09;-0,648590087890625;5;373;1,13850086927414E-07;-1,15105584263802E-07;100 nA
-0,70068359375;194,121175509891;-8,7432861328125E-09;-0,69854736328125;5;374;1,13850086927414E-07;-1,15105584263802E-07;100 nA
-0,750732421875;194,621663508628;-8,88671875E-09;-0,748626708984375;5;375;1,13850086927414E-07;-1,15105584263802E-07;100 nA
-0,80078125;195,122151507364;-8,953857421875E-09;-0,7989501953125;5;376;1,13850086927414E-07;-1,15105584263802E-07;100 nA
-0,850830078125;195,6226395061;-9,0728759765625E-09;-0,848388671875;5;377;1,13850086927414E-07;-1,15105584263802E-07;100 nA
-0,90087890625;196,123127504837;-9,1583251953125E-09;-0,8984375;5;378;1,13850086927414E-07;-1,15105584263802E-07;100 nA
-0,950927734375;196,623615503573;-9,307861328125E-09;-0,94879150390625;5;379;1,13850086927414E-07;-1,15105584263802E-07;100 nA
-1,0009765625;197,124103502309;-9,478759765625E-09;-0,99884033203125;5;380;1,13850086927414E-07;-1,15105584263802E-07;100 nA
-0,950927734375;197,624591501046;-5,914306640625E-09;-0,94940185546875;5;381;1,13850086927414E-07;-1,15105584263802E-07;100 nA
-0,90087890625;198,125079499782;-3,7872314453125E-09;-0,8990478515625;5;382;1,13850086927414E-07;-1,15105584263802E-07;100 nA
-0,850830078125;198,625567498519;-2,25830078125E-09;-0,848388671875;5;383;1,13850086927414E-07;-1,15105584263802E-07;100 nA
-0,80078125;199,126055497255;-1,0772705078125E-09;-0,7989501953125;5;384;1,13850086927414E-07;-1,15105584263802E-07;100 nA
-0,750732421875;199,626543495991;-9,1552734375E-11;-0,748626708984375;5;385;1,13850086927414E-07;-1,15105584263802E-07;100 nA
-0,70068359375;200,127031494728;7,476806640625E-10;-0,698638916015625;5;386;1,13850086927414E-07;-1,15105584263802E-07;100 nA
-0,650634765625;200,627519493464;1,46484375E-09;-0,648651123046875;5;387;1,13850086927414E-07;-1,15105584263802E-07;100 nA
-0,6005859375;201,128007492201;2,1392822265625E-09;-0,59869384765625;5;388;1,13850086927414E-07;-1,15105584263802E-07;100 nA
-0,550537109375;201,628495490937;2,8076171875E-09;-0,548797607421875;5;389;1,13850086927414E-07;-1,15105584263802E-07;100 nA
-0,50048828125;202,128983489673;3,4393310546875E-09;-0,498870849609375;5;390;1,13850086927414E-07;-1,15105584263802E-07;100 nA
-0,450439453125;202,62947148841;4,083251953125E-09;-0,449005126953125;5;391;1,13850086927414E-07;-1,15105584263802E-07;100 nA
-0,400390625;203,129959487146;4,82177734375E-09;-0,399139404296875;5;392;1,13850086927414E-07;-1,15105584263802E-07;100 nA
-0,350341796875;203,630447485883;5,694580078125E-09;-0,349273681640625;5;393;1,13850086927414E-07;-1,15105584263802E-07;100 nA
-0,30029296875;204,130935484619;6,4971923828125E-09;-0,299346923828125;5;394;1,13850086927414E-07;-1,15105584263802E-07;100 nA
-0,250244140625;204,631423483355;6,8389892578125E-09;-0,24945068359375;5;395;1,13850086927414E-07;-1,15105584263802E-07;100 nA
-0,2001953125;205,131911482092;7,049560546875E-09;-0,199554443359375;5;396;1,13850086927414E-07;-1,15105584263802E-07;100 nA
-0,150146484375;205,632399480828;7,21435546875E-09;-0,149627685546875;5;397;1,13850086927414E-07;-1,15105584263802E-07;100 nA
-0,10009765625;206,132887479564;7,3577880859375E-09;-0,0997314453125;5;398;1,13850086927414E-07;-1,15105584263802E-07;100 nA
-0,050048828125;206,633375478301;7,2662353515625E-09;-0,049835205078125;5;399;1,13850086927414E-07;-1,15105584263802E-07;100 nA
0;207,133863477037;6,6162109375E-09;9,76562499999944E-05;5;400;1,13850086927414E-07;-1,15105584263802E-07;100 nA
0,050048828125;207,634351475774;6,0577392578125E-09;0,050079345703125;6;401;1,11908800899982E-07;-1,13767609000206E-07;100 nA
0,10009765625;208,13483947451;6,005859375E-09;0,100006103515625;6;402;1,11908800899982E-07;-1,13767609000206E-07;100 nA
0,150146484375;208,635327473246;6,14013671875E-09;0,15008544921875;6;403;1,11908800899982E-07;-1,13767609000206E-07;100 nA
0,2001953125;209,135815471983;6,2652587890625E-09;0,20001220703125;6;404;1,11908800899982E-07;-1,13767609000206E-07;100 nA
0,250244140625;209,636303470719;6,4422607421875E-09;0,250030517578125;6;405;1,11908800899982E-07;-1,13767609000206E-07;100 nA
0,30029296875;210,136791469456;6,640625E-09;0,30010986328125;6;406;1,11908800899982E-07;-1,13767609000206E-07;100 nA
0,350341796875;210,637279468192;6,9000244140625E-09;0,350128173828125;6;407;1,11908800899982E-07;-1,13767609000206E-07;100 nA
0,400390625;211,137767466928;7,1533203125E-09;0,400054931640625;6;408;1,11908800899982E-07;-1,13767609000206E-07;100 nA
0,450439453125;211,638255465665;7,391357421875E-09;0,450103759765625;6;409;1,11908800899982E-07;-1,13767609000206E-07;100 nA
0,50048828125;212,138743464401;7,586669921875E-09;0,5001220703125;6;410;1,11908800899982E-07;-1,13767609000206E-07;100 nA
0,550537109375;212,639231463138;7,666015625E-09;0,550048828125;6;411;1,11908800899982E-07;-1,13767609000206E-07;100 nA
0,6005859375;213,139719461874;7,623291015625E-09;0,600128173828125;6;412;1,11908800899982E-07;-1,13767609000206E-07;100 nA
0,650634765625;213,64020746061;7,5042724609375E-09;0,650054931640625;6;413;1,11908800899982E-07;-1,13767609000206E-07;100 nA
0,70068359375;214,140695459347;7,40966796875E-09;0,699920654296875;6;414;1,11908800899982E-07;-1,13767609000206E-07;100 nA
0,750732421875;214,641183458083;7,2601318359375E-09;0,749847412109375;6;415;1,11908800899982E-07;-1,13767609000206E-07;100 nA
0,80078125;215,141671456819;7,1533203125E-09;0,8001708984375;6;416;1,11908800899982E-07;-1,13767609000206E-07;100 nA
0,850830078125;215,642159455556;7,1075439453125E-09;0,849609375;6;417;1,11908800899982E-07;-1,13767609000206E-07;100 nA
0,90087890625;216,142647454292;7,1044921875E-09;0,89996337890625;6;418;1,11908800899982E-07;-1,13767609000206E-07;100 nA
0,950927734375;216,643135453029;7,1624755859375E-09;0,94970703125;6;419;1,11908800899982E-07;-1,13767609000206E-07;100 nA
1,0009765625;217,143623451765;7,32421875E-09;1,00006103515625;6;420;1,11908800899982E-07;-1,13767609000206E-07;100 nA
0,950927734375;217,644111450501;4,4891357421875E-09;0,94940185546875;6;421;1,11908800899982E-07;-1,13767609000206E-07;100 nA
0,90087890625;218,144599449238;2,862548828125E-09;0,899658203125;6;422;1,11908800899982E-07;-1,13767609000206E-07;100 nA
0,850830078125;218,645087447974;1,800537109375E-09;0,84991455078125;6;423;1,11908800899982E-07;-1,13767609000206E-07;100 nA
0,80078125;219,145575446711;1,007080078125E-09;0,8001708984375;6;424;1,11908800899982E-07;-1,13767609000206E-07;100 nA
0,750732421875;219,646063445447;4,608154296875E-10;0,749908447265625;6;425;1,11908800899982E-07;-1,13767609000206E-07;100 nA
0,70068359375;220,146551444183;-6,40869140625E-11;0,699981689453125;6;426;1,11908800899982E-07;-1,13767609000206E-07;100 nA
0,650634765625;220,64703944292;-5,584716796875E-10;0,65008544921875;6;427;1,11908800899982E-07;-1,13767609000206E-07;100 nA
0,6005859375;221,147527441656;-1,068115234375E-09;0,600189208984375;6;428;1,11908800899982E-07;-1,13767609000206E-07;100 nA
0,550537109375;221,648015440393;-1,6265869140625E-09;0,5501708984375;6;429;1,11908800899982E-07;-1,13767609000206E-07;100 nA
0,50048828125;222,148503439129;-2,2247314453125E-09;0,5001220703125;6;430;1,11908800899982E-07;-1,13767609000206E-07;100 nA
0,450439453125;222,648991437865;-2,89306640625E-09;0,450164794921875;6;431;1,11908800899982E-07;-1,13767609000206E-07;100 nA
0,400390625;223,149479436602;-3,5614013671875E-09;0,400146484375;6;432;1,11908800899982E-07;-1,13767609000206E-07;100 nA
0,350341796875;223,649967435338;-4,1229248046875E-09;0,35015869140625;6;433;1,11908800899982E-07;-1,13767609000206E-07;100 nA
0,30029296875;224,150455434075;-4,7271728515625E-09;0,300140380859375;6;434;1,11908800899982E-07;-1,13767609000206E-07;100 nA
0,250244140625;224,650943432811;-5,303955078125E-09;0,250091552734375;6;435;1,11908800899982E-07;-1,13767609000206E-07;100 nA
0,2001953125;225,151431431547;-5,65185546875E-09;0,20013427734375;6;436;1,11908800899982E-07;-1,13767609000206E-07;100 nA
0,150146484375;225,651919430284;-5,9295654296875E-09;0,150115966796875;6;437;1,11908800899982E-07;-1,13767609000206E-07;100 nA
0,10009765625;226,15240742902;-6,1431884765625E-09;0,100067138671875;6;438;1,11908800899982E-07;-1,13767609000206E-07;100 nA
0,050048828125;226,652895427756;-6,414794921875E-09;0,05010986328125;6;439;1,11908800899982E-07;-1,13767609000206E-07;100 nA
0;227,153383426493;-6,719970703125E-09;0,000149536132812503;6;440;1,11908800899982E-07;-1,13767609000206E-07;100 nA
-0,050048828125;227,653871425229;-7,177734375E-09;-0,04974365234375;6;441;1,11908800899982E-07;-1,13767609000206E-07;100 nA
-0,10009765625;228,154359423966;-6,6864013671875E-09;-0,099700927734375;6;442;1,11908800899982E-07;-1,13767609000206E-07;100 nA
-0,150146484375;228,654847422702;-5,743408203125E-09;-0,14959716796875;6;443;1,11908800899982E-07;-1,13767609000206E-07;100 nA
-0,2001953125;229,155335421438;-6,005859375E-09;-0,199493408203125;6;444;1,11908800899982E-07;-1,13767609000206E-07;100 nA
-0,250244140625;229,655823420175;-6,5399169921875E-09;-0,24932861328125;6;445;1,11908800899982E-07;-1,13767609000206E-07;100 nA
-0,30029296875;230,156311418911;-6,9793701171875E-09;-0,29925537109375;6;446;1,11908800899982E-07;-1,13767609000206E-07;100 nA
-0,350341796875;230,656799417648;-7,2509765625E-09;-0,349212646484375;6;447;1,11908800899982E-07;-1,13767609000206E-07;100 nA
-0,400390625;231,157287416384;-7,4371337890625E-09;-0,399139404296875;6;448;1,11908800899982E-07;-1,13767609000206E-07;100 nA
-0,450439453125;231,65777541512;-7,5897216796875E-09;-0,448944091796875;6;449;1,11908800899982E-07;-1,13767609000206E-07;100 nA
-0,50048828125;232,158263413857;-7,818603515625E-09;-0,498809814453125;6;450;1,11908800899982E-07;-1,13767609000206E-07;100 nA
-0,550537109375;232,658751412593;-8,0322265625E-09;-0,5487060546875;6;451;1,11908800899982E-07;-1,13767609000206E-07;100 nA
-0,6005859375;233,15923941133;-8,2794189453125E-09;-0,5986328125;6;452;1,11908800899982E-07;-1,13767609000206E-07;100 nA
-0,650634765625;233,659727410066;-8,477783203125E-09;-0,6485595703125;6;453;1,11908800899982E-07;-1,13767609000206E-07;100 nA
-0,70068359375;234,160215408802;-8,6883544921875E-09;-0,698577880859375;6;454;1,11908800899982E-07;-1,13767609000206E-07;100 nA
-0,750732421875;234,660703407539;-8,8287353515625E-09;-0,748626708984375;6;455;1,11908800899982E-07;-1,13767609000206E-07;100 nA
-0,80078125;235,161191406275;-8,9263916015625E-09;-0,79833984375;6;456;1,11908800899982E-07;-1,13767609000206E-07;100 nA
-0,850830078125;235,661679405011;-8,990478515625E-09;-0,848388671875;6;457;1,11908800899982E-07;-1,13767609000206E-07;100 nA
-0,90087890625;236,162167403748;-9,0606689453125E-09;-0,8984375;6;458;1,11908800899982E-07;-1,13767609000206E-07;100 nA
-0,950927734375;236,662655402484;-9,197998046875E-09;-0,94879150390625;6;459;1,11908800899982E-07;-1,13767609000206E-07;100 nA
-1,0009765625;237,163143401221;-9,41162109375E-09;-0,9991455078125;6;460;1,11908800899982E-07;-1,13767609000206E-07;100 nA
-0,950927734375;237,663631399957;-5,8746337890625E-09;-0,94879150390625;6;461;1,11908800899982E-07;-1,13767609000206E-07;100 nA
-0,90087890625;238,164119398693;-3,759765625E-09;-0,89874267578125;6;462;1,11908800899982E-07;-1,13767609000206E-07;100 nA
-0,850830078125;238,66460739743;-2,2674560546875E-09;-0,8489990234375;6;463;1,11908800899982E-07;-1,13767609000206E-07;100 nA
-0,80078125;239,165095396166;-1,1138916015625E-09;-0,79864501953125;6;464;1,11908800899982E-07;-1,13767609000206E-07;100 nA
-0,750732421875;239,665583394903;-1,64794921875E-10;-0,74859619140625;6;465;1,11908800899982E-07;-1,13767609000206E-07;100 nA
-0,70068359375;240,166071393639;6,34765625E-10;-0,698699951171875;6;466;1,11908800899982E-07;-1,13767609000206E-07;100 nA
-0,650634765625;240,666559392375;1,3824462890625E-09;-0,64862060546875;6;467;1,11908800899982E-07;-1,13767609000206E-07;100 nA
-0,6005859375;241,167047391112;2,0751953125E-09;-0,5987548828125;6;468;1,11908800899982E-07;-1,13767609000206E-07;100 nA
-0,550537109375;241,667535389848;2,7435302734375E-09;-0,548797607421875;6;469;1,11908800899982E-07;-1,13767609000206E-07;100 nA
-0,50048828125;242,168023388585;3,4088134765625E-09;-0,4989013671875;6;470;1,11908800899982E-07;-1,13767609000206E-07;100 nA
-0,450439453125;242,668511387321;4,0435791015625E-09;-0,449005126953125;6;471;1,11908800899982E-07;-1,13767609000206E-07;100 nA
-0,400390625;243,168999386057;4,736328125E-09;-0,399139404296875;6;472;1,11908800899982E-07;-1,13767609000206E-07;100 nA
-0,350341796875;243,669487384794;5,6365966796875E-09;-0,349273681640625;6;473;1,11908800899982E-07;-1,13767609000206E-07;100 nA
-0,30029296875;244,16997538353;6,451416015625E-09;-0,299285888671875;6;474;1,11908800899982E-07;-1,13767609000206E-07;100 nA
-0,250244140625;244,670463382266;6,829833984375E-09;-0,249420166015625;6;475;1,11908800899982E-07;-1,13767609000206E-07;100 nA
-0,2001953125;245,170951381003;7,03125E-09;-0,19952392578125;6;476;1,11908800899982E-07;-1,13767609000206E-07;100 nA
-0,150146484375;245,671439379739;7,220458984375E-09;-0,149658203125;6;477;1,11908800899982E-07;-1,13767609000206E-07;100 nA
-0,10009765625;246,171927378476;7,3211669921875E-09;-0,099761962890625;6;478;1,11908800899982E-07;-1,13767609000206E-07;100 nA
-0,050048828125;246,672415377212;7,122802734375E-09;-0,049896240234375;6;479;1,11908800899982E-07;-1,13767609000206E-07;100 nA
0;247,172903375948;6,4422607421875E-09;0,000100708007812506;6;480;1,11908800899982E-07;-1,13767609000206E-07;100 nA
0,050048828125;247,673391374685;5,999755859375E-09;0,050048828125;7;481;1,10696069896221E-07;-1,12163871526718E-07;100 nA
0,10009765625;248,173879373421;5,96923828125E-09;0,10003662109375;7;482;1,10696069896221E-07;-1,12163871526718E-07;100 nA
0,150146484375;248,674367372158;6,0546875E-09;0,15008544921875;7;483;1,10696069896221E-07;-1,12163871526718E-07;100 nA
0,2001953125;249,174855370894;6,195068359375E-09;0,200042724609375;7;484;1,10696069896221E-07;-1,12163871526718E-07;100 nA
0,250244140625;249,67534336963;6,3568115234375E-09;0,249969482421875;7;485;1,10696069896221E-07;-1,12163871526718E-07;100 nA
0,30029296875;250,175831368367;6,6009521484375E-09;0,300048828125;7;486;1,10696069896221E-07;-1,12163871526718E-07;100 nA
0,350341796875;250,676319367103;6,829833984375E-09;0,35009765625;7;487;1,10696069896221E-07;-1,12163871526718E-07;100 nA
0,400390625;251,17680736584;7,080078125E-09;0,400115966796875;7;488;1,10696069896221E-07;-1,12163871526718E-07;100 nA
0,450439453125;251,677295364576;7,2906494140625E-09;0,450042724609375;7;489;1,10696069896221E-07;-1,12163871526718E-07;100 nA
0,50048828125;252,177783363312;7,4920654296875E-09;0,50006103515625;7;490;1,10696069896221E-07;-1,12163871526718E-07;100 nA
0,550537109375;252,678271362049;7,5592041015625E-09;0,550079345703125;7;491;1,10696069896221E-07;-1,12163871526718E-07;100 nA
0,6005859375;253,178759360785;7,476806640625E-09;0,60009765625;7;492;1,10696069896221E-07;-1,12163871526718E-07;100 nA
0,650634765625;253,679247359521;7,36083984375E-09;0,6500244140625;7;493;1,10696069896221E-07;-1,12163871526718E-07;100 nA
0,70068359375;254,179735358258;7,1685791015625E-09;0,699920654296875;7;494;1,10696069896221E-07;-1,12163871526718E-07;100 nA
0,750732421875;254,680223356994;7,0343017578125E-09;0,749908447265625;7;495;1,10696069896221E-07;-1,12163871526718E-07;100 nA
0,80078125;255,180711355731;6,9793701171875E-09;0,799560546875;7;496;1,10696069896221E-07;-1,12163871526718E-07;100 nA
0,850830078125;255,681199354467;6,9488525390625E-09;0,8502197265625;7;497;1,10696069896221E-07;-1,12163871526718E-07;100 nA
0,90087890625;256,181687353203;6,951904296875E-09;0,9002685546875;7;498;1,10696069896221E-07;-1,12163871526718E-07;100 nA
0,950927734375;256,68217535194;7,012939453125E-09;0,94970703125;7;499;1,10696069896221E-07;-1,12163871526718E-07;100 nA
1,0009765625;257,182663350676;7,1380615234375E-09;0,999755859375;7;500;1,10696069896221E-07;-1,12163871526718E-07;100 nA
0,950927734375;257,683151349413;4,33349609375E-09;0,94970703125;7;501;1,10696069896221E-07;-1,12163871526718E-07;100 nA
0,90087890625;258,183639348149;2,7557373046875E-09;0,89996337890625;7;502;1,10696069896221E-07;-1,12163871526718E-07;100 nA
0,850830078125;258,684127346885;1,7242431640625E-09;0,84991455078125;7;503;1,10696069896221E-07;-1,12163871526718E-07;100 nA
0,80078125;259,184615345622;9,857177734375E-10;0,79986572265625;7;504;1,10696069896221E-07;-1,12163871526718E-07;100 nA
0,750732421875;259,685103344358;4,21142578125E-10;0,749908447265625;7;505;1,10696069896221E-07;-1,12163871526718E-07;100 nA
0,70068359375;260,185591343095;-8,544921875E-11;0,699981689453125;7;506;1,10696069896221E-07;-1,12163871526718E-07;100 nA
0,650634765625;260,686079341831;-5,4931640625E-10;0,650054931640625;7;507;1,10696069896221E-07;-1,12163871526718E-07;100 nA
0,6005859375;261,186567340567;-1,0467529296875E-09;0,600128173828125;7;508;1,10696069896221E-07;-1,12163871526718E-07;100 nA
0,550537109375;261,687055339304;-1,5777587890625E-09;0,5501708984375;7;509;1,10696069896221E-07;-1,12163871526718E-07;100 nA
0,50048828125;262,18754333804;-2,197265625E-09;0,500213623046875;7;510;1,10696069896221E-07;-1,12163871526718E-07;100 nA
0,450439453125;262,688031336776;-2,84423828125E-09;0,450164794921875;7;511;1,10696069896221E-07;-1,12163871526718E-07;100 nA
0,400390625;263,188519335513;-3,4820556640625E-09;0,400115966796875;7;512;1,10696069896221E-07;-1,12163871526718E-07;100 nA
0,350341796875;263,689007334249;-4,0863037109375E-09;0,350128173828125;7;513;1,10696069896221E-07;-1,12163871526718E-07;100 nA
0,30029296875;264,189495332986;-4,644775390625E-09;0,300140380859375;7;514;1,10696069896221E-07;-1,12163871526718E-07;100 nA
0,250244140625;264,689983331722;-5,1422119140625E-09;0,250152587890625;7;515;1,10696069896221E-07;-1,12163871526718E-07;100 nA
0,2001953125;265,190471330458;-5,487060546875E-09;0,200164794921875;7;516;1,10696069896221E-07;-1,12163871526718E-07;100 nA
0,150146484375;265,690959329195;-5,7403564453125E-09;0,150146484375;7;517;1,10696069896221E-07;-1,12163871526718E-07;100 nA
0,10009765625;266,191447327931;-5,9600830078125E-09;0,100128173828125;7;518;1,10696069896221E-07;-1,12163871526718E-07;100 nA
0,050048828125;266,691935326668;-6,23779296875E-09;0,0501708984375;7;519;1,10696069896221E-07;-1,12163871526718E-07;100 nA
0;267,192423325404;-6,524658203125E-09;0,000143432617187494;7;520;1,10696069896221E-07;-1,12163871526718E-07;100 nA
-0,050048828125;267,69291132414;-6,8328857421875E-09;-0,049713134765625;7;521;1,10696069896221E-07;-1,12163871526718E-07;100 nA
-0,10009765625;268,193399322877;-6,2347412109375E-09;-0,09967041015625;7;522;1,10696069896221E-07;-1,12163871526718E-07;100 nA
-0,150146484375;268,693887321613;-5,6060791015625E-09;-0,149627685546875;7;523;1,10696069896221E-07;-1,12163871526718E-07;100 nA
-0,2001953125;269,19437532035;-5,92041015625E-09;-0,199432373046875;7;524;1,10696069896221E-07;-1,12163871526718E-07;100 nA
-0,250244140625;269,694863319086;-6,439208984375E-09;-0,249420166015625;7;525;1,10696069896221E-07;-1,12163871526718E-07;100 nA
-0,30029296875;270,195351317822;-6,915283203125E-09;-0,299224853515625;7;526;1,10696069896221E-07;-1,12163871526718E-07;100 nA
-0,350341796875;270,695839316559;-7,2052001953125E-09;-0,34906005859375;7;527;1,10696069896221E-07;-1,12163871526718E-07;100 nA
-0,400390625;271,196327315295;-7,3974609375E-09;-0,399078369140625;7;528;1,10696069896221E-07;-1,12163871526718E-07;100 nA
-0,450439453125;271,696815314031;-7,562255859375E-09;-0,448944091796875;7;529;1,10696069896221E-07;-1,12163871526718E-07;100 nA
-0,50048828125;272,197303312768;-7,769775390625E-09;-0,4989013671875;7;530;1,10696069896221E-07;-1,12163871526718E-07;100 nA
-0,550537109375;272,697791311504;-8,0474853515625E-09;-0,54876708984375;7;531;1,10696069896221E-07;-1,12163871526718E-07;100 nA
-0,6005859375;273,198279310241;-8,2733154296875E-09;-0,59869384765625;7;532;1,10696069896221E-07;-1,12163871526718E-07;100 nA
-0,650634765625;273,698767308977;-8,453369140625E-09;-0,64862060546875;7;533;1,10696069896221E-07;-1,12163871526718E-07;100 nA
-0,70068359375;274,199255307713;-8,65478515625E-09;-0,698638916015625;7;534;1,10696069896221E-07;-1,12163871526718E-07;100 nA
-0,750732421875;274,69974330645;-8,8226318359375E-09;-0,748626708984375;7;535;1,10696069896221E-07;-1,12163871526718E-07;100 nA
-0,80078125;275,200231305186;-8,9385986328125E-09;-0,79864501953125;7;536;1,10696069896221E-07;-1,12163871526718E-07;100 nA
-0,850830078125;275,700719303923;-9,014892578125E-09;-0,8489990234375;7;537;1,10696069896221E-07;-1,12163871526718E-07;100 nA
-0,90087890625;276,201207302659;-9,08203125E-09;-0,8990478515625;7;538;1,10696069896221E-07;-1,12163871526718E-07;100 nA
-0,950927734375;276,701695301395;-9,19189453125E-09;-0,948486328125;7;539;1,10696069896221E-07;-1,12163871526718E-07;100 nA
-1,0009765625;277,202183300132;-9,3536376953125E-09;-0,99945068359375;7;540;1,10696069896221E-07;-1,12163871526718E-07;100 nA
-0,950927734375;277,702671298868;-5,8074951171875E-09;-0,94879150390625;7;541;1,10696069896221E-07;-1,12163871526718E-07;100 nA
-0,90087890625;278,203159297605;-3,6712646484375E-09;-0,8990478515625;7;542;1,10696069896221E-07;-1,12163871526718E-07;100 nA
-0,850830078125;278,703647296341;-2,166748046875E-09;-0,84869384765625;7;543;1,10696069896221E-07;-1,12163871526718E-07;100 nA
-0,80078125;279,204135295077;-1,0345458984375E-09;-0,7989501953125;7;544;1,10696069896221E-07;-1,12163871526718E-07;100 nA
-0,750732421875;279,704623293814;-1,068115234375E-10;-0,748687744140625;7;545;1,10696069896221E-07;-1,12163871526718E-07;100 nA
-0,70068359375;280,20511129255;6,65283203125E-10;-0,6986083984375;7;546;1,10696069896221E-07;-1,12163871526718E-07;100 nA
-0,650634765625;280,705599291286;1,4251708984375E-09;-0,648651123046875;7;547;1,10696069896221E-07;-1,12163871526718E-07;100 nA
-0,6005859375;281,206087290023;2,1209716796875E-09;-0,59869384765625;7;548;1,10696069896221E-07;-1,12163871526718E-07;100 nA
-0,550537109375;281,706575288759;2,777099609375E-09;-0,548858642578125;7;549;1,10696069896221E-07;-1,12163871526718E-07;100 nA
-0,50048828125;282,207063287496;3,4149169921875E-09;-0,498931884765625;7;550;1,10696069896221E-07;-1,12163871526718E-07;100 nA
-0,450439453125;282,707551286232;4,0802001953125E-09;-0,448944091796875;7;551;1,10696069896221E-07;-1,12163871526718E-07;100 nA
-0,400390625;283,208039284968;4,7607421875E-09;-0,399169921875;7;552;1,10696069896221E-07;-1,12163871526718E-07;100 nA
-0,350341796875;283,708527283705;5,6304931640625E-09;-0,3492431640625;7;553;1,10696069896221E-07;-1,12163871526718E-07;100 nA
-0,30029296875;284,209015282441;6,4788818359375E-09;-0,29931640625;7;554;1,10696069896221E-07;-1,12163871526718E-07;100 nA
-0,250244140625;284,709503281178;6,8603515625E-09;-0,2493896484375;7;555;1,10696069896221E-07;-1,12163871526718E-07;100 nA
-0,2001953125;285,209991279914;7,0831298828125E-09;-0,199493408203125;7;556;1,10696069896221E-07;-1,12163871526718E-07;100 nA
-0,150146484375;285,71047927865;7,2784423828125E-09;-0,149627685546875;7;557;1,10696069896221E-07;-1,12163871526718E-07;100 nA
-0,10009765625;286,210967277387;7,3760986328125E-09;-0,0997314453125;7;558;1,10696069896221E-07;-1,12163871526718E-07;100 nA
-0,050048828125;286,711455276123;7,1197509765625E-09;-0,0498046875;7;559;1,10696069896221E-07;-1,12163871526718E-07;100 nA
0;287,21194327486;6,38427734375E-09;0,000100708007812506;7;560;1,10696069896221E-07;-1,12163871526718E-07;100 nA
0,050048828125;287,712431273596;6,005859375E-09;0,050018310546875;8;561;1,09810195863247E-07;-1,1187519878149E-07;100 nA
0,10009765625;288,212919272332;6,011962890625E-09;0,10009765625;8;562;1,09810195863247E-07;-1,1187519878149E-07;100 nA
0,150146484375;288,713407271069;6,0943603515625E-09;0,150054931640625;8;563;1,09810195863247E-07;-1,1187519878149E-07;100 nA
0,2001953125;289,213895269805;6,2225341796875E-09;0,200042724609375;8;564;1,09810195863247E-07;-1,1187519878149E-07;100 nA
0,250244140625;289,714383268542;6,427001953125E-09;0,2501220703125;8;565;1,09810195863247E-07;-1,1187519878149E-07;100 nA
0,30029296875;290,214871267278;6,634521484375E-09;0,300079345703125;8;566;1,09810195863247E-07;-1,1187519878149E-07;100 nA
0,350341796875;290,715359266014;6,884765625E-09;0,350128173828125;8;567;1,09810195863247E-07;-1,1187519878149E-07;100 nA
0,400390625;291,215847264751;7,1044921875E-09;0,400054931640625;8;568;1,09810195863247E-07;-1,1187519878149E-07;100 nA
0,450439453125;291,716335263487;7,3211669921875E-09;0,450042724609375;8;569;1,09810195863247E-07;-1,1187519878149E-07;100 nA
0,50048828125;292,216823262223;7,4798583984375E-09;0,500091552734375;8;570;1,09810195863247E-07;-1,1187519878149E-07;100 nA
0,550537109375;292,71731126096;7,513427734375E-09;0,550079345703125;8;571;1,09810195863247E-07;-1,1187519878149E-07;100 nA
0,6005859375;293,217799259696;7,4554443359375E-09;0,600128173828125;8;572;1,09810195863247E-07;-1,1187519878149E-07;100 nA
0,650634765625;293,718287258433;7,2906494140625E-09;0,65008544921875;8;573;1,09810195863247E-07;-1,1187519878149E-07;100 nA
0,70068359375;294,218775257169;7,1258544921875E-09;0,699951171875;8;574;1,09810195863247E-07;-1,1187519878149E-07;100 nA
0,750732421875;294,719263255905;6,976318359375E-09;0,749847412109375;8;575;1,09810195863247E-07;-1,1187519878149E-07;100 nA
0,80078125;295,219751254642;6,9305419921875E-09;0,799560546875;8;576;1,09810195863247E-07;-1,1187519878149E-07;100 nA
0,850830078125;295,720239253378;6,8939208984375E-09;0,84991455078125;8;577;1,09810195863247E-07;-1,1187519878149E-07;100 nA
0,90087890625;296,220727252115;6,866455078125E-09;0,899658203125;8;578;1,09810195863247E-07;-1,1187519878149E-07;100 nA
0,950927734375;296,721215250851;6,9183349609375E-09;0,95001220703125;8;579;1,09810195863247E-07;-1,1187519878149E-07;100 nA
1,0009765625;297,221703249587;7,0343017578125E-09;1,00006103515625;8;580;1,09810195863247E-07;-1,1187519878149E-07;100 nA
0,950927734375;297,722191248324;4,205322265625E-09;0,94970703125;8;581;1,09810195863247E-07;-1,1187519878149E-07;100 nA
0,90087890625;298,22267924706;2,63671875E-09;0,89935302734375;8;582;1,09810195863247E-07;-1,1187519878149E-07;100 nA
0,850830078125;298,723167245797;1,6357421875E-09;0,8502197265625;8;583;1,09810195863247E-07;-1,1187519878149E-07;100 nA
0,80078125;299,223655244533;8,941650390625E-10;0,79986572265625;8;584;1,09810195863247E-07;-1,1187519878149E-07;100 nA
0,750732421875;299,724143243269;3,082275390625E-10;0,7498779296875;8;585;1,09810195863247E-07;-1,1187519878149E-07;100 nA
0,70068359375;300,224631242006;-1,556396484375E-10;0,700042724609375;8;586;1,09810195863247E-07;-1,1187519878149E-07;100 nA
0,650634765625;300,725119240742;-6,256103515625E-10;0,650115966796875;8;587;1,09810195863247E-07;-1,1187519878149E-07;100 nA
0,6005859375;301,225607239478;-1,0986328125E-09;0,600189208984375;8;588;1,09810195863247E-07;-1,1187519878149E-07;100 nA
0,550537109375;301,726095238215;-1,678466796875E-09;0,55010986328125;8;589;1,09810195863247E-07;-1,1187519878149E-07;100 nA
0,50048828125;302,226583236951;-2,2491455078125E-09;0,500091552734375;8;590;1,09810195863247E-07;-1,1187519878149E-07;100 nA
0,450439453125;302,727071235688;-2,8228759765625E-09;0,450164794921875;8;591;1,09810195863247E-07;-1,1187519878149E-07;100 nA
0,400390625;303,227559234424;-3,45458984375E-09;0,400177001953125;8;592;1,09810195863247E-07;-1,1187519878149E-07;100 nA
0,350341796875;303,72804723316;-4,083251953125E-09;0,350189208984375;8;593;1,09810195863247E-07;-1,1187519878149E-07;100 nA
0,30029296875;304,228535231897;-4,6356201171875E-09;0,30010986328125;8;594;1,09810195863247E-07;-1,1187519878149E-07;100 nA
0,250244140625;304,729023230633;-5,145263671875E-09;0,250091552734375;8;595;1,09810195863247E-07;-1,1187519878149E-07;100 nA
0,2001953125;305,22951122937;-5,499267578125E-09;0,200103759765625;8;596;1,09810195863247E-07;-1,1187519878149E-07;100 nA
0,150146484375;305,729999228106;-5,7769775390625E-09;0,150115966796875;8;597;1,09810195863247E-07;-1,1187519878149E-07;100 nA
0,10009765625;306,230487226842;-6,011962890625E-09;0,10009765625;8;598;1,09810195863247E-07;-1,1187519878149E-07;100 nA
0,050048828125;306,730975225579;-6,2255859375E-09;0,050140380859375;8;599;1,09810195863247E-07;-1,1187519878149E-07;100 nA
0;307,231463224315;-6,40869140625E-09;0,000152587890625;8;600;1,09810195863247E-07;-1,1187519878149E-07;100 nA
-0,050048828125;307,731951223052;-6,524658203125E-09;-0,0497283935546875;8;601;1,09810195863247E-07;-1,1187519878149E-07;100 nA
-0,10009765625;308,232439221788;-5,877685546875E-09;-0,099639892578125;8;602;1,09810195863247E-07;-1,1187519878149E-07;100 nA
-0,150146484375;308,732927220524;-5,584716796875E-09;-0,149627685546875;8;603;1,09810195863247E-07;-1,1187519878149E-07;100 nA
-0,2001953125;309,233415219261;-5,950927734375E-09;-0,199432373046875;8;604;1,09810195863247E-07;-1,1187519878149E-07;100 nA
-0,250244140625;309,733903217997;-6,4208984375E-09;-0,249359130859375;8;605;1,09810195863247E-07;-1,1187519878149E-07;100 nA
-0,30029296875;310,234391216733;-6,8817138671875E-09;-0,299224853515625;8;606;1,09810195863247E-07;-1,1187519878149E-07;100 nA
-0,350341796875;310,73487921547;-7,177734375E-09;-0,349212646484375;8;607;1,09810195863247E-07;-1,1187519878149E-07;100 nA
-0,400390625;311,235367214206;-7,3333740234375E-09;-0,39910888671875;8;608;1,09810195863247E-07;-1,1187519878149E-07;100 nA
-0,450439453125;311,735855212943;-7,5347900390625E-09;-0,448944091796875;8;609;1,09810195863247E-07;-1,1187519878149E-07;100 nA
-0,50048828125;312,236343211679;-7,7789306640625E-09;-0,49884033203125;8;610;1,09810195863247E-07;-1,1187519878149E-07;100 nA
-0,550537109375;312,736831210415;-8,038330078125E-09;-0,548858642578125;8;611;1,09810195863247E-07;-1,1187519878149E-07;100 nA
-0,6005859375;313,237319209152;-8,2916259765625E-09;-0,5986328125;8;612;1,09810195863247E-07;-1,1187519878149E-07;100 nA
-0,650634765625;313,737807207888;-8,48388671875E-09;-0,64862060546875;8;613;1,09810195863247E-07;-1,1187519878149E-07;100 nA
-0,70068359375;314,238295206625;-8,636474609375E-09;-0,698577880859375;8;614;1,09810195863247E-07;-1,1187519878149E-07;100 nA
-0,750732421875;314,738783205361;-8,758544921875E-09;-0,748626708984375;8;615;1,09810195863247E-07;-1,1187519878149E-07;100 nA
-0,80078125;315,239271204097;-8,8409423828125E-09;-0,79925537109375;8;616;1,09810195863247E-07;-1,1187519878149E-07;100 nA
-0,850830078125;315,739759202834;-8,9324951171875E-09;-0,848388671875;8;617;1,09810195863247E-07;-1,1187519878149E-07;100 nA
-0,90087890625;316,24024720157;-9,0087890625E-09;-0,89874267578125;8;618;1,09810195863247E-07;-1,1187519878149E-07;100 nA
-0,950927734375;316,740735200307;-9,1949462890625E-09;-0,948486328125;8;619;1,09810195863247E-07;-1,1187519878149E-07;100 nA
-1,0009765625;317,241223199043;-9,3505859375E-09;-0,99884033203125;8;620;1,09810195863247E-07;-1,1187519878149E-07;100 nA
-0,950927734375;317,741711197779;-5,841064453125E-09;-0,9490966796875;8;621;1,09810195863247E-07;-1,1187519878149E-07;100 nA
-0,90087890625;318,242199196516;-3,7261962890625E-09;-0,8990478515625;8;622;1,09810195863247E-07;-1,1187519878149E-07;100 nA
-0,850830078125;318,742687195252;-2,2491455078125E-09;-0,84869384765625;8;623;1,09810195863247E-07;-1,1187519878149E-07;100 nA
-0,80078125;319,243175193988;-1,0894775390625E-09;-0,79833984375;8;624;1,09810195863247E-07;-1,1187519878149E-07;100 nA
-0,750732421875;319,743663192725;-1,52587890625E-10;-0,74859619140625;8;625;1,09810195863247E-07;-1,1187519878149E-07;100 nA
-0,70068359375;320,244151191461;6,317138671875E-10;-0,698638916015625;8;626;1,09810195863247E-07;-1,1187519878149E-07;100 nA
-0,650634765625;320,744639190198;1,3946533203125E-09;-0,648651123046875;8;627;1,09810195863247E-07;-1,1187519878149E-07;100 nA
-0,6005859375;321,245127188934;2,069091796875E-09;-0,598663330078125;8;628;1,09810195863247E-07;-1,1187519878149E-07;100 nA
-0,550537109375;321,74561518767;2,716064453125E-09;-0,548797607421875;8;629;1,09810195863247E-07;-1,1187519878149E-07;100 nA
-0,50048828125;322,246103186407;3,3721923828125E-09;-0,4989013671875;8;630;1,09810195863247E-07;-1,1187519878149E-07;100 nA
-0,450439453125;322,746591185143;4,0130615234375E-09;-0,44903564453125;8;631;1,09810195863247E-07;-1,1187519878149E-07;100 nA
-0,400390625;323,24707918388;4,7149658203125E-09;-0,399139404296875;8;632;1,09810195863247E-07;-1,1187519878149E-07;100 nA
-0,350341796875;323,747567182616;5,535888671875E-09;-0,349273681640625;8;633;1,09810195863247E-07;-1,1187519878149E-07;100 nA
-0,30029296875;324,248055181352;6,414794921875E-09;-0,299346923828125;8;634;1,09810195863247E-07;-1,1187519878149E-07;100 nA
-0,250244140625;324,748543180089;6,84814453125E-09;-0,249420166015625;8;635;1,09810195863247E-07;-1,1187519878149E-07;100 nA
-0,2001953125;325,249031178825;7,0526123046875E-09;-0,199493408203125;8;636;1,09810195863247E-07;-1,1187519878149E-07;100 nA
-0,150146484375;325,749519177562;7,2479248046875E-09;-0,149627685546875;8;637;1,09810195863247E-07;-1,1187519878149E-07;100 nA
-0,10009765625;326,250007176298;7,3028564453125E-09;-0,09979248046875;8;638;1,09810195863247E-07;-1,1187519878149E-07;100 nA
-0,050048828125;326,750495175034;7,0037841796875E-09;-0,049896240234375;8;639;1,09810195863247E-07;-1,1187519878149E-07;100 nA
0;327,250983173771;6,2164306640625E-09;8,54492187500056E-05;8;640;1,09810195863247E-07;-1,1187519878149E-07;100 nA
0,050048828125;327,751471172507;5,865478515625E-09;0,050048828125;9;641;1,08415707945824E-07;-1,1079229414463E-07;100 nA
0,10009765625;328,251959171243;5,92041015625E-09;0,100006103515625;9;642;1,08415707945824E-07;-1,1079229414463E-07;100 nA
0,150146484375;328,75244716998;6,024169921875E-09;0,150054931640625;9;643;1,08415707945824E-07;-1,1079229414463E-07;100 nA
0,2001953125;329,252935168716;6,1767578125E-09;0,200042724609375;9;644;1,08415707945824E-07;-1,1079229414463E-07;100 nA
0,250244140625;329,753423167453;6,3446044921875E-09;0,250030517578125;9;645;1,08415707945824E-07;-1,1079229414463E-07;100 nA
0,30029296875;330,253911166189;6,54296875E-09;0,300018310546875;9;646;1,08415707945824E-07;-1,1079229414463E-07;100 nA
0,350341796875;330,754399164925;6,7626953125E-09;0,350128173828125;9;647;1,08415707945824E-07;-1,1079229414463E-07;100 nA
0,400390625;331,254887163662;6,976318359375E-09;0,40008544921875;9;648;1,08415707945824E-07;-1,1079229414463E-07;100 nA
0,450439453125;331,755375162398;7,1685791015625E-09;0,450042724609375;9;649;1,08415707945824E-07;-1,1079229414463E-07;100 nA
0,50048828125;332,255863161135;7,3394775390625E-09;0,500091552734375;9;650;1,08415707945824E-07;-1,1079229414463E-07;100 nA
0,550537109375;332,756351159871;7,3760986328125E-09;0,55010986328125;9;651;1,08415707945824E-07;-1,1079229414463E-07;100 nA
0,6005859375;333,256839158607;7,32421875E-09;0,60009765625;9;652;1,08415707945824E-07;-1,1079229414463E-07;100 nA
0,650634765625;333,757327157344;7,1624755859375E-09;0,6500244140625;9;653;1,08415707945824E-07;-1,1079229414463E-07;100 nA
0,70068359375;334,25781515608;7,0068359375E-09;0,699920654296875;9;654;1,08415707945824E-07;-1,1079229414463E-07;100 nA
0,750732421875;334,758303154817;6,927490234375E-09;0,74981689453125;9;655;1,08415707945824E-07;-1,1079229414463E-07;100 nA
0,80078125;335,258791153553;6,8328857421875E-09;0,79986572265625;9;656;1,08415707945824E-07;-1,1079229414463E-07;100 nA
0,850830078125;335,759279152289;6,744384765625E-09;0,849609375;9;657;1,08415707945824E-07;-1,1079229414463E-07;100 nA
0,90087890625;336,259767151026;6,793212890625E-09;0,899658203125;9;658;1,08415707945824E-07;-1,1079229414463E-07;100 nA
0,950927734375;336,760255149762;6,884765625E-09;0,94970703125;9;659;1,08415707945824E-07;-1,1079229414463E-07;100 nA
1,0009765625;337,260743148498;7,03125E-09;0,99945068359375;9;660;1,08415707945824E-07;-1,1079229414463E-07;100 nA
0,950927734375;337,761231147235;4,248046875E-09;0,94940185546875;9;661;1,08415707945824E-07;-1,1079229414463E-07;100 nA
0,90087890625;338,261719145971;2,691650390625E-09;0,89935302734375;9;662;1,08415707945824E-07;-1,1079229414463E-07;100 nA
0,850830078125;338,762207144708;1,678466796875E-09;0,849609375;9;663;1,08415707945824E-07;-1,1079229414463E-07;100 nA
0,80078125;339,262695143444;9,735107421875E-10;0,8001708984375;9;664;1,08415707945824E-07;-1,1079229414463E-07;100 nA
0,750732421875;339,76318314218;3,90625E-10;0,749908447265625;9;665;1,08415707945824E-07;-1,1079229414463E-07;100 nA
0,70068359375;340,263671140917;-8,85009765625E-11;0,699981689453125;9;666;1,08415707945824E-07;-1,1079229414463E-07;100 nA
0,650634765625;340,764159139653;-5,218505859375E-10;0,650115966796875;9;667;1,08415707945824E-07;-1,1079229414463E-07;100 nA
0,6005859375;341,26464713839;-9,82666015625E-10;0,60015869140625;9;668;1,08415707945824E-07;-1,1079229414463E-07;100 nA
0,550537109375;341,765135137126;-1,544189453125E-09;0,550201416015625;9;669;1,08415707945824E-07;-1,1079229414463E-07;100 nA
0,50048828125;342,265623135862;-2,142333984375E-09;0,500213623046875;9;670;1,08415707945824E-07;-1,1079229414463E-07;100 nA
0,450439453125;342,766111134599;-2,7435302734375E-09;0,45013427734375;9;671;1,08415707945824E-07;-1,1079229414463E-07;100 nA
0,400390625;343,266599133335;-3,375244140625E-09;0,400177001953125;9;672;1,08415707945824E-07;-1,1079229414463E-07;100 nA
0,350341796875;343,767087132072;-3,9794921875E-09;0,350189208984375;9;673;1,08415707945824E-07;-1,1079229414463E-07;100 nA
0,30029296875;344,267575130808;-4,522705078125E-09;0,30010986328125;9;674;1,08415707945824E-07;-1,1079229414463E-07;100 nA
0,250244140625;344,768063129544;-5,047607421875E-09;0,25018310546875;9;675;1,08415707945824E-07;-1,1079229414463E-07;100 nA
0,2001953125;345,268551128281;-5,426025390625E-09;0,200103759765625;9;676;1,08415707945824E-07;-1,1079229414463E-07;100 nA
0,150146484375;345,769039127017;-5,6610107421875E-09;0,150146484375;9;677;1,08415707945824E-07;-1,1079229414463E-07;100 nA
0,10009765625;346,269527125753;-5,908203125E-09;0,10009765625;9;678;1,08415707945824E-07;-1,1079229414463E-07;100 nA
0,050048828125;346,77001512449;-6,1279296875E-09;0,050140380859375;9;679;1,08415707945824E-07;-1,1079229414463E-07;100 nA
0;347,270503123226;-6,2774658203125E-09;0,000140380859374997;9;680;1,08415707945824E-07;-1,1079229414463E-07;100 nA
-0,050048828125;347,770991121963;-6,2530517578125E-09;-0,049774169921875;9;681;1,08415707945824E-07;-1,1079229414463E-07;100 nA
-0,10009765625;348,271479120699;-5,633544921875E-09;-0,09967041015625;9;682;1,08415707945824E-07;-1,1079229414463E-07;100 nA
-0,150146484375;348,771967119435;-5,4901123046875E-09;-0,149566650390625;9;683;1,08415707945824E-07;-1,1079229414463E-07;100 nA
-0,2001953125;349,272455118172;-5,8685302734375E-09;-0,19940185546875;9;684;1,08415707945824E-07;-1,1079229414463E-07;100 nA
-0,250244140625;349,772943116908;-6,35986328125E-09;-0,24932861328125;9;685;1,08415707945824E-07;-1,1079229414463E-07;100 nA
-0,30029296875;350,273431115645;-6,8084716796875E-09;-0,299285888671875;9;686;1,08415707945824E-07;-1,1079229414463E-07;100 nA
-0,350341796875;350,773919114381;-7,098388671875E-09;-0,349151611328125;9;687;1,08415707945824E-07;-1,1079229414463E-07;100 nA
-0,400390625;351,274407113117;-7,2662353515625E-09;-0,399017333984375;9;688;1,08415707945824E-07;-1,1079229414463E-07;100 nA
-0,450439453125;351,774895111854;-7,525634765625E-09;-0,448883056640625;9;689;1,08415707945824E-07;-1,1079229414463E-07;100 nA
-0,50048828125;352,27538311059;-7,7728271484375E-09;-0,498870849609375;9;690;1,08415707945824E-07;-1,1079229414463E-07;100 nA
-0,550537109375;352,775871109327;-8,04443359375E-09;-0,5487060546875;9;691;1,08415707945824E-07;-1,1079229414463E-07;100 nA
-0,6005859375;353,276359108063;-8,294677734375E-09;-0,59869384765625;9;692;1,08415707945824E-07;-1,1079229414463E-07;100 nA
-0,650634765625;353,776847106799;-8,4686279296875E-09;-0,64862060546875;9;693;1,08415707945824E-07;-1,1079229414463E-07;100 nA
-0,70068359375;354,277335105536;-8,6639404296875E-09;-0,6986083984375;9;694;1,08415707945824E-07;-1,1079229414463E-07;100 nA
-0,750732421875;354,777823104272;-8,7921142578125E-09;-0,748626708984375;9;695;1,08415707945824E-07;-1,1079229414463E-07;100 nA
-0,80078125;355,278311103008;-8,9080810546875E-09;-0,79864501953125;9;696;1,08415707945824E-07;-1,1079229414463E-07;100 nA
-0,850830078125;355,778799101745;-9,0057373046875E-09;-0,84869384765625;9;697;1,08415707945824E-07;-1,1079229414463E-07;100 nA
-0,90087890625;356,279287100481;-9,0484619140625E-09;-0,8990478515625;9;698;1,08415707945824E-07;-1,1079229414463E-07;100 nA
-0,950927734375;356,779775099218;-9,161376953125E-09;-0,9490966796875;9;699;1,08415707945824E-07;-1,1079229414463E-07;100 nA
-1,0009765625;357,280263097954;-9,332275390625E-09;-0,99884033203125;9;700;1,08415707945824E-07;-1,1079229414463E-07;100 nA
-0,950927734375;357,78075109669;-5,8380126953125E-09;-0,94879150390625;9;701;1,08415707945824E-07;-1,1079229414463E-07;100 nA
-0,90087890625;358,281239095427;-3,7506103515625E-09;-0,89935302734375;9;702;1,08415707945824E-07;-1,1079229414463E-07;100 nA
-0,850830078125;358,781727094163;-2,28271484375E-09;-0,8489990234375;9;703;1,08415707945824E-07;-1,1079229414463E-07;100 nA
-0,80078125;359,2822150929;-1,153564453125E-09;-0,79864501953125;9;704;1,08415707945824E-07;-1,1079229414463E-07;100 nA
-0,750732421875;359,782703091636;-1,983642578125E-10;-0,74871826171875;9;705;1,08415707945824E-07;-1,1079229414463E-07;100 nA
-0,70068359375;360,283191090372;6,103515625E-10;-0,698638916015625;9;706;1,08415707945824E-07;-1,1079229414463E-07;100 nA
-0,650634765625;360,783679089109;1,3275146484375E-09;-0,64862060546875;9;707;1,08415707945824E-07;-1,1079229414463E-07;100 nA
-0,6005859375;361,284167087845;2,0416259765625E-09;-0,5987548828125;9;708;1,08415707945824E-07;-1,1079229414463E-07;100 nA
-0,550537109375;361,784655086582;2,7008056640625E-09;-0,548828125;9;709;1,08415707945824E-07;-1,1079229414463E-07;100 nA
-0,50048828125;362,285143085318;3,289794921875E-09;-0,49884033203125;9;710;1,08415707945824E-07;-1,1079229414463E-07;100 nA
-0,450439453125;362,785631084054;3,900146484375E-09;-0,449066162109375;9;711;1,08415707945824E-07;-1,1079229414463E-07;100 nA
-0,400390625;363,286119082791;4,632568359375E-09;-0,399169921875;9;712;1,08415707945824E-07;-1,1079229414463E-07;100 nA
-0,350341796875;363,786607081527;5,487060546875E-09;-0,349212646484375;9;713;1,08415707945824E-07;-1,1079229414463E-07;100 nA
-0,30029296875;364,287095080264;6,34765625E-09;-0,29931640625;9;714;1,08415707945824E-07;-1,1079229414463E-07;100 nA
-0,250244140625;364,787583079;6,8206787109375E-09;-0,2493896484375;9;715;1,08415707945824E-07;-1,1079229414463E-07;100 nA
-0,2001953125;365,288071077736;7,000732421875E-09;-0,19952392578125;9;716;1,08415707945824E-07;-1,1079229414463E-07;100 nA
-0,150146484375;365,788559076473;7,1624755859375E-09;-0,149749755859375;9;717;1,08415707945824E-07;-1,1079229414463E-07;100 nA
-0,10009765625;366,289047075209;7,183837890625E-09;-0,0997314453125;9;718;1,08415707945824E-07;-1,1079229414463E-07;100 nA
-0,050048828125;366,789535073945;6,8328857421875E-09;-0,04986572265625;9;719;1,08415707945824E-07;-1,1079229414463E-07;100 nA
0;367,290023072682;6,0943603515625E-09;8,85009765625028E-05;9;720;1,08415707945824E-07;-1,1079229414463E-07;100 nA
0,050048828125;367,790511071418;5,8349609375E-09;0,050048828125;10;721;1,08377523720264E-07;-1,10347829759121E-07;100 nA
0,10009765625;368,290999070155;5,865478515625E-09;0,10003662109375;10;722;1,08377523720264E-07;-1,10347829759121E-07;100 nA
0,150146484375;368,791487068891;5,9967041015625E-09;0,15008544921875;10;723;1,08377523720264E-07;-1,10347829759121E-07;100 nA
0,2001953125;369,291975067627;6,1767578125E-09;0,20001220703125;10;724;1,08377523720264E-07;-1,10347829759121E-07;100 nA
0,250244140625;369,792463066364;6,2774658203125E-09;0,25;10;725;1,08377523720264E-07;-1,10347829759121E-07;100 nA
0,30029296875;370,2929510651;6,4605712890625E-09;0,300079345703125;10;726;1,08377523720264E-07;-1,10347829759121E-07;100 nA
0,350341796875;370,793439063837;6,7718505859375E-09;0,35009765625;10;727;1,08377523720264E-07;-1,10347829759121E-07;100 nA
0,400390625;371,293927062573;6,9915771484375E-09;0,400115966796875;10;728;1,08377523720264E-07;-1,10347829759121E-07;100 nA
0,450439453125;371,794415061309;7,196044921875E-09;0,4500732421875;10;729;1,08377523720264E-07;-1,10347829759121E-07;100 nA
0,50048828125;372,294903060046;7,3577880859375E-09;0,500091552734375;10;730;1,08377523720264E-07;-1,10347829759121E-07;100 nA
0,550537109375;372,795391058782;7,3699951171875E-09;0,55010986328125;10;731;1,08377523720264E-07;-1,10347829759121E-07;100 nA
0,6005859375;373,295879057519;7,3089599609375E-09;0,60003662109375;10;732;1,08377523720264E-07;-1,10347829759121E-07;100 nA
0,650634765625;373,796367056255;7,177734375E-09;0,649993896484375;10;733;1,08377523720264E-07;-1,10347829759121E-07;100 nA
0,70068359375;374,296855054991;7,03125E-09;0,699951171875;10;734;1,08377523720264E-07;-1,10347829759121E-07;100 nA
0,750732421875;374,797343053728;6,8939208984375E-09;0,7498779296875;10;735;1,08377523720264E-07;-1,10347829759121E-07;100 nA
0,80078125;375,297831052464;6,8115234375E-09;0,79986572265625;10;736;1,08377523720264E-07;-1,10347829759121E-07;100 nA
0,850830078125;375,7983190512;6,7840576171875E-09;0,849609375;10;737;1,08377523720264E-07;-1,10347829759121E-07;100 nA
0,90087890625;376,298807049937;6,8359375E-09;0,89996337890625;10;738;1,08377523720264E-07;-1,10347829759121E-07;100 nA
0,950927734375;376,799295048673;6,9183349609375E-09;0,9490966796875;10;739;1,08377523720264E-07;-1,10347829759121E-07;100 nA
1,0009765625;377,29978304741;7,06787109375E-09;0,99945068359375;10;740;1,08377523720264E-07;-1,10347829759121E-07;100 nA
0,950927734375;377,800271046146;4,278564453125E-09;0,95001220703125;10;741;1,08377523720264E-07;-1,10347829759121E-07;100 nA
0,90087890625;378,300759044882;2,7435302734375E-09;0,89996337890625;10;742;1,08377523720264E-07;-1,10347829759121E-07;100 nA
0,850830078125;378,801247043619;1,739501953125E-09;0,84991455078125;10;743;1,08377523720264E-07;-1,10347829759121E-07;100 nA
0,80078125;379,301735042355;1,0162353515625E-09;0,79986572265625;10;744;1,08377523720264E-07;-1,10347829759121E-07;100 nA
0,750732421875;379,802223041092;4,33349609375E-10;0,7498779296875;10;745;1,08377523720264E-07;-1,10347829759121E-07;100 nA
0,70068359375;380,302711039828;-4,2724609375E-11;0,70001220703125;10;746;1,08377523720264E-07;-1,10347829759121E-07;100 nA
0,650634765625;380,803199038564;-5,035400390625E-10;0,650146484375;10;747;1,08377523720264E-07;-1,10347829759121E-07;100 nA
0,6005859375;381,303687037301;-9,8876953125E-10;0,60015869140625;10;748;1,08377523720264E-07;-1,10347829759121E-07;100 nA
0,550537109375;381,804175036037;-1,5045166015625E-09;0,5501708984375;10;749;1,08377523720264E-07;-1,10347829759121E-07;100 nA
0,50048828125;382,304663034774;-2,1026611328125E-09;0,50018310546875;10;750;1,08377523720264E-07;-1,10347829759121E-07;100 nA
0,450439453125;382,80515103351;-2,74658203125E-09;0,450164794921875;10;751;1,08377523720264E-07;-1,10347829759121E-07;100 nA
0,400390625;383,305639032246;-3,38134765625E-09;0,400146484375;10;752;1,08377523720264E-07;-1,10347829759121E-07;100 nA
0,350341796875;383,806127030983;-3,9642333984375E-09;0,3502197265625;10;753;1,08377523720264E-07;-1,10347829759121E-07;100 nA
0,30029296875;384,306615029719;-4,5074462890625E-09;0,3001708984375;10;754;1,08377523720264E-07;-1,10347829759121E-07;100 nA
0,250244140625;384,807103028455;-5,0048828125E-09;0,250152587890625;10;755;1,08377523720264E-07;-1,10347829759121E-07;100 nA
0,2001953125;385,307591027192;-5,364990234375E-09;0,200103759765625;10;756;1,08377523720264E-07;-1,10347829759121E-07;100 nA
0,150146484375;385,808079025928;-5,60302734375E-09;0,150115966796875;10;757;1,08377523720264E-07;-1,10347829759121E-07;100 nA
0,10009765625;386,308567024665;-5,816650390625E-09;0,1002197265625;10;758;1,08377523720264E-07;-1,10347829759121E-07;100 nA
0,050048828125;386,809055023401;-5,9783935546875E-09;0,0501708984375;10;759;1,08377523720264E-07;-1,10347829759121E-07;100 nA
0;387,309543022137;-6,121826171875E-09;0,000146484375000006;10;760;1,08377523720264E-07;-1,10347829759121E-07;100 nA
-0,050048828125;387,810031020874;-5,9844970703125E-09;-0,0497222900390625;10;761;1,08377523720264E-07;-1,10347829759121E-07;100 nA
-0,10009765625;388,31051901961;-5,438232421875E-09;-0,099700927734375;10;762;1,08377523720264E-07;-1,10347829759121E-07;100 nA
-0,150146484375;388,811007018347;-5,633544921875E-09;-0,149627685546875;10;763;1,08377523720264E-07;-1,10347829759121E-07;100 nA
-0,2001953125;389,311495017083;-5,8929443359375E-09;-0,199432373046875;10;764;1,08377523720264E-07;-1,10347829759121E-07;100 nA
-0,250244140625;389,811983015819;-6,5460205078125E-09;-0,2493896484375;10;765;1,08377523720264E-07;-1,10347829759121E-07;100 nA
-0,30029296875;390,312471014556;-6,866455078125E-09;-0,299224853515625;10;766;1,08377523720264E-07;-1,10347829759121E-07;100 nA
-0,350341796875;390,812959013292;-7,1197509765625E-09;-0,349212646484375;10;767;1,08377523720264E-07;-1,10347829759121E-07;100 nA
-0,400390625;391,313447012029;-7,281494140625E-09;-0,3990478515625;10;768;1,08377523720264E-07;-1,10347829759121E-07;100 nA
-0,450439453125;391,813935010765;-7,5042724609375E-09;-0,448944091796875;10;769;1,08377523720264E-07;-1,10347829759121E-07;100 nA
-0,50048828125;392,314423009501;-7,7362060546875E-09;-0,49884033203125;10;770;1,08377523720264E-07;-1,10347829759121E-07;100 nA
-0,550537109375;392,814911008238;-8,0322265625E-09;-0,54876708984375;10;771;1,08377523720264E-07;-1,10347829759121E-07;100 nA
-0,6005859375;393,315399006974;-8,2427978515625E-09;-0,598663330078125;10;772;1,08377523720264E-07;-1,10347829759121E-07;100 nA
-0,650634765625;393,81588700571;-8,5113525390625E-09;-0,648590087890625;10;773;1,08377523720264E-07;-1,10347829759121E-07;100 nA
-0,70068359375;394,316375004447;-8,6639404296875E-09;-0,69854736328125;10;774;1,08377523720264E-07;-1,10347829759121E-07;100 nA
-0,750732421875;394,816863003183;-8,7982177734375E-09;-0,74859619140625;10;775;1,08377523720264E-07;-1,10347829759121E-07;100 nA
-0,80078125;395,31735100192;-8,9019775390625E-09;-0,7989501953125;10;776;1,08377523720264E-07;-1,10347829759121E-07;100 nA
-0,850830078125;395,817839000656;-8,9691162109375E-09;-0,8489990234375;10;777;1,08377523720264E-07;-1,10347829759121E-07;100 nA
-0,90087890625;396,318326999392;-9,0362548828125E-09;-0,89874267578125;10;778;1,08377523720264E-07;-1,10347829759121E-07;100 nA
-0,950927734375;396,818814998129;-9,1278076171875E-09;-0,94940185546875;10;779;1,08377523720264E-07;-1,10347829759121E-07;100 nA
-1,0009765625;397,319302996865;-9,28955078125E-09;-0,9991455078125;10;780;1,08377523720264E-07;-1,10347829759121E-07;100 nA
-0,950927734375;397,819790995602;-5,859375E-09;-0,9490966796875;10;781;1,08377523720264E-07;-1,10347829759121E-07;100 nA
-0,90087890625;398,320278994338;-3,765869140625E-09;-0,89874267578125;10;782;1,08377523720264E-07;-1,10347829759121E-07;100 nA
-0,850830078125;398,820766993074;-2,252197265625E-09;-0,8489990234375;10;783;1,08377523720264E-07;-1,10347829759121E-07;100 nA
-0,80078125;399,321254991811;-1,1505126953125E-09;-0,7989501953125;10;784;1,08377523720264E-07;-1,10347829759121E-07;100 nA
-0,750732421875;399,821742990547;-2,44140625E-10;-0,7486572265625;10;785;1,08377523720264E-07;-1,10347829759121E-07;100 nA
-0,70068359375;400,322230989284;5,92041015625E-10;-0,69866943359375;10;786;1,08377523720264E-07;-1,10347829759121E-07;100 nA
-0,650634765625;400,82271898802;1,33056640625E-09;-0,648651123046875;10;787;1,08377523720264E-07;-1,10347829759121E-07;100 nA
-0,6005859375;401,323206986756;2,0233154296875E-09;-0,5987548828125;10;788;1,08377523720264E-07;-1,10347829759121E-07;100 nA
-0,550537109375;401,823694985493;2,685546875E-09;-0,548828125;10;789;1,08377523720264E-07;-1,10347829759121E-07;100 nA
-0,50048828125;402,324182984229;3,3172607421875E-09;-0,498870849609375;10;790;1,08377523720264E-07;-1,10347829759121E-07;100 nA
-0,450439453125;402,824670982965;3,912353515625E-09;-0,44903564453125;10;791;1,08377523720264E-07;-1,10347829759121E-07;100 nA
-0,400390625;403,325158981702;4,583740234375E-09;-0,39910888671875;10;792;1,08377523720264E-07;-1,10347829759121E-07;100 nA
-0,350341796875;403,825646980438;5,4229736328125E-09;-0,349365234375;10;793;1,08377523720264E-07;-1,10347829759121E-07;100 nA
-0,30029296875;404,326134979175;6,3140869140625E-09;-0,29931640625;10;794;1,08377523720264E-07;-1,10347829759121E-07;100 nA
-0,250244140625;404,826622977911;6,8267822265625E-09;-0,24945068359375;10;795;1,08377523720264E-07;-1,10347829759121E-07;100 nA
-0,2001953125;405,327110976647;7,025146484375E-09;-0,19952392578125;10;796;1,08377523720264E-07;-1,10347829759121E-07;100 nA
-0,150146484375;405,827598975384;7,2113037109375E-09;-0,149627685546875;10;797;1,08377523720264E-07;-1,10347829759121E-07;100 nA
-0,10009765625;406,32808697412;7,2265625E-09;-0,0997314453125;10;798;1,08377523720264E-07;-1,10347829759121E-07;100 nA
-0,050048828125;406,828574972857;6,7474365234375E-09;-0,049896240234375;10;799;1,08377523720264E-07;-1,10347829759121E-07;100 nA
0;407,329062971593;5,9844970703125E-09;9,76562499999944E-05;10;800;1,08377523720264E-07;-1,10347829759121E-07;100 nA
