Potential applied (V);Time (s);WE(1).Current (A);WE(1).Potential (V);Scan;Index;Q+;Q-;Current range
0,050048828125;8,74030897793284;5,7373046875E-10;0,050079345703125;1;1;9,2584528028965E-08;-1,00432150065899E-07;100 nA
0,10009765625;9,24079697666923;1,2939453125E-09;0,100067138671875;1;2;9,2584528028965E-08;-1,00432150065899E-07;100 nA
0,150146484375;9,74128497540562;1,898193359375E-09;0,15008544921875;1;3;9,2584528028965E-08;-1,00432150065899E-07;100 nA
0,2001953125;10,241772974142;2,6885986328125E-09;0,200042724609375;1;4;9,2584528028965E-08;-1,00432150065899E-07;100 nA
0,250244140625;10,7422609728784;3,6712646484375E-09;0,250030517578125;1;5;9,2584528028965E-08;-1,00432150065899E-07;100 nA
0,30029296875;11,2427489716148;4,7821044921875E-09;0,30010986328125;1;6;9,2584528028965E-08;-1,00432150065899E-07;100 nA
0,350341796875;11,7432369703512;5,938720703125E-09;0,350067138671875;1;7;9,2584528028965E-08;-1,00432150065899E-07;100 nA
0,400390625;12,2437249690876;7,0587158203125E-09;0,40008544921875;1;8;9,2584528028965E-08;-1,00432150065899E-07;100 nA
0,450439453125;12,744212967824;8,09326171875E-09;0,45001220703125;1;9;9,2584528028965E-08;-1,00432150065899E-07;100 nA
0,50048828125;13,2447009665603;8,8287353515625E-09;0,500030517578125;1;10;9,2584528028965E-08;-1,00432150065899E-07;100 nA
0,550537109375;13,7451889652967;9,1217041015625E-09;0,550079345703125;1;11;9,2584528028965E-08;-1,00432150065899E-07;100 nA
0,6005859375;14,2456769640331;9,130859375E-09;0,600006103515625;1;12;9,2584528028965E-08;-1,00432150065899E-07;100 nA
0,650634765625;14,7461649627695;8,9202880859375E-09;0,6500244140625;1;13;9,2584528028965E-08;-1,00432150065899E-07;100 nA
0,70068359375;15,2466529615059;8,70361328125E-09;0,69989013671875;1;14;9,2584528028965E-08;-1,00432150065899E-07;100 nA
0,750732421875;15,7471409602423;8,55712890625E-09;0,74981689453125;1;15;9,2584528028965E-08;-1,00432150065899E-07;100 nA
0,80078125;16,2476289589787;8,5479736328125E-09;0,79986572265625;1;16;9,2584528028965E-08;-1,00432150065899E-07;100 nA
0,850830078125;16,7481169577151;8,53271484375E-09;0,8489990234375;1;17;9,2584528028965E-08;-1,00432150065899E-07;100 nA
0,90087890625;17,2486049564515;8,63037109375E-09;0,899658203125;1;18;9,2584528028965E-08;-1,00432150065899E-07;100 nA
0,950927734375;17,7490929551878;8,807373046875E-09;0,94970703125;1;19;9,2584528028965E-08;-1,00432150065899E-07;100 nA
1,0009765625;18,2495809539242;9,09423828125E-09;0,999755859375;1;20;9,2584528028965E-08;-1,00432150065899E-07;100 nA
0,950927734375;18,7500689526606;5,2642822265625E-09;0,94970703125;1;21;9,2584528028965E-08;-1,00432150065899E-07;100 nA
0,90087890625;19,250556951397;3,4088134765625E-09;0,89935302734375;1;22;9,2584528028965E-08;-1,00432150065899E-07;100 nA
0,850830078125;19,7510449501334;2,3040771484375E-09;0,84930419921875;1;23;9,2584528028965E-08;-1,00432150065899E-07;100 nA
0,80078125;20,2515329488698;1,4556884765625E-09;0,799560546875;1;24;9,2584528028965E-08;-1,00432150065899E-07;100 nA
0,750732421875;20,7520209476062;8,4228515625E-10;0,749786376953125;1;25;9,2584528028965E-08;-1,00432150065899E-07;100 nA
0,70068359375;21,2525089463426;2,99072265625E-10;0,699951171875;1;26;9,2584528028965E-08;-1,00432150065899E-07;100 nA
0,650634765625;21,752996945079;-2,5634765625E-10;0,649993896484375;1;27;9,2584528028965E-08;-1,00432150065899E-07;100 nA
0,6005859375;22,2534849438154;-8,72802734375E-10;0,60009765625;1;28;9,2584528028965E-08;-1,00432150065899E-07;100 nA
0,550537109375;22,7539729425517;-1,6082763671875E-09;0,550079345703125;1;29;9,2584528028965E-08;-1,00432150065899E-07;100 nA
0,50048828125;23,2544609412881;-2,4871826171875E-09;0,500091552734375;1;30;9,2584528028965E-08;-1,00432150065899E-07;100 nA
0,450439453125;23,7549489400245;-3,436279296875E-09;0,450103759765625;1;31;9,2584528028965E-08;-1,00432150065899E-07;100 nA
0,400390625;24,2554369387609;-4,30908203125E-09;0,40008544921875;1;32;9,2584528028965E-08;-1,00432150065899E-07;100 nA
0,350341796875;24,7559249374973;-5,09033203125E-09;0,350128173828125;1;33;9,2584528028965E-08;-1,00432150065899E-07;100 nA
0,30029296875;25,2564129362337;-5,8441162109375E-09;0,300048828125;1;34;9,2584528028965E-08;-1,00432150065899E-07;100 nA
0,250244140625;25,7569009349701;-6,6375732421875E-09;0,25006103515625;1;35;9,2584528028965E-08;-1,00432150065899E-07;100 nA
0,2001953125;26,2573889337065;-7,3089599609375E-09;0,20001220703125;1;36;9,2584528028965E-08;-1,00432150065899E-07;100 nA
0,150146484375;26,7578769324429;-8,1268310546875E-09;0,150054931640625;1;37;9,2584528028965E-08;-1,00432150065899E-07;100 nA
0,10009765625;27,2583649311792;-8,9935302734375E-09;0,10003662109375;1;38;9,2584528028965E-08;-1,00432150065899E-07;100 nA
0,050048828125;27,7588529299156;-9,8876953125E-09;0,050079345703125;1;39;9,2584528028965E-08;-1,00432150065899E-07;100 nA
0;28,259340928652;-1,08154296875E-08;0,000109863281249997;1;40;9,2584528028965E-08;-1,00432150065899E-07;100 nA
-0,050048828125;28,7598289273884;-1,05133056640625E-08;-0,04986572265625;1;41;9,2584528028965E-08;-1,00432150065899E-07;100 nA
-0,10009765625;29,2603169261248;-6,0943603515625E-09;-0,0997314453125;1;42;9,2584528028965E-08;-1,00432150065899E-07;100 nA
-0,150146484375;29,7608049248612;-4,559326171875E-09;-0,149566650390625;1;43;9,2584528028965E-08;-1,00432150065899E-07;100 nA
-0,2001953125;30,2612929235976;-4,7119140625E-09;-0,199493408203125;1;44;9,2584528028965E-08;-1,00432150065899E-07;100 nA
-0,250244140625;30,761780922334;-5,1025390625E-09;-0,249298095703125;1;45;9,2584528028965E-08;-1,00432150065899E-07;100 nA
-0,30029296875;31,2622689210704;-5,3985595703125E-09;-0,29925537109375;1;46;9,2584528028965E-08;-1,00432150065899E-07;100 nA
-0,350341796875;31,7627569198067;-5,4290771484375E-09;-0,34918212890625;1;47;9,2584528028965E-08;-1,00432150065899E-07;100 nA
-0,400390625;32,2632449185431;-5,419921875E-09;-0,39910888671875;1;48;9,2584528028965E-08;-1,00432150065899E-07;100 nA
-0,450439453125;32,7637329172795;-5,487060546875E-09;-0,448944091796875;1;49;9,2584528028965E-08;-1,00432150065899E-07;100 nA
-0,50048828125;33,2642209160159;-5,535888671875E-09;-0,498748779296875;1;50;9,2584528028965E-08;-1,00432150065899E-07;100 nA
-0,550537109375;33,7647089147523;-5,4901123046875E-09;-0,5487060546875;1;51;9,2584528028965E-08;-1,00432150065899E-07;100 nA
-0,6005859375;34,2651969134887;-5,4046630859375E-09;-0,5986328125;1;52;9,2584528028965E-08;-1,00432150065899E-07;100 nA
-0,650634765625;34,7656849122251;-5,401611328125E-09;-0,648590087890625;1;53;9,2584528028965E-08;-1,00432150065899E-07;100 nA
-0,70068359375;35,2661729109615;-5,4107666015625E-09;-0,6986083984375;1;54;9,2584528028965E-08;-1,00432150065899E-07;100 nA
-0,750732421875;35,7666609096979;-5,413818359375E-09;-0,748565673828125;1;55;9,2584528028965E-08;-1,00432150065899E-07;100 nA
-0,80078125;36,2671489084343;-5,4962158203125E-09;-0,79833984375;1;56;9,2584528028965E-08;-1,00432150065899E-07;100 nA
-0,850830078125;36,7676369071706;-5,6640625E-09;-0,84869384765625;1;57;9,2584528028965E-08;-1,00432150065899E-07;100 nA
-0,90087890625;37,268124905907;-5,8746337890625E-09;-0,89874267578125;1;58;9,2584528028965E-08;-1,00432150065899E-07;100 nA
-0,950927734375;37,7686129046434;-6,231689453125E-09;-0,94879150390625;1;59;9,2584528028965E-08;-1,00432150065899E-07;100 nA
-1,0009765625;38,2691009033798;-6,622314453125E-09;-0,99884033203125;1;60;9,2584528028965E-08;-1,00432150065899E-07;100 nA
-0,950927734375;38,7695889021162;-3,8604736328125E-09;-0,9490966796875;1;61;9,2584528028965E-08;-1,00432150065899E-07;100 nA
-0,90087890625;39,2700769008526;-2,4932861328125E-09;-0,89874267578125;1;62;9,2584528028965E-08;-1,00432150065899E-07;100 nA
-0,850830078125;39,770564899589;-1,6021728515625E-09;-0,8489990234375;1;63;9,2584528028965E-08;-1,00432150065899E-07;100 nA
-0,80078125;40,2710528983254;-1,0406494140625E-09;-0,79864501953125;1;64;9,2584528028965E-08;-1,00432150065899E-07;100 nA
-0,750732421875;40,7715408970618;-5,92041015625E-10;-0,74859619140625;1;65;9,2584528028965E-08;-1,00432150065899E-07;100 nA
-0,70068359375;41,2720288957981;-1,434326171875E-10;-0,6986083984375;1;66;9,2584528028965E-08;-1,00432150065899E-07;100 nA
-0,650634765625;41,7725168945345;2,44140625E-10;-0,648590087890625;1;67;9,2584528028965E-08;-1,00432150065899E-07;100 nA
-0,6005859375;42,2730048932709;6,256103515625E-10;-0,598724365234375;1;68;9,2584528028965E-08;-1,00432150065899E-07;100 nA
-0,550537109375;42,7734928920073;1,043701171875E-09;-0,5487060546875;1;69;9,2584528028965E-08;-1,00432150065899E-07;100 nA
-0,50048828125;43,2739808907437;1,4801025390625E-09;-0,498809814453125;1;70;9,2584528028965E-08;-1,00432150065899E-07;100 nA
-0,450439453125;43,7744688894801;1,898193359375E-09;-0,448974609375;1;71;9,2584528028965E-08;-1,00432150065899E-07;100 nA
-0,400390625;44,2749568882165;2,3101806640625E-09;-0,3990478515625;1;72;9,2584528028965E-08;-1,00432150065899E-07;100 nA
-0,350341796875;44,7754448869529;2,716064453125E-09;-0,34918212890625;1;73;9,2584528028965E-08;-1,00432150065899E-07;100 nA
-0,30029296875;45,2759328856893;3,2745361328125E-09;-0,299224853515625;1;74;9,2584528028965E-08;-1,00432150065899E-07;100 nA
-0,250244140625;45,7764208844256;4,193115234375E-09;-0,249359130859375;1;75;9,2584528028965E-08;-1,00432150065899E-07;100 nA
-0,2001953125;46,276908883162;4,74853515625E-09;-0,199432373046875;1;76;9,2584528028965E-08;-1,00432150065899E-07;100 nA
-0,150146484375;46,7773968818984;4,3304443359375E-09;-0,14959716796875;1;77;9,2584528028965E-08;-1,00432150065899E-07;100 nA
-0,10009765625;47,2778848806348;4,0618896484375E-09;-0,09967041015625;1;78;9,2584528028965E-08;-1,00432150065899E-07;100 nA
-0,050048828125;47,7783728793712;3,826904296875E-09;-0,049835205078125;1;79;9,2584528028965E-08;-1,00432150065899E-07;100 nA
0;48,2788608781076;3,7872314453125E-09;0,000115966796875006;1;80;9,2584528028965E-08;-1,00432150065899E-07;100 nA
0,050048828125;48,779348876844;3,863525390625E-09;0,050048828125;2;81;1,02098509669304E-07;-9,85580682754517E-08;100 nA
0,10009765625;49,2798368755804;4,1107177734375E-09;0,100128173828125;2;82;1,02098509669304E-07;-9,85580682754517E-08;100 nA
0,150146484375;49,7803248743168;4,5684814453125E-09;0,149993896484375;2;83;1,02098509669304E-07;-9,85580682754517E-08;100 nA
0,2001953125;50,2808128730532;5,2337646484375E-09;0,2000732421875;2;84;1,02098509669304E-07;-9,85580682754517E-08;100 nA
0,250244140625;50,7813008717895;6,1126708984375E-09;0,250030517578125;2;85;1,02098509669304E-07;-9,85580682754517E-08;100 nA
0,30029296875;51,2817888705259;7,080078125E-09;0,300018310546875;2;86;1,02098509669304E-07;-9,85580682754517E-08;100 nA
0,350341796875;51,7822768692623;8,0474853515625E-09;0,35009765625;2;87;1,02098509669304E-07;-9,85580682754517E-08;100 nA
0,400390625;52,2827648679987;8,8775634765625E-09;0,400054931640625;2;88;1,02098509669304E-07;-9,85580682754517E-08;100 nA
0,450439453125;52,7832528667351;9,564208984375E-09;0,450103759765625;2;89;1,02098509669304E-07;-9,85580682754517E-08;100 nA
0,50048828125;53,2837408654715;9,857177734375E-09;0,499969482421875;2;90;1,02098509669304E-07;-9,85580682754517E-08;100 nA
0,550537109375;53,7842288642079;9,722900390625E-09;0,55010986328125;2;91;1,02098509669304E-07;-9,85580682754517E-08;100 nA
0,6005859375;54,2847168629443;9,2254638671875E-09;0,600067138671875;2;92;1,02098509669304E-07;-9,85580682754517E-08;100 nA
0,650634765625;54,7852048616807;8,7066650390625E-09;0,6500244140625;2;93;1,02098509669304E-07;-9,85580682754517E-08;100 nA
0,70068359375;55,285692860417;8,28857421875E-09;0,6998291015625;2;94;1,02098509669304E-07;-9,85580682754517E-08;100 nA
0,750732421875;55,7861808591534;8,038330078125E-09;0,74981689453125;2;95;1,02098509669304E-07;-9,85580682754517E-08;100 nA
0,80078125;56,2866688578898;7,92236328125E-09;0,79986572265625;2;96;1,02098509669304E-07;-9,85580682754517E-08;100 nA
0,850830078125;56,7871568566262;7,9254150390625E-09;0,849609375;2;97;1,02098509669304E-07;-9,85580682754517E-08;100 nA
0,90087890625;57,2876448553626;8,1146240234375E-09;0,899658203125;2;98;1,02098509669304E-07;-9,85580682754517E-08;100 nA
0,950927734375;57,788132854099;8,331298828125E-09;0,94970703125;2;99;1,02098509669304E-07;-9,85580682754517E-08;100 nA
1,0009765625;58,2886208528354;8,67919921875E-09;0,99945068359375;2;100;1,02098509669304E-07;-9,85580682754517E-08;100 nA
0,950927734375;58,7891088515718;5,09033203125E-09;0,9490966796875;2;101;1,02098509669304E-07;-9,85580682754517E-08;100 nA
0,90087890625;59,2895968503082;3,3233642578125E-09;0,899658203125;2;102;1,02098509669304E-07;-9,85580682754517E-08;100 nA
0,850830078125;59,7900848490445;2,2491455078125E-09;0,849609375;2;103;1,02098509669304E-07;-9,85580682754517E-08;100 nA
0,80078125;60,2905728477809;1,5350341796875E-09;0,79986572265625;2;104;1,02098509669304E-07;-9,85580682754517E-08;100 nA
0,750732421875;60,7910608465173;9,368896484375E-10;0,74981689453125;2;105;1,02098509669304E-07;-9,85580682754517E-08;100 nA
0,70068359375;61,2915488452537;3,60107421875E-10;0,699920654296875;2;106;1,02098509669304E-07;-9,85580682754517E-08;100 nA
0,650634765625;61,7920368439901;-1,77001953125E-10;0,6500244140625;2;107;1,02098509669304E-07;-9,85580682754517E-08;100 nA
0,6005859375;62,2925248427265;-7,476806640625E-10;0,600128173828125;2;108;1,02098509669304E-07;-9,85580682754517E-08;100 nA
0,550537109375;62,7930128414629;-1,52587890625E-09;0,550079345703125;2;109;1,02098509669304E-07;-9,85580682754517E-08;100 nA
0,50048828125;63,2935008401993;-2,4383544921875E-09;0,500091552734375;2;110;1,02098509669304E-07;-9,85580682754517E-08;100 nA
0,450439453125;63,7939888389357;-3,33251953125E-09;0,450103759765625;2;111;1,02098509669304E-07;-9,85580682754517E-08;100 nA
0,400390625;64,2944768376721;-4,254150390625E-09;0,40008544921875;2;112;1,02098509669304E-07;-9,85580682754517E-08;100 nA
0,350341796875;64,7949648364084;-5,0567626953125E-09;0,35015869140625;2;113;1,02098509669304E-07;-9,85580682754517E-08;100 nA
0,30029296875;65,2954528351448;-5,8013916015625E-09;0,300079345703125;2;114;1,02098509669304E-07;-9,85580682754517E-08;100 nA
0,250244140625;65,7959408338812;-6,6009521484375E-09;0,250030517578125;2;115;1,02098509669304E-07;-9,85580682754517E-08;100 nA
0,2001953125;66,2964288326176;-7,3028564453125E-09;0,2000732421875;2;116;1,02098509669304E-07;-9,85580682754517E-08;100 nA
0,150146484375;66,796916831354;-8,1573486328125E-09;0,15008544921875;2;117;1,02098509669304E-07;-9,85580682754517E-08;100 nA
0,10009765625;67,2974048300904;-9,08203125E-09;0,100067138671875;2;118;1,02098509669304E-07;-9,85580682754517E-08;100 nA
0,050048828125;67,7978928288268;-9,9945068359375E-09;0,050079345703125;2;119;1,02098509669304E-07;-9,85580682754517E-08;100 nA
0;68,2983808275632;-1,08184814453125E-08;0,000115966796875006;2;120;1,02098509669304E-07;-9,85580682754517E-08;100 nA
-0,050048828125;68,7988688262996;-1,0333251953125E-08;-0,04986572265625;2;121;1,02098509669304E-07;-9,85580682754517E-08;100 nA
-0,10009765625;69,2993568250359;-6,0546875E-09;-0,099761962890625;2;122;1,02098509669304E-07;-9,85580682754517E-08;100 nA
-0,150146484375;69,7998448237723;-4,888916015625E-09;-0,1495361328125;2;123;1,02098509669304E-07;-9,85580682754517E-08;100 nA
-0,2001953125;70,3003328225087;-5,0628662109375E-09;-0,199462890625;2;124;1,02098509669304E-07;-9,85580682754517E-08;100 nA
-0,250244140625;70,8008208212451;-5,438232421875E-09;-0,249359130859375;2;125;1,02098509669304E-07;-9,85580682754517E-08;100 nA
-0,30029296875;71,3013088199815;-5,6671142578125E-09;-0,299285888671875;2;126;1,02098509669304E-07;-9,85580682754517E-08;100 nA
-0,350341796875;71,8017968187179;-5,657958984375E-09;-0,34918212890625;2;127;1,02098509669304E-07;-9,85580682754517E-08;100 nA
-0,400390625;72,3022848174543;-5,615234375E-09;-0,3990478515625;2;128;1,02098509669304E-07;-9,85580682754517E-08;100 nA
-0,450439453125;72,8027728161907;-5,560302734375E-09;-0,448974609375;2;129;1,02098509669304E-07;-9,85580682754517E-08;100 nA
-0,50048828125;73,3032608149271;-5,50537109375E-09;-0,49884033203125;2;130;1,02098509669304E-07;-9,85580682754517E-08;100 nA
-0,550537109375;73,8037488136634;-5,389404296875E-09;-0,548736572265625;2;131;1,02098509669304E-07;-9,85580682754517E-08;100 nA
-0,6005859375;74,3042368123998;-5,2215576171875E-09;-0,598602294921875;2;132;1,02098509669304E-07;-9,85580682754517E-08;100 nA
-0,650634765625;74,8047248111362;-5,06591796875E-09;-0,6485595703125;2;133;1,02098509669304E-07;-9,85580682754517E-08;100 nA
-0,70068359375;75,3052128098726;-5,035400390625E-09;-0,69854736328125;2;134;1,02098509669304E-07;-9,85580682754517E-08;100 nA
-0,750732421875;75,805700808609;-5,0323486328125E-09;-0,74853515625;2;135;1,02098509669304E-07;-9,85580682754517E-08;100 nA
-0,80078125;76,3061888073454;-5,0537109375E-09;-0,7989501953125;2;136;1,02098509669304E-07;-9,85580682754517E-08;100 nA
-0,850830078125;76,8066768060818;-5,181884765625E-09;-0,8489990234375;2;137;1,02098509669304E-07;-9,85580682754517E-08;100 nA
-0,90087890625;77,3071648048182;-5,3863525390625E-09;-0,8990478515625;2;138;1,02098509669304E-07;-9,85580682754517E-08;100 nA
-0,950927734375;77,8076528035546;-5,6549072265625E-09;-0,9490966796875;2;139;1,02098509669304E-07;-9,85580682754517E-08;100 nA
-1,0009765625;78,308140802291;-6,0699462890625E-09;-0,9991455078125;2;140;1,02098509669304E-07;-9,85580682754517E-08;100 nA
-0,950927734375;78,8086288010273;-3,558349609375E-09;-0,9490966796875;2;141;1,02098509669304E-07;-9,85580682754517E-08;100 nA
-0,90087890625;79,3091167997637;-2,2918701171875E-09;-0,8984375;2;142;1,02098509669304E-07;-9,85580682754517E-08;100 nA
-0,850830078125;79,8096047985001;-1,495361328125E-09;-0,84869384765625;2;143;1,02098509669304E-07;-9,85580682754517E-08;100 nA
-0,80078125;80,3100927972365;-8,97216796875E-10;-0,79864501953125;2;144;1,02098509669304E-07;-9,85580682754517E-08;100 nA
-0,750732421875;80,8105807959729;-4,39453125E-10;-0,74853515625;2;145;1,02098509669304E-07;-9,85580682754517E-08;100 nA
-0,70068359375;81,3110687947093;-7,62939453125E-11;-0,6986083984375;2;146;1,02098509669304E-07;-9,85580682754517E-08;100 nA
-0,650634765625;81,8115567934457;3,2958984375E-10;-0,6485595703125;2;147;1,02098509669304E-07;-9,85580682754517E-08;100 nA
-0,6005859375;82,3120447921821;6,744384765625E-10;-0,598663330078125;2;148;1,02098509669304E-07;-9,85580682754517E-08;100 nA
-0,550537109375;82,8125327909185;1,031494140625E-09;-0,548736572265625;2;149;1,02098509669304E-07;-9,85580682754517E-08;100 nA
-0,50048828125;83,3130207896548;1,434326171875E-09;-0,498870849609375;2;150;1,02098509669304E-07;-9,85580682754517E-08;100 nA
-0,450439453125;83,8135087883912;1,8646240234375E-09;-0,449005126953125;2;151;1,02098509669304E-07;-9,85580682754517E-08;100 nA
-0,400390625;84,3139967871276;2,2918701171875E-09;-0,399139404296875;2;152;1,02098509669304E-07;-9,85580682754517E-08;100 nA
-0,350341796875;84,814484785864;2,6763916015625E-09;-0,34918212890625;2;153;1,02098509669304E-07;-9,85580682754517E-08;100 nA
-0,30029296875;85,3149727846004;3,2379150390625E-09;-0,299285888671875;2;154;1,02098509669304E-07;-9,85580682754517E-08;100 nA
-0,250244140625;85,8154607833368;4,095458984375E-09;-0,2493896484375;2;155;1,02098509669304E-07;-9,85580682754517E-08;100 nA
-0,2001953125;86,3159487820732;4,681396484375E-09;-0,199462890625;2;156;1,02098509669304E-07;-9,85580682754517E-08;100 nA
-0,150146484375;86,8164367808096;4,2327880859375E-09;-0,149627685546875;2;157;1,02098509669304E-07;-9,85580682754517E-08;100 nA
-0,10009765625;87,316924779546;3,9886474609375E-09;-0,09967041015625;2;158;1,02098509669304E-07;-9,85580682754517E-08;100 nA
-0,050048828125;87,8174127782823;3,86962890625E-09;-0,049835205078125;2;159;1,02098509669304E-07;-9,85580682754517E-08;100 nA
0;88,3179007770187;3,8238525390625E-09;0,000103759765625003;2;160;1,02098509669304E-07;-9,85580682754517E-08;100 nA
0,050048828125;88,8183887757551;3,9276123046875E-09;0,050079345703125;3;161;1,01663209497929E-07;-9,7045972943306E-08;100 nA
0,10009765625;89,3188767744915;4,1656494140625E-09;0,10003662109375;3;162;1,01663209497929E-07;-9,7045972943306E-08;100 nA
0,150146484375;89,8193647732279;4,6051025390625E-09;0,150054931640625;3;163;1,01663209497929E-07;-9,7045972943306E-08;100 nA
0,2001953125;90,3198527719643;5,26123046875E-09;0,2000732421875;3;164;1,01663209497929E-07;-9,7045972943306E-08;100 nA
0,250244140625;90,8203407707007;6,121826171875E-09;0,2501220703125;3;165;1,01663209497929E-07;-9,7045972943306E-08;100 nA
0,30029296875;91,3208287694371;7,0892333984375E-09;0,300048828125;3;166;1,01663209497929E-07;-9,7045972943306E-08;100 nA
0,350341796875;91,8213167681735;8,0963134765625E-09;0,35015869140625;3;167;1,01663209497929E-07;-9,7045972943306E-08;100 nA
0,400390625;92,3218047669099;8,9202880859375E-09;0,400115966796875;3;168;1,01663209497929E-07;-9,7045972943306E-08;100 nA
0,450439453125;92,8222927656462;9,53369140625E-09;0,450103759765625;3;169;1,01663209497929E-07;-9,7045972943306E-08;100 nA
0,50048828125;93,3227807643826;9,844970703125E-09;0,500091552734375;3;170;1,01663209497929E-07;-9,7045972943306E-08;100 nA
0,550537109375;93,823268763119;9,6923828125E-09;0,550048828125;3;171;1,01663209497929E-07;-9,7045972943306E-08;100 nA
0,6005859375;94,3237567618554;9,2010498046875E-09;0,60003662109375;3;172;1,01663209497929E-07;-9,7045972943306E-08;100 nA
0,650634765625;94,8242447605918;8,636474609375E-09;0,6500244140625;3;173;1,01663209497929E-07;-9,7045972943306E-08;100 nA
0,70068359375;95,3247327593282;8,221435546875E-09;0,699920654296875;3;174;1,01663209497929E-07;-9,7045972943306E-08;100 nA
0,750732421875;95,8252207580646;7,9681396484375E-09;0,749847412109375;3;175;1,01663209497929E-07;-9,7045972943306E-08;100 nA
0,80078125;96,325708756801;7,82470703125E-09;0,799560546875;3;176;1,01663209497929E-07;-9,7045972943306E-08;100 nA
0,850830078125;96,8261967555374;7,8094482421875E-09;0,84991455078125;3;177;1,01663209497929E-07;-9,7045972943306E-08;100 nA
0,90087890625;97,3266847542737;7,928466796875E-09;0,89935302734375;3;178;1,01663209497929E-07;-9,7045972943306E-08;100 nA
0,950927734375;97,8271727530101;8,14208984375E-09;0,95001220703125;3;179;1,01663209497929E-07;-9,7045972943306E-08;100 nA
1,0009765625;98,3276607517465;8,4991455078125E-09;0,99884033203125;3;180;1,01663209497929E-07;-9,7045972943306E-08;100 nA
0,950927734375;98,8281487504829;4,9407958984375E-09;0,94970703125;3;181;1,01663209497929E-07;-9,7045972943306E-08;100 nA
0,90087890625;99,3286367492193;3,2135009765625E-09;0,899658203125;3;182;1,01663209497929E-07;-9,7045972943306E-08;100 nA
0,850830078125;99,8291247479557;2,13623046875E-09;0,849609375;3;183;1,01663209497929E-07;-9,7045972943306E-08;100 nA
0,80078125;100,329612746692;1,37939453125E-09;0,79986572265625;3;184;1,01663209497929E-07;-9,7045972943306E-08;100 nA
0,750732421875;100,830100745428;7,537841796875E-10;0,749786376953125;3;185;1,01663209497929E-07;-9,7045972943306E-08;100 nA
0,70068359375;101,330588744165;2,655029296875E-10;0,6998291015625;3;186;1,01663209497929E-07;-9,7045972943306E-08;100 nA
0,650634765625;101,831076742901;-2,716064453125E-10;0,649993896484375;3;187;1,01663209497929E-07;-9,7045972943306E-08;100 nA
0,6005859375;102,331564741638;-8,23974609375E-10;0,600067138671875;3;188;1,01663209497929E-07;-9,7045972943306E-08;100 nA
0,550537109375;102,832052740374;-1,55029296875E-09;0,550048828125;3;189;1,01663209497929E-07;-9,7045972943306E-08;100 nA
0,50048828125;103,33254073911;-2,374267578125E-09;0,500030517578125;3;190;1,01663209497929E-07;-9,7045972943306E-08;100 nA
0,450439453125;103,833028737847;-3,2989501953125E-09;0,450042724609375;3;191;1,01663209497929E-07;-9,7045972943306E-08;100 nA
0,400390625;104,333516736583;-4,180908203125E-09;0,400054931640625;3;192;1,01663209497929E-07;-9,7045972943306E-08;100 nA
0,350341796875;104,83400473532;-4,9652099609375E-09;0,35003662109375;3;193;1,01663209497929E-07;-9,7045972943306E-08;100 nA
0,30029296875;105,334492734056;-5,6793212890625E-09;0,300079345703125;3;194;1,01663209497929E-07;-9,7045972943306E-08;100 nA
0,250244140625;105,834980732792;-6,4727783203125E-09;0,2501220703125;3;195;1,01663209497929E-07;-9,7045972943306E-08;100 nA
0,2001953125;106,335468731529;-7,1929931640625E-09;0,2000732421875;3;196;1,01663209497929E-07;-9,7045972943306E-08;100 nA
0,150146484375;106,835956730265;-8,0474853515625E-09;0,1500244140625;3;197;1,01663209497929E-07;-9,7045972943306E-08;100 nA
0,10009765625;107,336444729002;-8,9752197265625E-09;0,100128173828125;3;198;1,01663209497929E-07;-9,7045972943306E-08;100 nA
0,050048828125;107,836932727738;-9,8846435546875E-09;0,0501708984375;3;199;1,01663209497929E-07;-9,7045972943306E-08;100 nA
0;108,337420726474;-1,0443115234375E-08;0,000109863281249997;3;200;1,01663209497929E-07;-9,7045972943306E-08;100 nA
-0,050048828125;108,837908725211;-9,368896484375E-09;-0,049755859375;3;201;1,01663209497929E-07;-9,7045972943306E-08;100 nA
-0,10009765625;109,338396723947;-5,511474609375E-09;-0,099700927734375;3;202;1,01663209497929E-07;-9,7045972943306E-08;100 nA
-0,150146484375;109,838884722683;-4,82177734375E-09;-0,14959716796875;3;203;1,01663209497929E-07;-9,7045972943306E-08;100 nA
-0,2001953125;110,33937272142;-5,0567626953125E-09;-0,199462890625;3;204;1,01663209497929E-07;-9,7045972943306E-08;100 nA
-0,250244140625;110,839860720156;-5,3924560546875E-09;-0,249359130859375;3;205;1,01663209497929E-07;-9,7045972943306E-08;100 nA
-0,30029296875;111,340348718893;-5,6396484375E-09;-0,299224853515625;3;206;1,01663209497929E-07;-9,7045972943306E-08;100 nA
-0,350341796875;111,840836717629;-5,6488037109375E-09;-0,3492431640625;3;207;1,01663209497929E-07;-9,7045972943306E-08;100 nA
-0,400390625;112,341324716365;-5,60302734375E-09;-0,399078369140625;3;208;1,01663209497929E-07;-9,7045972943306E-08;100 nA
-0,450439453125;112,841812715102;-5,584716796875E-09;-0,448974609375;3;209;1,01663209497929E-07;-9,7045972943306E-08;100 nA
-0,50048828125;113,342300713838;-5,4962158203125E-09;-0,498809814453125;3;210;1,01663209497929E-07;-9,7045972943306E-08;100 nA
-0,550537109375;113,842788712575;-5,4168701171875E-09;-0,548797607421875;3;211;1,01663209497929E-07;-9,7045972943306E-08;100 nA
-0,6005859375;114,343276711311;-5,2734375E-09;-0,598602294921875;3;212;1,01663209497929E-07;-9,7045972943306E-08;100 nA
-0,650634765625;114,843764710047;-5,145263671875E-09;-0,64862060546875;3;213;1,01663209497929E-07;-9,7045972943306E-08;100 nA
-0,70068359375;115,344252708784;-5,06591796875E-09;-0,69854736328125;3;214;1,01663209497929E-07;-9,7045972943306E-08;100 nA
-0,750732421875;115,84474070752;-5,04150390625E-09;-0,74859619140625;3;215;1,01663209497929E-07;-9,7045972943306E-08;100 nA
-0,80078125;116,345228706257;-5,0689697265625E-09;-0,79833984375;3;216;1,01663209497929E-07;-9,7045972943306E-08;100 nA
-0,850830078125;116,845716704993;-5,1605224609375E-09;-0,848388671875;3;217;1,01663209497929E-07;-9,7045972943306E-08;100 nA
-0,90087890625;117,346204703729;-5,3314208984375E-09;-0,89813232421875;3;218;1,01663209497929E-07;-9,7045972943306E-08;100 nA
-0,950927734375;117,846692702466;-5,6365966796875E-09;-0,948486328125;3;219;1,01663209497929E-07;-9,7045972943306E-08;100 nA
-1,0009765625;118,347180701202;-5,96923828125E-09;-0,99853515625;3;220;1,01663209497929E-07;-9,7045972943306E-08;100 nA
-0,950927734375;118,847668699938;-3,521728515625E-09;-0,94940185546875;3;221;1,01663209497929E-07;-9,7045972943306E-08;100 nA
-0,90087890625;119,348156698675;-2,2491455078125E-09;-0,89874267578125;3;222;1,01663209497929E-07;-9,7045972943306E-08;100 nA
-0,850830078125;119,848644697411;-1,4801025390625E-09;-0,8489990234375;3;223;1,01663209497929E-07;-9,7045972943306E-08;100 nA
-0,80078125;120,349132696148;-8,636474609375E-10;-0,79833984375;3;224;1,01663209497929E-07;-9,7045972943306E-08;100 nA
-0,750732421875;120,849620694884;-3,936767578125E-10;-0,74859619140625;3;225;1,01663209497929E-07;-9,7045972943306E-08;100 nA
-0,70068359375;121,35010869362;3,0517578125E-12;-0,6986083984375;3;226;1,01663209497929E-07;-9,7045972943306E-08;100 nA
-0,650634765625;121,850596692357;3,84521484375E-10;-0,648590087890625;3;227;1,01663209497929E-07;-9,7045972943306E-08;100 nA
-0,6005859375;122,351084691093;7,6904296875E-10;-0,598602294921875;3;228;1,01663209497929E-07;-9,7045972943306E-08;100 nA
-0,550537109375;122,85157268983;1,1932373046875E-09;-0,54876708984375;3;229;1,01663209497929E-07;-9,7045972943306E-08;100 nA
-0,50048828125;123,352060688566;1,580810546875E-09;-0,498809814453125;3;230;1,01663209497929E-07;-9,7045972943306E-08;100 nA
-0,450439453125;123,852548687302;2,01416015625E-09;-0,448944091796875;3;231;1,01663209497929E-07;-9,7045972943306E-08;100 nA
-0,400390625;124,353036686039;2,423095703125E-09;-0,3990478515625;3;232;1,01663209497929E-07;-9,7045972943306E-08;100 nA
-0,350341796875;124,853524684775;2,8228759765625E-09;-0,34918212890625;3;233;1,01663209497929E-07;-9,7045972943306E-08;100 nA
-0,30029296875;125,354012683512;3,2989501953125E-09;-0,299285888671875;3;234;1,01663209497929E-07;-9,7045972943306E-08;100 nA
-0,250244140625;125,854500682248;4,052734375E-09;-0,2493896484375;3;235;1,01663209497929E-07;-9,7045972943306E-08;100 nA
-0,2001953125;126,354988680984;4,6356201171875E-09;-0,199493408203125;3;236;1,01663209497929E-07;-9,7045972943306E-08;100 nA
-0,150146484375;126,855476679721;4,248046875E-09;-0,149566650390625;3;237;1,01663209497929E-07;-9,7045972943306E-08;100 nA
-0,10009765625;127,355964678457;3,961181640625E-09;-0,09967041015625;3;238;1,01663209497929E-07;-9,7045972943306E-08;100 nA
-0,050048828125;127,856452677193;3,77197265625E-09;-0,049835205078125;3;239;1,01663209497929E-07;-9,7045972943306E-08;100 nA
0;128,35694067593;3,790283203125E-09;0,000109863281249997;3;240;1,01663209497929E-07;-9,7045972943306E-08;100 nA
0,050048828125;128,857428674666;3,875732421875E-09;0,050048828125;4;241;9,95325297117233E-08;-9,50527563691139E-08;100 nA
0,10009765625;129,357916673403;4,083251953125E-09;0,100067138671875;4;242;9,95325297117233E-08;-9,50527563691139E-08;100 nA
0,150146484375;129,858404672139;4,486083984375E-09;0,15008544921875;4;243;9,95325297117233E-08;-9,50527563691139E-08;100 nA
0,2001953125;130,358892670875;5,1361083984375E-09;0,2000732421875;4;244;9,95325297117233E-08;-9,50527563691139E-08;100 nA
0,250244140625;130,859380669612;5,95703125E-09;0,250030517578125;4;245;9,95325297117233E-08;-9,50527563691139E-08;100 nA
0,30029296875;131,359868668348;6,884765625E-09;0,300018310546875;4;246;9,95325297117233E-08;-9,50527563691139E-08;100 nA
0,350341796875;131,860356667085;7,8277587890625E-09;0,35009765625;4;247;9,95325297117233E-08;-9,50527563691139E-08;100 nA
0,400390625;132,360844665821;8,6639404296875E-09;0,40008544921875;4;248;9,95325297117233E-08;-9,50527563691139E-08;100 nA
0,450439453125;132,861332664557;9,2864990234375E-09;0,4500732421875;4;249;9,95325297117233E-08;-9,50527563691139E-08;100 nA
0,50048828125;133,361820663294;9,6038818359375E-09;0,50006103515625;4;250;9,95325297117233E-08;-9,50527563691139E-08;100 nA
0,550537109375;133,86230866203;9,4329833984375E-09;0,550048828125;4;251;9,95325297117233E-08;-9,50527563691139E-08;100 nA
0,6005859375;134,362796660767;8,9508056640625E-09;0,60003662109375;4;252;9,95325297117233E-08;-9,50527563691139E-08;100 nA
0,650634765625;134,863284659503;8,4197998046875E-09;0,64996337890625;4;253;9,95325297117233E-08;-9,50527563691139E-08;100 nA
0,70068359375;135,363772658239;8,026123046875E-09;0,6998291015625;4;254;9,95325297117233E-08;-9,50527563691139E-08;100 nA
0,750732421875;135,864260656976;7,8216552734375E-09;0,74981689453125;4;255;9,95325297117233E-08;-9,50527563691139E-08;100 nA
0,80078125;136,364748655712;7,672119140625E-09;0,79986572265625;4;256;9,95325297117233E-08;-9,50527563691139E-08;100 nA
0,850830078125;136,865236654448;7,672119140625E-09;0,84991455078125;4;257;9,95325297117233E-08;-9,50527563691139E-08;100 nA
0,90087890625;137,365724653185;7,769775390625E-09;0,899658203125;4;258;9,95325297117233E-08;-9,50527563691139E-08;100 nA
0,950927734375;137,866212651921;8,0291748046875E-09;0,95001220703125;4;259;9,95325297117233E-08;-9,50527563691139E-08;100 nA
1,0009765625;138,366700650658;8,3740234375E-09;1,0003662109375;4;260;9,95325297117233E-08;-9,50527563691139E-08;100 nA
0,950927734375;138,867188649394;4,8980712890625E-09;0,94970703125;4;261;9,95325297117233E-08;-9,50527563691139E-08;100 nA
0,90087890625;139,36767664813;3,13720703125E-09;0,899658203125;4;262;9,95325297117233E-08;-9,50527563691139E-08;100 nA
0,850830078125;139,868164646867;2,130126953125E-09;0,849609375;4;263;9,95325297117233E-08;-9,50527563691139E-08;100 nA
0,80078125;140,368652645603;1,4129638671875E-09;0,79986572265625;4;264;9,95325297117233E-08;-9,50527563691139E-08;100 nA
0,750732421875;140,86914064434;8,575439453125E-10;0,749786376953125;4;265;9,95325297117233E-08;-9,50527563691139E-08;100 nA
0,70068359375;141,369628643076;3,41796875E-10;0,699920654296875;4;266;9,95325297117233E-08;-9,50527563691139E-08;100 nA
0,650634765625;141,870116641812;-1,64794921875E-10;0,649993896484375;4;267;9,95325297117233E-08;-9,50527563691139E-08;100 nA
0,6005859375;142,370604640549;-7,38525390625E-10;0,60009765625;4;268;9,95325297117233E-08;-9,50527563691139E-08;100 nA
0,550537109375;142,871092639285;-1,416015625E-09;0,550079345703125;4;269;9,95325297117233E-08;-9,50527563691139E-08;100 nA
0,50048828125;143,371580638022;-2,2613525390625E-09;0,5001220703125;4;270;9,95325297117233E-08;-9,50527563691139E-08;100 nA
0,450439453125;143,872068636758;-3,2012939453125E-09;0,450103759765625;4;271;9,95325297117233E-08;-9,50527563691139E-08;100 nA
0,400390625;144,372556635494;-4,0863037109375E-09;0,400146484375;4;272;9,95325297117233E-08;-9,50527563691139E-08;100 nA
0,350341796875;144,873044634231;-4,864501953125E-09;0,35009765625;4;273;9,95325297117233E-08;-9,50527563691139E-08;100 nA
0,30029296875;145,373532632967;-5,615234375E-09;0,300048828125;4;274;9,95325297117233E-08;-9,50527563691139E-08;100 nA
0,250244140625;145,874020631704;-6,4239501953125E-09;0,250091552734375;4;275;9,95325297117233E-08;-9,50527563691139E-08;100 nA
0,2001953125;146,37450863044;-7,16552734375E-09;0,2000732421875;4;276;9,95325297117233E-08;-9,50527563691139E-08;100 nA
0,150146484375;146,874996629176;-8,087158203125E-09;0,150054931640625;4;277;9,95325297117233E-08;-9,50527563691139E-08;100 nA
0,10009765625;147,375484627913;-8,97216796875E-09;0,100067138671875;4;278;9,95325297117233E-08;-9,50527563691139E-08;100 nA
0,050048828125;147,875972626649;-9,716796875E-09;0,050140380859375;4;279;9,95325297117233E-08;-9,50527563691139E-08;100 nA
0;148,376460625385;-1,00250244140625E-08;0,000100708007812506;4;280;9,95325297117233E-08;-9,50527563691139E-08;100 nA
-0,050048828125;148,876948624122;-8,428955078125E-09;-0,0497467041015625;4;281;9,95325297117233E-08;-9,50527563691139E-08;100 nA
-0,10009765625;149,377436622858;-5,1849365234375E-09;-0,0997314453125;4;282;9,95325297117233E-08;-9,50527563691139E-08;100 nA
-0,150146484375;149,877924621595;-4,7821044921875E-09;-0,149505615234375;4;283;9,95325297117233E-08;-9,50527563691139E-08;100 nA
-0,2001953125;150,378412620331;-5,0262451171875E-09;-0,199462890625;4;284;9,95325297117233E-08;-9,50527563691139E-08;100 nA
-0,250244140625;150,878900619067;-5,3802490234375E-09;-0,249359130859375;4;285;9,95325297117233E-08;-9,50527563691139E-08;100 nA
-0,30029296875;151,379388617804;-5,584716796875E-09;-0,29925537109375;4;286;9,95325297117233E-08;-9,50527563691139E-08;100 nA
-0,350341796875;151,87987661654;-5,5633544921875E-09;-0,349151611328125;4;287;9,95325297117233E-08;-9,50527563691139E-08;100 nA
-0,400390625;152,380364615277;-5,5419921875E-09;-0,399078369140625;4;288;9,95325297117233E-08;-9,50527563691139E-08;100 nA
-0,450439453125;152,880852614013;-5,5206298828125E-09;-0,44891357421875;4;289;9,95325297117233E-08;-9,50527563691139E-08;100 nA
-0,50048828125;153,381340612749;-5,413818359375E-09;-0,498809814453125;4;290;9,95325297117233E-08;-9,50527563691139E-08;100 nA
-0,550537109375;153,881828611486;-5,3131103515625E-09;-0,54876708984375;4;291;9,95325297117233E-08;-9,50527563691139E-08;100 nA
-0,6005859375;154,382316610222;-5,145263671875E-09;-0,5986328125;4;292;9,95325297117233E-08;-9,50527563691139E-08;100 nA
-0,650634765625;154,882804608959;-5,1025390625E-09;-0,648651123046875;4;293;9,95325297117233E-08;-9,50527563691139E-08;100 nA
-0,70068359375;155,383292607695;-5,0079345703125E-09;-0,698577880859375;4;294;9,95325297117233E-08;-9,50527563691139E-08;100 nA
-0,750732421875;155,883780606431;-4,99267578125E-09;-0,748565673828125;4;295;9,95325297117233E-08;-9,50527563691139E-08;100 nA
-0,80078125;156,384268605168;-5,010986328125E-09;-0,79864501953125;4;296;9,95325297117233E-08;-9,50527563691139E-08;100 nA
-0,850830078125;156,884756603904;-5,09033203125E-09;-0,848388671875;4;297;9,95325297117233E-08;-9,50527563691139E-08;100 nA
-0,90087890625;157,38524460264;-5,2520751953125E-09;-0,89874267578125;4;298;9,95325297117233E-08;-9,50527563691139E-08;100 nA
-0,950927734375;157,885732601377;-5,499267578125E-09;-0,9490966796875;4;299;9,95325297117233E-08;-9,50527563691139E-08;100 nA
-1,0009765625;158,386220600113;-5,84716796875E-09;-0,99884033203125;4;300;9,95325297117233E-08;-9,50527563691139E-08;100 nA
-0,950927734375;158,88670859885;-3,4332275390625E-09;-0,94879150390625;4;301;9,95325297117233E-08;-9,50527563691139E-08;100 nA
-0,90087890625;159,387196597586;-2,23388671875E-09;-0,8990478515625;4;302;9,95325297117233E-08;-9,50527563691139E-08;100 nA
-0,850830078125;159,887684596322;-1,470947265625E-09;-0,84869384765625;4;303;9,95325297117233E-08;-9,50527563691139E-08;100 nA
-0,80078125;160,388172595059;-8,880615234375E-10;-0,79833984375;4;304;9,95325297117233E-08;-9,50527563691139E-08;100 nA
-0,750732421875;160,888660593795;-4,5166015625E-10;-0,74859619140625;4;305;9,95325297117233E-08;-9,50527563691139E-08;100 nA
-0,70068359375;161,389148592532;-1,52587890625E-11;-0,6986083984375;4;306;9,95325297117233E-08;-9,50527563691139E-08;100 nA
-0,650634765625;161,889636591268;3,23486328125E-10;-0,648651123046875;4;307;9,95325297117233E-08;-9,50527563691139E-08;100 nA
-0,6005859375;162,390124590004;7,26318359375E-10;-0,598602294921875;4;308;9,95325297117233E-08;-9,50527563691139E-08;100 nA
-0,550537109375;162,890612588741;1,141357421875E-09;-0,54876708984375;4;309;9,95325297117233E-08;-9,50527563691139E-08;100 nA
-0,50048828125;163,391100587477;1,556396484375E-09;-0,498809814453125;4;310;9,95325297117233E-08;-9,50527563691139E-08;100 nA
-0,450439453125;163,891588586214;1,9805908203125E-09;-0,44891357421875;4;311;9,95325297117233E-08;-9,50527563691139E-08;100 nA
-0,400390625;164,39207658495;2,410888671875E-09;-0,399078369140625;4;312;9,95325297117233E-08;-9,50527563691139E-08;100 nA
-0,350341796875;164,892564583686;2,813720703125E-09;-0,34912109375;4;313;9,95325297117233E-08;-9,50527563691139E-08;100 nA
-0,30029296875;165,393052582423;3,265380859375E-09;-0,29925537109375;4;314;9,95325297117233E-08;-9,50527563691139E-08;100 nA
-0,250244140625;165,893540581159;3,936767578125E-09;-0,249298095703125;4;315;9,95325297117233E-08;-9,50527563691139E-08;100 nA
-0,2001953125;166,394028579895;4,473876953125E-09;-0,199432373046875;4;316;9,95325297117233E-08;-9,50527563691139E-08;100 nA
-0,150146484375;166,894516578632;4,1015625E-09;-0,1495361328125;4;317;9,95325297117233E-08;-9,50527563691139E-08;100 nA
-0,10009765625;167,395004577368;3,8238525390625E-09;-0,099761962890625;4;318;9,95325297117233E-08;-9,50527563691139E-08;100 nA
-0,050048828125;167,895492576105;3,74755859375E-09;-0,04986572265625;4;319;9,95325297117233E-08;-9,50527563691139E-08;100 nA
0;168,395980574841;3,8177490234375E-09;0,000109863281249997;4;320;9,95325297117233E-08;-9,50527563691139E-08;100 nA
0,050048828125;168,896468573577;3,90625E-09;0,050079345703125;5;321;9,80372354388237E-08;-9,35070589184761E-08;100 nA
0,10009765625;169,396956572314;4,0771484375E-09;0,10003662109375;5;322;9,80372354388237E-08;-9,35070589184761E-08;100 nA
0,150146484375;169,89744457105;4,4158935546875E-09;0,1500244140625;5;323;9,80372354388237E-08;-9,35070589184761E-08;100 nA
0,2001953125;170,397932569787;5,029296875E-09;0,200042724609375;5;324;9,80372354388237E-08;-9,35070589184761E-08;100 nA
0,250244140625;170,898420568523;5,841064453125E-09;0,250030517578125;5;325;9,80372354388237E-08;-9,35070589184761E-08;100 nA
0,30029296875;171,398908567259;6,732177734375E-09;0,300048828125;5;326;9,80372354388237E-08;-9,35070589184761E-08;100 nA
0,350341796875;171,899396565996;7,6629638671875E-09;0,350006103515625;5;327;9,80372354388237E-08;-9,35070589184761E-08;100 nA
0,400390625;172,399884564732;8,5174560546875E-09;0,400054931640625;5;328;9,80372354388237E-08;-9,35070589184761E-08;100 nA
0,450439453125;172,900372563469;9,1217041015625E-09;0,45001220703125;5;329;9,80372354388237E-08;-9,35070589184761E-08;100 nA
0,50048828125;173,400860562205;9,393310546875E-09;0,500030517578125;5;330;9,80372354388237E-08;-9,35070589184761E-08;100 nA
0,550537109375;173,901348560941;9,2437744140625E-09;0,550048828125;5;331;9,80372354388237E-08;-9,35070589184761E-08;100 nA
0,6005859375;174,401836559678;8,7738037109375E-09;0,60009765625;5;332;9,80372354388237E-08;-9,35070589184761E-08;100 nA
0,650634765625;174,902324558414;8,2489013671875E-09;0,64996337890625;5;333;9,80372354388237E-08;-9,35070589184761E-08;100 nA
0,70068359375;175,40281255715;7,9345703125E-09;0,699859619140625;5;334;9,80372354388237E-08;-9,35070589184761E-08;100 nA
0,750732421875;175,903300555887;7,6751708984375E-09;0,749786376953125;5;335;9,80372354388237E-08;-9,35070589184761E-08;100 nA
0,80078125;176,403788554623;7,562255859375E-09;0,79986572265625;5;336;9,80372354388237E-08;-9,35070589184761E-08;100 nA
0,850830078125;176,90427655336;7,623291015625E-09;0,84991455078125;5;337;9,80372354388237E-08;-9,35070589184761E-08;100 nA
0,90087890625;177,404764552096;7,769775390625E-09;0,89935302734375;5;338;9,80372354388237E-08;-9,35070589184761E-08;100 nA
0,950927734375;177,905252550832;7,9742431640625E-09;0,94940185546875;5;339;9,80372354388237E-08;-9,35070589184761E-08;100 nA
1,0009765625;178,405740549569;8,3770751953125E-09;0,99945068359375;5;340;9,80372354388237E-08;-9,35070589184761E-08;100 nA
0,950927734375;178,906228548305;4,9163818359375E-09;0,94970703125;5;341;9,80372354388237E-08;-9,35070589184761E-08;100 nA
0,90087890625;179,406716547042;3,2073974609375E-09;0,89935302734375;5;342;9,80372354388237E-08;-9,35070589184761E-08;100 nA
0,850830078125;179,907204545778;2,178955078125E-09;0,84991455078125;5;343;9,80372354388237E-08;-9,35070589184761E-08;100 nA
0,80078125;180,407692544514;1,4892578125E-09;0,79986572265625;5;344;9,80372354388237E-08;-9,35070589184761E-08;100 nA
0,750732421875;180,908180543251;8,819580078125E-10;0,74981689453125;5;345;9,80372354388237E-08;-9,35070589184761E-08;100 nA
0,70068359375;181,408668541987;3,753662109375E-10;0,699920654296875;5;346;9,80372354388237E-08;-9,35070589184761E-08;100 nA
0,650634765625;181,909156540724;-1,373291015625E-10;0,650054931640625;5;347;9,80372354388237E-08;-9,35070589184761E-08;100 nA
0,6005859375;182,40964453946;-6,622314453125E-10;0,60003662109375;5;348;9,80372354388237E-08;-9,35070589184761E-08;100 nA
0,550537109375;182,910132538196;-1,373291015625E-09;0,55010986328125;5;349;9,80372354388237E-08;-9,35070589184761E-08;100 nA
0,50048828125;183,410620536933;-2,2003173828125E-09;0,50006103515625;5;350;9,80372354388237E-08;-9,35070589184761E-08;100 nA
0,450439453125;183,911108535669;-3,0975341796875E-09;0,4501953125;5;351;9,80372354388237E-08;-9,35070589184761E-08;100 nA
0,400390625;184,411596534405;-4,0435791015625E-09;0,400146484375;5;352;9,80372354388237E-08;-9,35070589184761E-08;100 nA
0,350341796875;184,912084533142;-4,852294921875E-09;0,350128173828125;5;353;9,80372354388237E-08;-9,35070589184761E-08;100 nA
0,30029296875;185,412572531878;-5,5908203125E-09;0,300079345703125;5;354;9,80372354388237E-08;-9,35070589184761E-08;100 nA
0,250244140625;185,913060530615;-6,4178466796875E-09;0,2501220703125;5;355;9,80372354388237E-08;-9,35070589184761E-08;100 nA
0,2001953125;186,413548529351;-7,1929931640625E-09;0,2000732421875;5;356;9,80372354388237E-08;-9,35070589184761E-08;100 nA
0,150146484375;186,914036528087;-8,111572265625E-09;0,15008544921875;5;357;9,80372354388237E-08;-9,35070589184761E-08;100 nA
0,10009765625;187,414524526824;-8,990478515625E-09;0,100067138671875;5;358;9,80372354388237E-08;-9,35070589184761E-08;100 nA
0,050048828125;187,91501252556;-9,6466064453125E-09;0,050079345703125;5;359;9,80372354388237E-08;-9,35070589184761E-08;100 nA
0;188,415500524297;-9,72900390625E-09;0,000103759765625003;5;360;9,80372354388237E-08;-9,35070589184761E-08;100 nA
-0,050048828125;188,915988523033;-7,745361328125E-09;-0,04986572265625;5;361;9,80372354388237E-08;-9,35070589184761E-08;100 nA
-0,10009765625;189,416476521769;-5,0567626953125E-09;-0,099700927734375;5;362;9,80372354388237E-08;-9,35070589184761E-08;100 nA
-0,150146484375;189,916964520506;-4,833984375E-09;-0,14959716796875;5;363;9,80372354388237E-08;-9,35070589184761E-08;100 nA
-0,2001953125;190,417452519242;-5,0811767578125E-09;-0,199432373046875;5;364;9,80372354388237E-08;-9,35070589184761E-08;100 nA
-0,250244140625;190,917940517979;-5,389404296875E-09;-0,2493896484375;5;365;9,80372354388237E-08;-9,35070589184761E-08;100 nA
-0,30029296875;191,418428516715;-5,596923828125E-09;-0,299285888671875;5;366;9,80372354388237E-08;-9,35070589184761E-08;100 nA
-0,350341796875;191,918916515451;-5,6243896484375E-09;-0,34918212890625;5;367;9,80372354388237E-08;-9,35070589184761E-08;100 nA
-0,400390625;192,419404514188;-5,5511474609375E-09;-0,399078369140625;5;368;9,80372354388237E-08;-9,35070589184761E-08;100 nA
-0,450439453125;192,919892512924;-5,5084228515625E-09;-0,448944091796875;5;369;9,80372354388237E-08;-9,35070589184761E-08;100 nA
-0,50048828125;193,42038051166;-5,4229736328125E-09;-0,4989013671875;5;370;9,80372354388237E-08;-9,35070589184761E-08;100 nA
-0,550537109375;193,920868510397;-5,267333984375E-09;-0,54876708984375;5;371;9,80372354388237E-08;-9,35070589184761E-08;100 nA
-0,6005859375;194,421356509133;-5,1300048828125E-09;-0,5986328125;5;372;9,80372354388237E-08;-9,35070589184761E-08;100 nA
-0,650634765625;194,92184450787;-5,0140380859375E-09;-0,64862060546875;5;373;9,80372354388237E-08;-9,35070589184761E-08;100 nA
-0,70068359375;195,422332506606;-4,931640625E-09;-0,6986083984375;5;374;9,80372354388237E-08;-9,35070589184761E-08;100 nA
-0,750732421875;195,922820505342;-4,8980712890625E-09;-0,748565673828125;5;375;9,80372354388237E-08;-9,35070589184761E-08;100 nA
-0,80078125;196,423308504079;-4,876708984375E-09;-0,79833984375;5;376;9,80372354388237E-08;-9,35070589184761E-08;100 nA
-0,850830078125;196,923796502815;-4,9713134765625E-09;-0,84869384765625;5;377;9,80372354388237E-08;-9,35070589184761E-08;100 nA
-0,90087890625;197,424284501552;-5,1055908203125E-09;-0,8984375;5;378;9,80372354388237E-08;-9,35070589184761E-08;100 nA
-0,950927734375;197,924772500288;-5,3558349609375E-09;-0,94879150390625;5;379;9,80372354388237E-08;-9,35070589184761E-08;100 nA
-1,0009765625;198,425260499024;-5,6915283203125E-09;-0,99945068359375;5;380;9,80372354388237E-08;-9,35070589184761E-08;100 nA
-0,950927734375;198,925748497761;-3,3111572265625E-09;-0,94879150390625;5;381;9,80372354388237E-08;-9,35070589184761E-08;100 nA
-0,90087890625;199,426236496497;-2,0721435546875E-09;-0,89874267578125;5;382;9,80372354388237E-08;-9,35070589184761E-08;100 nA
-0,850830078125;199,926724495234;-1,263427734375E-09;-0,8489990234375;5;383;9,80372354388237E-08;-9,35070589184761E-08;100 nA
-0,80078125;200,42721249397;-7,4462890625E-10;-0,79864501953125;5;384;9,80372354388237E-08;-9,35070589184761E-08;100 nA
-0,750732421875;200,927700492706;-3,41796875E-10;-0,74853515625;5;385;9,80372354388237E-08;-9,35070589184761E-08;100 nA
-0,70068359375;201,428188491443;3,662109375E-11;-0,6986083984375;5;386;9,80372354388237E-08;-9,35070589184761E-08;100 nA
-0,650634765625;201,928676490179;4,119873046875E-10;-0,648590087890625;5;387;9,80372354388237E-08;-9,35070589184761E-08;100 nA
-0,6005859375;202,429164488915;7,568359375E-10;-0,5986328125;5;388;9,80372354388237E-08;-9,35070589184761E-08;100 nA
-0,550537109375;202,929652487652;1,1322021484375E-09;-0,548736572265625;5;389;9,80372354388237E-08;-9,35070589184761E-08;100 nA
-0,50048828125;203,430140486388;1,5533447265625E-09;-0,498870849609375;5;390;9,80372354388237E-08;-9,35070589184761E-08;100 nA
-0,450439453125;203,930628485125;1,959228515625E-09;-0,448974609375;5;391;9,80372354388237E-08;-9,35070589184761E-08;100 nA
-0,400390625;204,431116483861;2,3681640625E-09;-0,3990478515625;5;392;9,80372354388237E-08;-9,35070589184761E-08;100 nA
-0,350341796875;204,931604482597;2,752685546875E-09;-0,34918212890625;5;393;9,80372354388237E-08;-9,35070589184761E-08;100 nA
-0,30029296875;205,432092481334;3,179931640625E-09;-0,29925537109375;5;394;9,80372354388237E-08;-9,35070589184761E-08;100 nA
-0,250244140625;205,93258048007;3,7567138671875E-09;-0,249359130859375;5;395;9,80372354388237E-08;-9,35070589184761E-08;100 nA
-0,2001953125;206,433068478807;4,2510986328125E-09;-0,199462890625;5;396;9,80372354388237E-08;-9,35070589184761E-08;100 nA
-0,150146484375;206,933556477543;3,912353515625E-09;-0,149627685546875;5;397;9,80372354388237E-08;-9,35070589184761E-08;100 nA
-0,10009765625;207,434044476279;3,668212890625E-09;-0,0997314453125;5;398;9,80372354388237E-08;-9,35070589184761E-08;100 nA
-0,050048828125;207,934532475016;3,60107421875E-09;-0,0498046875;5;399;9,80372354388237E-08;-9,35070589184761E-08;100 nA
0;208,435020473752;3,61328125E-09;0,000109863281249997;5;400;9,80372354388237E-08;-9,35070589184761E-08;100 nA
0,050048828125;208,935508472489;3,7078857421875E-09;0,050048828125;6;401;9,65862348675728E-08;-9,24699753522873E-08;100 nA
0,10009765625;209,435996471225;3,912353515625E-09;0,100006103515625;6;402;9,65862348675728E-08;-9,24699753522873E-08;100 nA
0,150146484375;209,936484469961;4,2816162109375E-09;0,1500244140625;6;403;9,65862348675728E-08;-9,24699753522873E-08;100 nA
0,2001953125;210,436972468698;4,8370361328125E-09;0,2000732421875;6;404;9,65862348675728E-08;-9,24699753522873E-08;100 nA
0,250244140625;210,937460467434;5,633544921875E-09;0,250030517578125;6;405;9,65862348675728E-08;-9,24699753522873E-08;100 nA
0,30029296875;211,437948466171;6,5155029296875E-09;0,300079345703125;6;406;9,65862348675728E-08;-9,24699753522873E-08;100 nA
0,350341796875;211,938436464907;7,452392578125E-09;0,350067138671875;6;407;9,65862348675728E-08;-9,24699753522873E-08;100 nA
0,400390625;212,438924463643;8,28857421875E-09;0,400054931640625;6;408;9,65862348675728E-08;-9,24699753522873E-08;100 nA
0,450439453125;212,93941246238;8,917236328125E-09;0,4500732421875;6;409;9,65862348675728E-08;-9,24699753522873E-08;100 nA
0,50048828125;213,439900461116;9,2041015625E-09;0,500030517578125;6;410;9,65862348675728E-08;-9,24699753522873E-08;100 nA
0,550537109375;213,940388459852;9,04541015625E-09;0,550079345703125;6;411;9,65862348675728E-08;-9,24699753522873E-08;100 nA
0,6005859375;214,440876458589;8,6090087890625E-09;0,60003662109375;6;412;9,65862348675728E-08;-9,24699753522873E-08;100 nA
0,650634765625;214,941364457325;8,23974609375E-09;0,6500244140625;6;413;9,65862348675728E-08;-9,24699753522873E-08;100 nA
0,70068359375;215,441852456062;7,9132080078125E-09;0,699920654296875;6;414;9,65862348675728E-08;-9,24699753522873E-08;100 nA
0,750732421875;215,942340454798;7,70263671875E-09;0,7498779296875;6;415;9,65862348675728E-08;-9,24699753522873E-08;100 nA
0,80078125;216,442828453534;7,635498046875E-09;0,79986572265625;6;416;9,65862348675728E-08;-9,24699753522873E-08;100 nA
0,850830078125;216,943316452271;7,6629638671875E-09;0,849609375;6;417;9,65862348675728E-08;-9,24699753522873E-08;100 nA
0,90087890625;217,443804451007;7,82470703125E-09;0,899658203125;6;418;9,65862348675728E-08;-9,24699753522873E-08;100 nA
0,950927734375;217,944292449744;8,0535888671875E-09;0,94940185546875;6;419;9,65862348675728E-08;-9,24699753522873E-08;100 nA
1,0009765625;218,44478044848;8,4014892578125E-09;0,999755859375;6;420;9,65862348675728E-08;-9,24699753522873E-08;100 nA
0,950927734375;218,945268447216;4,9774169921875E-09;0,9490966796875;6;421;9,65862348675728E-08;-9,24699753522873E-08;100 nA
0,90087890625;219,445756445953;3,2867431640625E-09;0,9002685546875;6;422;9,65862348675728E-08;-9,24699753522873E-08;100 nA
0,850830078125;219,946244444689;2,2003173828125E-09;0,84991455078125;6;423;9,65862348675728E-08;-9,24699753522873E-08;100 nA
0,80078125;220,446732443426;1,46484375E-09;0,79986572265625;6;424;9,65862348675728E-08;-9,24699753522873E-08;100 nA
0,750732421875;220,947220442162;8,697509765625E-10;0,749786376953125;6;425;9,65862348675728E-08;-9,24699753522873E-08;100 nA
0,70068359375;221,447708440898;3,265380859375E-10;0,699951171875;6;426;9,65862348675728E-08;-9,24699753522873E-08;100 nA
0,650634765625;221,948196439635;-1,5869140625E-10;0,6500244140625;6;427;9,65862348675728E-08;-9,24699753522873E-08;100 nA
0,6005859375;222,448684438371;-7,843017578125E-10;0,60009765625;6;428;9,65862348675728E-08;-9,24699753522873E-08;100 nA
0,550537109375;222,949172437107;-1,3641357421875E-09;0,55010986328125;6;429;9,65862348675728E-08;-9,24699753522873E-08;100 nA
0,50048828125;223,449660435844;-2,23388671875E-09;0,50006103515625;6;430;9,65862348675728E-08;-9,24699753522873E-08;100 nA
0,450439453125;223,95014843458;-3,1494140625E-09;0,4500732421875;6;431;9,65862348675728E-08;-9,24699753522873E-08;100 nA
0,400390625;224,450636433317;-4,107666015625E-09;0,40008544921875;6;432;9,65862348675728E-08;-9,24699753522873E-08;100 nA
0,350341796875;224,951124432053;-4,89501953125E-09;0,35009765625;6;433;9,65862348675728E-08;-9,24699753522873E-08;100 nA
0,30029296875;225,451612430789;-5,621337890625E-09;0,300048828125;6;434;9,65862348675728E-08;-9,24699753522873E-08;100 nA
0,250244140625;225,952100429526;-6,48193359375E-09;0,250091552734375;6;435;9,65862348675728E-08;-9,24699753522873E-08;100 nA
0,2001953125;226,452588428262;-7,2479248046875E-09;0,20001220703125;6;436;9,65862348675728E-08;-9,24699753522873E-08;100 nA
0,150146484375;226,953076426999;-8,1817626953125E-09;0,15008544921875;6;437;9,65862348675728E-08;-9,24699753522873E-08;100 nA
0,10009765625;227,453564425735;-8,99658203125E-09;0,100067138671875;6;438;9,65862348675728E-08;-9,24699753522873E-08;100 nA
0,050048828125;227,954052424471;-9,55810546875E-09;0,050079345703125;6;439;9,65862348675728E-08;-9,24699753522873E-08;100 nA
0;228,454540423208;-9,3292236328125E-09;8,85009765625028E-05;6;440;9,65862348675728E-08;-9,24699753522873E-08;100 nA
-0,050048828125;228,955028421944;-7,0404052734375E-09;-0,0498046875;6;441;9,65862348675728E-08;-9,24699753522873E-08;100 nA
-0,10009765625;229,455516420681;-4,9224853515625E-09;-0,0997314453125;6;442;9,65862348675728E-08;-9,24699753522873E-08;100 nA
-0,150146484375;229,956004419417;-4,815673828125E-09;-0,14959716796875;6;443;9,65862348675728E-08;-9,24699753522873E-08;100 nA
-0,2001953125;230,456492418153;-5,0537109375E-09;-0,199432373046875;6;444;9,65862348675728E-08;-9,24699753522873E-08;100 nA
-0,250244140625;230,95698041689;-5,377197265625E-09;-0,249359130859375;6;445;9,65862348675728E-08;-9,24699753522873E-08;100 nA
-0,30029296875;231,457468415626;-5,4901123046875E-09;-0,299285888671875;6;446;9,65862348675728E-08;-9,24699753522873E-08;100 nA
-0,350341796875;231,957956414362;-5,4656982421875E-09;-0,349151611328125;6;447;9,65862348675728E-08;-9,24699753522873E-08;100 nA
-0,400390625;232,458444413099;-5,43212890625E-09;-0,3990478515625;6;448;9,65862348675728E-08;-9,24699753522873E-08;100 nA
-0,450439453125;232,958932411835;-5,3955078125E-09;-0,449005126953125;6;449;9,65862348675728E-08;-9,24699753522873E-08;100 nA
-0,50048828125;233,459420410572;-5,3131103515625E-09;-0,498870849609375;6;450;9,65862348675728E-08;-9,24699753522873E-08;100 nA
-0,550537109375;233,959908409308;-5,13916015625E-09;-0,5487060546875;6;451;9,65862348675728E-08;-9,24699753522873E-08;100 nA
-0,6005859375;234,460396408044;-5,0201416015625E-09;-0,598663330078125;6;452;9,65862348675728E-08;-9,24699753522873E-08;100 nA
-0,650634765625;234,960884406781;-4,901123046875E-09;-0,64849853515625;6;453;9,65862348675728E-08;-9,24699753522873E-08;100 nA
-0,70068359375;235,461372405517;-4,827880859375E-09;-0,6986083984375;6;454;9,65862348675728E-08;-9,24699753522873E-08;100 nA
-0,750732421875;235,961860404254;-4,7882080078125E-09;-0,74859619140625;6;455;9,65862348675728E-08;-9,24699753522873E-08;100 nA
-0,80078125;236,46234840299;-4,840087890625E-09;-0,79833984375;6;456;9,65862348675728E-08;-9,24699753522873E-08;100 nA
-0,850830078125;236,962836401726;-4,91943359375E-09;-0,84869384765625;6;457;9,65862348675728E-08;-9,24699753522873E-08;100 nA
-0,90087890625;237,463324400463;-5,01708984375E-09;-0,89813232421875;6;458;9,65862348675728E-08;-9,24699753522873E-08;100 nA
-0,950927734375;237,963812399199;-5,2978515625E-09;-0,94940185546875;6;459;9,65862348675728E-08;-9,24699753522873E-08;100 nA
-1,0009765625;238,464300397936;-5,6488037109375E-09;-0,9991455078125;6;460;9,65862348675728E-08;-9,24699753522873E-08;100 nA
-0,950927734375;238,964788396672;-3,28369140625E-09;-0,94879150390625;6;461;9,65862348675728E-08;-9,24699753522873E-08;100 nA
-0,90087890625;239,465276395408;-2,1026611328125E-09;-0,8990478515625;6;462;9,65862348675728E-08;-9,24699753522873E-08;100 nA
-0,850830078125;239,965764394145;-1,35498046875E-09;-0,84869384765625;6;463;9,65862348675728E-08;-9,24699753522873E-08;100 nA
-0,80078125;240,466252392881;-8,087158203125E-10;-0,7989501953125;6;464;9,65862348675728E-08;-9,24699753522873E-08;100 nA
-0,750732421875;240,966740391617;-3,692626953125E-10;-0,74859619140625;6;465;9,65862348675728E-08;-9,24699753522873E-08;100 nA
-0,70068359375;241,467228390354;-2,44140625E-11;-0,6986083984375;6;466;9,65862348675728E-08;-9,24699753522873E-08;100 nA
-0,650634765625;241,96771638909;3,143310546875E-10;-0,648681640625;6;467;9,65862348675728E-08;-9,24699753522873E-08;100 nA
-0,6005859375;242,468204387827;7,26318359375E-10;-0,598663330078125;6;468;9,65862348675728E-08;-9,24699753522873E-08;100 nA
-0,550537109375;242,968692386563;1,0589599609375E-09;-0,54876708984375;6;469;9,65862348675728E-08;-9,24699753522873E-08;100 nA
-0,50048828125;243,469180385299;1,5228271484375E-09;-0,4989013671875;6;470;9,65862348675728E-08;-9,24699753522873E-08;100 nA
-0,450439453125;243,969668384036;1,9134521484375E-09;-0,449005126953125;6;471;9,65862348675728E-08;-9,24699753522873E-08;100 nA
-0,400390625;244,470156382772;2,288818359375E-09;-0,399139404296875;6;472;9,65862348675728E-08;-9,24699753522873E-08;100 nA
-0,350341796875;244,970644381509;2,703857421875E-09;-0,3492431640625;6;473;9,65862348675728E-08;-9,24699753522873E-08;100 nA
-0,30029296875;245,471132380245;3,08837890625E-09;-0,29925537109375;6;474;9,65862348675728E-08;-9,24699753522873E-08;100 nA
-0,250244140625;245,971620378981;3,5491943359375E-09;-0,2493896484375;6;475;9,65862348675728E-08;-9,24699753522873E-08;100 nA
-0,2001953125;246,472108377718;4,06494140625E-09;-0,199462890625;6;476;9,65862348675728E-08;-9,24699753522873E-08;100 nA
-0,150146484375;246,972596376454;3,8726806640625E-09;-0,14959716796875;6;477;9,65862348675728E-08;-9,24699753522873E-08;100 nA
-0,10009765625;247,473084375191;3,631591796875E-09;-0,099700927734375;6;478;9,65862348675728E-08;-9,24699753522873E-08;100 nA
-0,050048828125;247,973572373927;3,5858154296875E-09;-0,0498046875;6;479;9,65862348675728E-08;-9,24699753522873E-08;100 nA
0;248,474060372663;3,69873046875E-09;0,000115966796875006;6;480;9,65862348675728E-08;-9,24699753522873E-08;100 nA
0,050048828125;248,9745483714;3,8330078125E-09;0,050079345703125;7;481;9,56728681921958E-08;-9,10510495305061E-08;100 nA
0,10009765625;249,475036370136;4,022216796875E-09;0,100128173828125;7;482;9,56728681921958E-08;-9,10510495305061E-08;100 nA
0,150146484375;249,975524368872;4,3487548828125E-09;0,1500244140625;7;483;9,56728681921958E-08;-9,10510495305061E-08;100 nA
0,2001953125;250,476012367609;4,8828125E-09;0,2000732421875;7;484;9,56728681921958E-08;-9,10510495305061E-08;100 nA
0,250244140625;250,976500366345;5,621337890625E-09;0,250091552734375;7;485;9,56728681921958E-08;-9,10510495305061E-08;100 nA
0,30029296875;251,476988365082;6,4849853515625E-09;0,300079345703125;7;486;9,56728681921958E-08;-9,10510495305061E-08;100 nA
0,350341796875;251,977476363818;7,3822021484375E-09;0,350128173828125;7;487;9,56728681921958E-08;-9,10510495305061E-08;100 nA
0,400390625;252,477964362554;8,2122802734375E-09;0,40008544921875;7;488;9,56728681921958E-08;-9,10510495305061E-08;100 nA
0,450439453125;252,978452361291;8,7738037109375E-09;0,450103759765625;7;489;9,56728681921958E-08;-9,10510495305061E-08;100 nA
0,50048828125;253,478940360027;9,039306640625E-09;0,500091552734375;7;490;9,56728681921958E-08;-9,10510495305061E-08;100 nA
0,550537109375;253,979428358764;8,8897705078125E-09;0,55010986328125;7;491;9,56728681921958E-08;-9,10510495305061E-08;100 nA
0,6005859375;254,4799163575;8,477783203125E-09;0,60009765625;7;492;9,56728681921958E-08;-9,10510495305061E-08;100 nA
0,650634765625;254,980404356236;8,0474853515625E-09;0,650054931640625;7;493;9,56728681921958E-08;-9,10510495305061E-08;100 nA
0,70068359375;255,480892354973;7,733154296875E-09;0,699920654296875;7;494;9,56728681921958E-08;-9,10510495305061E-08;100 nA
0,750732421875;255,981380353709;7,5531005859375E-09;0,749847412109375;7;495;9,56728681921958E-08;-9,10510495305061E-08;100 nA
0,80078125;256,481868352446;7,5103759765625E-09;0,8001708984375;7;496;9,56728681921958E-08;-9,10510495305061E-08;100 nA
0,850830078125;256,982356351182;7,513427734375E-09;0,8502197265625;7;497;9,56728681921958E-08;-9,10510495305061E-08;100 nA
0,90087890625;257,482844349918;7,6629638671875E-09;0,89935302734375;7;498;9,56728681921958E-08;-9,10510495305061E-08;100 nA
0,950927734375;257,983332348655;7,92236328125E-09;0,94970703125;7;499;9,56728681921958E-08;-9,10510495305061E-08;100 nA
1,0009765625;258,483820347391;8,3099365234375E-09;0,9991455078125;7;500;9,56728681921958E-08;-9,10510495305061E-08;100 nA
0,950927734375;258,984308346127;4,8553466796875E-09;0,94940185546875;7;501;9,56728681921958E-08;-9,10510495305061E-08;100 nA
0,90087890625;259,484796344864;3,1280517578125E-09;0,89996337890625;7;502;9,56728681921958E-08;-9,10510495305061E-08;100 nA
0,850830078125;259,9852843436;2,130126953125E-09;0,8502197265625;7;503;9,56728681921958E-08;-9,10510495305061E-08;100 nA
0,80078125;260,485772342337;1,3702392578125E-09;0,80047607421875;7;504;9,56728681921958E-08;-9,10510495305061E-08;100 nA
0,750732421875;260,986260341073;7,50732421875E-10;0,74981689453125;7;505;9,56728681921958E-08;-9,10510495305061E-08;100 nA
0,70068359375;261,486748339809;2,593994140625E-10;0,699920654296875;7;506;9,56728681921958E-08;-9,10510495305061E-08;100 nA
0,650634765625;261,987236338546;-2,105712890625E-10;0,649993896484375;7;507;9,56728681921958E-08;-9,10510495305061E-08;100 nA
0,6005859375;262,487724337282;-7,415771484375E-10;0,60009765625;7;508;9,56728681921958E-08;-9,10510495305061E-08;100 nA
0,550537109375;262,988212336019;-1,42822265625E-09;0,55010986328125;7;509;9,56728681921958E-08;-9,10510495305061E-08;100 nA
0,50048828125;263,488700334755;-2,203369140625E-09;0,50006103515625;7;510;9,56728681921958E-08;-9,10510495305061E-08;100 nA
0,450439453125;263,989188333491;-3,106689453125E-09;0,4500732421875;7;511;9,56728681921958E-08;-9,10510495305061E-08;100 nA
0,400390625;264,489676332228;-4,0008544921875E-09;0,40008544921875;7;512;9,56728681921958E-08;-9,10510495305061E-08;100 nA
0,350341796875;264,990164330964;-4,815673828125E-09;0,350067138671875;7;513;9,56728681921958E-08;-9,10510495305061E-08;100 nA
0,30029296875;265,490652329701;-5,5450439453125E-09;0,300140380859375;7;514;9,56728681921958E-08;-9,10510495305061E-08;100 nA
0,250244140625;265,991140328437;-6,3629150390625E-09;0,250091552734375;7;515;9,56728681921958E-08;-9,10510495305061E-08;100 nA
0,2001953125;266,491628327173;-7,1563720703125E-09;0,20001220703125;7;516;9,56728681921958E-08;-9,10510495305061E-08;100 nA
0,150146484375;266,99211632591;-8,038330078125E-09;0,15008544921875;7;517;9,56728681921958E-08;-9,10510495305061E-08;100 nA
0,10009765625;267,492604324646;-8,843994140625E-09;0,100067138671875;7;518;9,56728681921958E-08;-9,10510495305061E-08;100 nA
0,050048828125;267,993092323382;-9,2559814453125E-09;0,050079345703125;7;519;9,56728681921958E-08;-9,10510495305061E-08;100 nA
0;268,493580322119;-8,7493896484375E-09;0,000173950195312494;7;520;9,56728681921958E-08;-9,10510495305061E-08;100 nA
-0,050048828125;268,994068320855;-6,25E-09;-0,049835205078125;7;521;9,56728681921958E-08;-9,10510495305061E-08;100 nA
-0,10009765625;269,494556319592;-4,669189453125E-09;-0,0997314453125;7;522;9,56728681921958E-08;-9,10510495305061E-08;100 nA
-0,150146484375;269,995044318328;-4,6844482421875E-09;-0,149566650390625;7;523;9,56728681921958E-08;-9,10510495305061E-08;100 nA
-0,2001953125;270,495532317064;-4,9468994140625E-09;-0,199462890625;7;524;9,56728681921958E-08;-9,10510495305061E-08;100 nA
-0,250244140625;270,996020315801;-5,2398681640625E-09;-0,2493896484375;7;525;9,56728681921958E-08;-9,10510495305061E-08;100 nA
-0,30029296875;271,496508314537;-5,389404296875E-09;-0,299224853515625;7;526;9,56728681921958E-08;-9,10510495305061E-08;100 nA
-0,350341796875;271,996996313274;-5,3680419921875E-09;-0,349273681640625;7;527;9,56728681921958E-08;-9,10510495305061E-08;100 nA
-0,400390625;272,49748431201;-5,3375244140625E-09;-0,399078369140625;7;528;9,56728681921958E-08;-9,10510495305061E-08;100 nA
-0,450439453125;272,997972310746;-5,3070068359375E-09;-0,448944091796875;7;529;9,56728681921958E-08;-9,10510495305061E-08;100 nA
-0,50048828125;273,498460309483;-5,279541015625E-09;-0,498809814453125;7;530;9,56728681921958E-08;-9,10510495305061E-08;100 nA
-0,550537109375;273,998948308219;-5,1727294921875E-09;-0,548797607421875;7;531;9,56728681921958E-08;-9,10510495305061E-08;100 nA
-0,6005859375;274,499436306956;-5,04150390625E-09;-0,598663330078125;7;532;9,56728681921958E-08;-9,10510495305061E-08;100 nA
-0,650634765625;274,999924305692;-4,9407958984375E-09;-0,64862060546875;7;533;9,56728681921958E-08;-9,10510495305061E-08;100 nA
-0,70068359375;275,500412304428;-4,87060546875E-09;-0,698455810546875;7;534;9,56728681921958E-08;-9,10510495305061E-08;100 nA
-0,750732421875;276,000900303165;-4,87060546875E-09;-0,748565673828125;7;535;9,56728681921958E-08;-9,10510495305061E-08;100 nA
-0,80078125;276,501388301901;-4,8828125E-09;-0,79864501953125;7;536;9,56728681921958E-08;-9,10510495305061E-08;100 nA
-0,850830078125;277,001876300637;-4,9774169921875E-09;-0,84869384765625;7;537;9,56728681921958E-08;-9,10510495305061E-08;100 nA
-0,90087890625;277,502364299374;-5,1544189453125E-09;-0,89935302734375;7;538;9,56728681921958E-08;-9,10510495305061E-08;100 nA
-0,950927734375;278,00285229811;-5,3680419921875E-09;-0,948486328125;7;539;9,56728681921958E-08;-9,10510495305061E-08;100 nA
-1,0009765625;278,503340296847;-5,6884765625E-09;-0,99884033203125;7;540;9,56728681921958E-08;-9,10510495305061E-08;100 nA
-0,950927734375;279,003828295583;-3,3203125E-09;-0,94879150390625;7;541;9,56728681921958E-08;-9,10510495305061E-08;100 nA
-0,90087890625;279,504316294319;-2,1514892578125E-09;-0,8990478515625;7;542;9,56728681921958E-08;-9,10510495305061E-08;100 nA
-0,850830078125;280,004804293056;-1,373291015625E-09;-0,848388671875;7;543;9,56728681921958E-08;-9,10510495305061E-08;100 nA
-0,80078125;280,505292291792;-8,23974609375E-10;-0,79833984375;7;544;9,56728681921958E-08;-9,10510495305061E-08;100 nA
-0,750732421875;281,005780290529;-3,570556640625E-10;-0,74859619140625;7;545;9,56728681921958E-08;-9,10510495305061E-08;100 nA
-0,70068359375;281,506268289265;2,74658203125E-11;-0,6986083984375;7;546;9,56728681921958E-08;-9,10510495305061E-08;100 nA
-0,650634765625;282,006756288001;3,90625E-10;-0,648590087890625;7;547;9,56728681921958E-08;-9,10510495305061E-08;100 nA
-0,6005859375;282,507244286738;7,99560546875E-10;-0,598663330078125;7;548;9,56728681921958E-08;-9,10510495305061E-08;100 nA
-0,550537109375;283,007732285474;1,141357421875E-09;-0,548736572265625;7;549;9,56728681921958E-08;-9,10510495305061E-08;100 nA
-0,50048828125;283,508220284211;1,580810546875E-09;-0,498809814453125;7;550;9,56728681921958E-08;-9,10510495305061E-08;100 nA
-0,450439453125;284,008708282947;1,9989013671875E-09;-0,448944091796875;7;551;9,56728681921958E-08;-9,10510495305061E-08;100 nA
-0,400390625;284,509196281683;2,4169921875E-09;-0,3990478515625;7;552;9,56728681921958E-08;-9,10510495305061E-08;100 nA
-0,350341796875;285,00968428042;2,77099609375E-09;-0,349212646484375;7;553;9,56728681921958E-08;-9,10510495305061E-08;100 nA
-0,30029296875;285,510172279156;3,125E-09;-0,29925537109375;7;554;9,56728681921958E-08;-9,10510495305061E-08;100 nA
-0,250244140625;286,010660277893;3,57666015625E-09;-0,24932861328125;7;555;9,56728681921958E-08;-9,10510495305061E-08;100 nA
-0,2001953125;286,511148276629;3,9764404296875E-09;-0,199462890625;7;556;9,56728681921958E-08;-9,10510495305061E-08;100 nA
-0,150146484375;287,011636275365;3,8238525390625E-09;-0,14959716796875;7;557;9,56728681921958E-08;-9,10510495305061E-08;100 nA
-0,10009765625;287,512124274102;3,6163330078125E-09;-0,099700927734375;7;558;9,56728681921958E-08;-9,10510495305061E-08;100 nA
-0,050048828125;288,012612272838;3,55224609375E-09;-0,049835205078125;7;559;9,56728681921958E-08;-9,10510495305061E-08;100 nA
0;288,513100271574;3,6468505859375E-09;9,76562499999944E-05;7;560;9,56728681921958E-08;-9,10510495305061E-08;100 nA
0,050048828125;289,013588270311;3,765869140625E-09;0,050079345703125;8;561;9,37315821647644E-08;-8,95389541983604E-08;100 nA
0,10009765625;289,514076269047;3,9581298828125E-09;0,10003662109375;8;562;9,37315821647644E-08;-8,95389541983604E-08;100 nA
0,150146484375;290,014564267784;4,2327880859375E-09;0,15008544921875;8;563;9,37315821647644E-08;-8,95389541983604E-08;100 nA
0,2001953125;290,51505226652;4,736328125E-09;0,200042724609375;8;564;9,37315821647644E-08;-8,95389541983604E-08;100 nA
0,250244140625;291,015540265256;5,438232421875E-09;0,250030517578125;8;565;9,37315821647644E-08;-8,95389541983604E-08;100 nA
0,30029296875;291,516028263993;6,2530517578125E-09;0,300018310546875;8;566;9,37315821647644E-08;-8,95389541983604E-08;100 nA
0,350341796875;292,016516262729;7,1044921875E-09;0,350067138671875;8;567;9,37315821647644E-08;-8,95389541983604E-08;100 nA
0,400390625;292,517004261466;7,9193115234375E-09;0,400054931640625;8;568;9,37315821647644E-08;-8,95389541983604E-08;100 nA
0,450439453125;293,017492260202;8,5113525390625E-09;0,450042724609375;8;569;9,37315821647644E-08;-8,95389541983604E-08;100 nA
0,50048828125;293,517980258938;8,7432861328125E-09;0,500030517578125;8;570;9,37315821647644E-08;-8,95389541983604E-08;100 nA
0,550537109375;294,018468257675;8,6334228515625E-09;0,550048828125;8;571;9,37315821647644E-08;-8,95389541983604E-08;100 nA
0,6005859375;294,518956256411;8,2275390625E-09;0,60003662109375;8;572;9,37315821647644E-08;-8,95389541983604E-08;100 nA
0,650634765625;295,019444255148;7,8125E-09;0,649993896484375;8;573;9,37315821647644E-08;-8,95389541983604E-08;100 nA
0,70068359375;295,519932253884;7,5836181640625E-09;0,69989013671875;8;574;9,37315821647644E-08;-8,95389541983604E-08;100 nA
0,750732421875;296,02042025262;7,4462890625E-09;0,749847412109375;8;575;9,37315821647644E-08;-8,95389541983604E-08;100 nA
0,80078125;296,520908251357;7,4066162109375E-09;0,79925537109375;8;576;9,37315821647644E-08;-8,95389541983604E-08;100 nA
0,850830078125;297,021396250093;7,4951171875E-09;0,8502197265625;8;577;9,37315821647644E-08;-8,95389541983604E-08;100 nA
0,90087890625;297,521884248829;7,7056884765625E-09;0,89996337890625;8;578;9,37315821647644E-08;-8,95389541983604E-08;100 nA
0,950927734375;298,022372247566;7,9742431640625E-09;0,94940185546875;8;579;9,37315821647644E-08;-8,95389541983604E-08;100 nA
1,0009765625;298,522860246302;8,3526611328125E-09;0,999755859375;8;580;9,37315821647644E-08;-8,95389541983604E-08;100 nA
0,950927734375;299,023348245039;4,9163818359375E-09;0,94940185546875;8;581;9,37315821647644E-08;-8,95389541983604E-08;100 nA
0,90087890625;299,523836243775;3,2196044921875E-09;0,89996337890625;8;582;9,37315821647644E-08;-8,95389541983604E-08;100 nA
0,850830078125;300,024324242511;2,1942138671875E-09;0,8502197265625;8;583;9,37315821647644E-08;-8,95389541983604E-08;100 nA
0,80078125;300,524812241248;1,4984130859375E-09;0,799560546875;8;584;9,37315821647644E-08;-8,95389541983604E-08;100 nA
0,750732421875;301,025300239984;9,124755859375E-10;0,749847412109375;8;585;9,37315821647644E-08;-8,95389541983604E-08;100 nA
0,70068359375;301,525788238721;3,662109375E-10;0,699951171875;8;586;9,37315821647644E-08;-8,95389541983604E-08;100 nA
0,650634765625;302,026276237457;-1,15966796875E-10;0,6500244140625;8;587;9,37315821647644E-08;-8,95389541983604E-08;100 nA
0,6005859375;302,526764236193;-6,378173828125E-10;0,60009765625;8;588;9,37315821647644E-08;-8,95389541983604E-08;100 nA
0,550537109375;303,02725223493;-1,33056640625E-09;0,55010986328125;8;589;9,37315821647644E-08;-8,95389541983604E-08;100 nA
0,50048828125;303,527740233666;-2,154541015625E-09;0,50006103515625;8;590;9,37315821647644E-08;-8,95389541983604E-08;100 nA
0,450439453125;304,028228232403;-3,0548095703125E-09;0,450103759765625;8;591;9,37315821647644E-08;-8,95389541983604E-08;100 nA
0,400390625;304,528716231139;-4,00390625E-09;0,40008544921875;8;592;9,37315821647644E-08;-8,95389541983604E-08;100 nA
0,350341796875;305,029204229875;-4,803466796875E-09;0,35015869140625;8;593;9,37315821647644E-08;-8,95389541983604E-08;100 nA
0,30029296875;305,529692228612;-5,584716796875E-09;0,300079345703125;8;594;9,37315821647644E-08;-8,95389541983604E-08;100 nA
0,250244140625;306,030180227348;-6,4208984375E-09;0,250091552734375;8;595;9,37315821647644E-08;-8,95389541983604E-08;100 nA
0,2001953125;306,530668226084;-7,23876953125E-09;0,2000732421875;8;596;9,37315821647644E-08;-8,95389541983604E-08;100 nA
0,150146484375;307,031156224821;-8,1298828125E-09;0,150054931640625;8;597;9,37315821647644E-08;-8,95389541983604E-08;100 nA
0,10009765625;307,531644223557;-8,85009765625E-09;0,100067138671875;8;598;9,37315821647644E-08;-8,95389541983604E-08;100 nA
0,050048828125;308,032132222294;-9,130859375E-09;0,050079345703125;8;599;9,37315821647644E-08;-8,95389541983604E-08;100 nA
0;308,53262022103;-8,41064453125E-09;0,000119018554687503;8;600;9,37315821647644E-08;-8,95389541983604E-08;100 nA
-0,050048828125;309,033108219766;-5,87158203125E-09;-0,049835205078125;8;601;9,37315821647644E-08;-8,95389541983604E-08;100 nA
-0,10009765625;309,533596218503;-4,7027587890625E-09;-0,0997314453125;8;602;9,37315821647644E-08;-8,95389541983604E-08;100 nA
-0,150146484375;310,034084217239;-4,7576904296875E-09;-0,14959716796875;8;603;9,37315821647644E-08;-8,95389541983604E-08;100 nA
-0,2001953125;310,534572215976;-4,9468994140625E-09;-0,199432373046875;8;604;9,37315821647644E-08;-8,95389541983604E-08;100 nA
-0,250244140625;311,035060214712;-5,218505859375E-09;-0,249359130859375;8;605;9,37315821647644E-08;-8,95389541983604E-08;100 nA
-0,30029296875;311,535548213448;-5,33447265625E-09;-0,299285888671875;8;606;9,37315821647644E-08;-8,95389541983604E-08;100 nA
-0,350341796875;312,036036212185;-5,3070068359375E-09;-0,349212646484375;8;607;9,37315821647644E-08;-8,95389541983604E-08;100 nA
-0,400390625;312,536524210921;-5,2490234375E-09;-0,399017333984375;8;608;9,37315821647644E-08;-8,95389541983604E-08;100 nA
-0,450439453125;313,037012209658;-5,181884765625E-09;-0,448944091796875;8;609;9,37315821647644E-08;-8,95389541983604E-08;100 nA
-0,50048828125;313,537500208394;-5,1025390625E-09;-0,498809814453125;8;610;9,37315821647644E-08;-8,95389541983604E-08;100 nA
-0,550537109375;314,03798820713;-5,0201416015625E-09;-0,548736572265625;8;611;9,37315821647644E-08;-8,95389541983604E-08;100 nA
-0,6005859375;314,538476205867;-4,89501953125E-09;-0,598602294921875;8;612;9,37315821647644E-08;-8,95389541983604E-08;100 nA
-0,650634765625;315,038964204603;-4,8583984375E-09;-0,648651123046875;8;613;9,37315821647644E-08;-8,95389541983604E-08;100 nA
-0,70068359375;315,539452203339;-4,742431640625E-09;-0,698577880859375;8;614;9,37315821647644E-08;-8,95389541983604E-08;100 nA
-0,750732421875;316,039940202076;-4,69970703125E-09;-0,748565673828125;8;615;9,37315821647644E-08;-8,95389541983604E-08;100 nA
-0,80078125;316,540428200812;-4,718017578125E-09;-0,79833984375;8;616;9,37315821647644E-08;-8,95389541983604E-08;100 nA
-0,850830078125;317,040916199549;-4,8309326171875E-09;-0,84869384765625;8;617;9,37315821647644E-08;-8,95389541983604E-08;100 nA
-0,90087890625;317,541404198285;-4,99267578125E-09;-0,8990478515625;8;618;9,37315821647644E-08;-8,95389541983604E-08;100 nA
-0,950927734375;318,041892197021;-5,194091796875E-09;-0,94940185546875;8;619;9,37315821647644E-08;-8,95389541983604E-08;100 nA
-1,0009765625;318,542380195758;-5,572509765625E-09;-0,99884033203125;8;620;9,37315821647644E-08;-8,95389541983604E-08;100 nA
-0,950927734375;319,042868194494;-3,2470703125E-09;-0,94879150390625;8;621;9,37315821647644E-08;-8,95389541983604E-08;100 nA
-0,90087890625;319,543356193231;-2,0660400390625E-09;-0,89874267578125;8;622;9,37315821647644E-08;-8,95389541983604E-08;100 nA
-0,850830078125;320,043844191967;-1,3458251953125E-09;-0,84869384765625;8;623;9,37315821647644E-08;-8,95389541983604E-08;100 nA
-0,80078125;320,544332190703;-8,11767578125E-10;-0,7989501953125;8;624;9,37315821647644E-08;-8,95389541983604E-08;100 nA
-0,750732421875;321,04482018944;-3,692626953125E-10;-0,748565673828125;8;625;9,37315821647644E-08;-8,95389541983604E-08;100 nA
-0,70068359375;321,545308188176;6,103515625E-12;-0,6986083984375;8;626;9,37315821647644E-08;-8,95389541983604E-08;100 nA
-0,650634765625;322,045796186913;3,72314453125E-10;-0,648651123046875;8;627;9,37315821647644E-08;-8,95389541983604E-08;100 nA
-0,6005859375;322,546284185649;6,805419921875E-10;-0,5986328125;8;628;9,37315821647644E-08;-8,95389541983604E-08;100 nA
-0,550537109375;323,046772184385;1,1016845703125E-09;-0,54876708984375;8;629;9,37315821647644E-08;-8,95389541983604E-08;100 nA
-0,50048828125;323,547260183122;1,4617919921875E-09;-0,498870849609375;8;630;9,37315821647644E-08;-8,95389541983604E-08;100 nA
-0,450439453125;324,047748181858;1,861572265625E-09;-0,449005126953125;8;631;9,37315821647644E-08;-8,95389541983604E-08;100 nA
-0,400390625;324,548236180594;2,2735595703125E-09;-0,3990478515625;8;632;9,37315821647644E-08;-8,95389541983604E-08;100 nA
-0,350341796875;325,048724179331;2,6214599609375E-09;-0,349212646484375;8;633;9,37315821647644E-08;-8,95389541983604E-08;100 nA
-0,30029296875;325,549212178067;2,9541015625E-09;-0,29931640625;8;634;9,37315821647644E-08;-8,95389541983604E-08;100 nA
-0,250244140625;326,049700176804;3,302001953125E-09;-0,2493896484375;8;635;9,37315821647644E-08;-8,95389541983604E-08;100 nA
-0,2001953125;326,55018817554;3,7353515625E-09;-0,199462890625;8;636;9,37315821647644E-08;-8,95389541983604E-08;100 nA
-0,150146484375;327,050676174276;3,729248046875E-09;-0,149566650390625;8;637;9,37315821647644E-08;-8,95389541983604E-08;100 nA
-0,10009765625;327,551164173013;3,546142578125E-09;-0,0997314453125;8;638;9,37315821647644E-08;-8,95389541983604E-08;100 nA
-0,050048828125;328,051652171749;3,558349609375E-09;-0,049835205078125;8;639;9,37315821647644E-08;-8,95389541983604E-08;100 nA
0;328,552140170486;3,668212890625E-09;0,0001068115234375;8;640;9,37315821647644E-08;-8,95389541983604E-08;100 nA
0,050048828125;329,052628169222;3,79638671875E-09;0,05010986328125;9;641;9,28991660475731E-08;-8,8375099003315E-08;100 nA
0,10009765625;329,553116167958;3,99169921875E-09;0,100067138671875;9;642;9,28991660475731E-08;-8,8375099003315E-08;100 nA
0,150146484375;330,053604166695;4,2633056640625E-09;0,149993896484375;9;643;9,28991660475731E-08;-8,8375099003315E-08;100 nA
0,2001953125;330,554092165431;4,74853515625E-09;0,200042724609375;9;644;9,28991660475731E-08;-8,8375099003315E-08;100 nA
0,250244140625;331,054580164168;5,401611328125E-09;0,250030517578125;9;645;9,28991660475731E-08;-8,8375099003315E-08;100 nA
0,30029296875;331,555068162904;6,2225341796875E-09;0,3001708984375;9;646;9,28991660475731E-08;-8,8375099003315E-08;100 nA
0,350341796875;332,05555616164;7,098388671875E-09;0,350128173828125;9;647;9,28991660475731E-08;-8,8375099003315E-08;100 nA
0,400390625;332,556044160377;7,861328125E-09;0,400115966796875;9;648;9,28991660475731E-08;-8,8375099003315E-08;100 nA
0,450439453125;333,056532159113;8,41064453125E-09;0,450103759765625;9;649;9,28991660475731E-08;-8,8375099003315E-08;100 nA
0,50048828125;333,557020157849;8,6578369140625E-09;0,500091552734375;9;650;9,28991660475731E-08;-8,8375099003315E-08;100 nA
0,550537109375;334,057508156586;8,5174560546875E-09;0,550140380859375;9;651;9,28991660475731E-08;-8,8375099003315E-08;100 nA
0,6005859375;334,557996155322;8,1451416015625E-09;0,600067138671875;9;652;9,28991660475731E-08;-8,8375099003315E-08;100 nA
0,650634765625;335,058484154059;7,7606201171875E-09;0,6500244140625;9;653;9,28991660475731E-08;-8,8375099003315E-08;100 nA
0,70068359375;335,558972152795;7,5164794921875E-09;0,699951171875;9;654;9,28991660475731E-08;-8,8375099003315E-08;100 nA
0,750732421875;336,059460151531;7,3699951171875E-09;0,749755859375;9;655;9,28991660475731E-08;-8,8375099003315E-08;100 nA
0,80078125;336,559948150268;7,3577880859375E-09;0,79986572265625;9;656;9,28991660475731E-08;-8,8375099003315E-08;100 nA
0,850830078125;337,060436149004;7,3974609375E-09;0,84991455078125;9;657;9,28991660475731E-08;-8,8375099003315E-08;100 nA
0,90087890625;337,560924147741;7,5714111328125E-09;0,8990478515625;9;658;9,28991660475731E-08;-8,8375099003315E-08;100 nA
0,950927734375;338,061412146477;7,8125E-09;0,94970703125;9;659;9,28991660475731E-08;-8,8375099003315E-08;100 nA
1,0009765625;338,561900145213;8,2366943359375E-09;0,999755859375;9;660;9,28991660475731E-08;-8,8375099003315E-08;100 nA
0,950927734375;339,06238814395;4,8126220703125E-09;0,94970703125;9;661;9,28991660475731E-08;-8,8375099003315E-08;100 nA
0,90087890625;339,562876142686;3,1158447265625E-09;0,899658203125;9;662;9,28991660475731E-08;-8,8375099003315E-08;100 nA
0,850830078125;340,063364141423;2,099609375E-09;0,8502197265625;9;663;9,28991660475731E-08;-8,8375099003315E-08;100 nA
0,80078125;340,563852140159;1,3336181640625E-09;0,79925537109375;9;664;9,28991660475731E-08;-8,8375099003315E-08;100 nA
0,750732421875;341,064340138895;7,50732421875E-10;0,7498779296875;9;665;9,28991660475731E-08;-8,8375099003315E-08;100 nA
0,70068359375;341,564828137632;2,5634765625E-10;0,699920654296875;9;666;9,28991660475731E-08;-8,8375099003315E-08;100 nA
0,650634765625;342,065316136368;-1,953125E-10;0,649993896484375;9;667;9,28991660475731E-08;-8,8375099003315E-08;100 nA
0,6005859375;342,565804135104;-6,9580078125E-10;0,60003662109375;9;668;9,28991660475731E-08;-8,8375099003315E-08;100 nA
0,550537109375;343,066292133841;-1,373291015625E-09;0,550018310546875;9;669;9,28991660475731E-08;-8,8375099003315E-08;100 nA
0,50048828125;343,566780132577;-2,1484375E-09;0,50006103515625;9;670;9,28991660475731E-08;-8,8375099003315E-08;100 nA
0,450439453125;344,067268131314;-3,02734375E-09;0,450103759765625;9;671;9,28991660475731E-08;-8,8375099003315E-08;100 nA
0,400390625;344,56775613005;-3,936767578125E-09;0,40008544921875;9;672;9,28991660475731E-08;-8,8375099003315E-08;100 nA
0,350341796875;345,068244128786;-4,7698974609375E-09;0,35009765625;9;673;9,28991660475731E-08;-8,8375099003315E-08;100 nA
0,30029296875;345,568732127523;-5,5206298828125E-09;0,300048828125;9;674;9,28991660475731E-08;-8,8375099003315E-08;100 nA
0,250244140625;346,069220126259;-6,3140869140625E-09;0,250030517578125;9;675;9,28991660475731E-08;-8,8375099003315E-08;100 nA
0,2001953125;346,569708124996;-7,1380615234375E-09;0,2000732421875;9;676;9,28991660475731E-08;-8,8375099003315E-08;100 nA
0,150146484375;347,070196123732;-7,9620361328125E-09;0,15008544921875;9;677;9,28991660475731E-08;-8,8375099003315E-08;100 nA
0,10009765625;347,570684122468;-8,6456298828125E-09;0,100067138671875;9;678;9,28991660475731E-08;-8,8375099003315E-08;100 nA
0,050048828125;348,071172121205;-8,7890625E-09;0,050140380859375;9;679;9,28991660475731E-08;-8,8375099003315E-08;100 nA
0;348,571660119941;-7,806396484375E-09;0,0001068115234375;9;680;9,28991660475731E-08;-8,8375099003315E-08;100 nA
-0,050048828125;349,072148118678;-5,377197265625E-09;-0,049835205078125;9;681;9,28991660475731E-08;-8,8375099003315E-08;100 nA
-0,10009765625;349,572636117414;-4,52880859375E-09;-0,099700927734375;9;682;9,28991660475731E-08;-8,8375099003315E-08;100 nA
-0,150146484375;350,07312411615;-4,5623779296875E-09;-0,14959716796875;9;683;9,28991660475731E-08;-8,8375099003315E-08;100 nA
-0,2001953125;350,573612114887;-4,827880859375E-09;-0,199462890625;9;684;9,28991660475731E-08;-8,8375099003315E-08;100 nA
-0,250244140625;351,074100113623;-5,108642578125E-09;-0,249298095703125;9;685;9,28991660475731E-08;-8,8375099003315E-08;100 nA
-0,30029296875;351,574588112359;-5,2276611328125E-09;-0,29925537109375;9;686;9,28991660475731E-08;-8,8375099003315E-08;100 nA
-0,350341796875;352,075076111096;-5,218505859375E-09;-0,349151611328125;9;687;9,28991660475731E-08;-8,8375099003315E-08;100 nA
-0,400390625;352,575564109832;-5,1910400390625E-09;-0,3990478515625;9;688;9,28991660475731E-08;-8,8375099003315E-08;100 nA
-0,450439453125;353,076052108569;-5,17578125E-09;-0,44891357421875;9;689;9,28991660475731E-08;-8,8375099003315E-08;100 nA
-0,50048828125;353,576540107305;-5,0994873046875E-09;-0,49884033203125;9;690;9,28991660475731E-08;-8,8375099003315E-08;100 nA
-0,550537109375;354,077028106041;-4,99267578125E-09;-0,548736572265625;9;691;9,28991660475731E-08;-8,8375099003315E-08;100 nA
-0,6005859375;354,577516104778;-4,8858642578125E-09;-0,5986328125;9;692;9,28991660475731E-08;-8,8375099003315E-08;100 nA
-0,650634765625;355,078004103514;-4,84619140625E-09;-0,64862060546875;9;693;9,28991660475731E-08;-8,8375099003315E-08;100 nA
-0,70068359375;355,578492102251;-4,779052734375E-09;-0,698577880859375;9;694;9,28991660475731E-08;-8,8375099003315E-08;100 nA
-0,750732421875;356,078980100987;-4,7607421875E-09;-0,74859619140625;9;695;9,28991660475731E-08;-8,8375099003315E-08;100 nA
-0,80078125;356,579468099723;-4,8095703125E-09;-0,79864501953125;9;696;9,28991660475731E-08;-8,8375099003315E-08;100 nA
-0,850830078125;357,07995609846;-4,864501953125E-09;-0,84869384765625;9;697;9,28991660475731E-08;-8,8375099003315E-08;100 nA
-0,90087890625;357,580444097196;-5,0323486328125E-09;-0,8978271484375;9;698;9,28991660475731E-08;-8,8375099003315E-08;100 nA
-0,950927734375;358,080932095933;-5,242919921875E-09;-0,94879150390625;9;699;9,28991660475731E-08;-8,8375099003315E-08;100 nA
-1,0009765625;358,581420094669;-5,6060791015625E-09;-0,99853515625;9;700;9,28991660475731E-08;-8,8375099003315E-08;100 nA
-0,950927734375;359,081908093405;-3,3355712890625E-09;-0,948486328125;9;701;9,28991660475731E-08;-8,8375099003315E-08;100 nA
-0,90087890625;359,582396092142;-2,16064453125E-09;-0,8990478515625;9;702;9,28991660475731E-08;-8,8375099003315E-08;100 nA
-0,850830078125;360,082884090878;-1,35498046875E-09;-0,84930419921875;9;703;9,28991660475731E-08;-8,8375099003315E-08;100 nA
-0,80078125;360,583372089615;-8,453369140625E-10;-0,7989501953125;9;704;9,28991660475731E-08;-8,8375099003315E-08;100 nA
-0,750732421875;361,083860088351;-3,814697265625E-10;-0,748626708984375;9;705;9,28991660475731E-08;-8,8375099003315E-08;100 nA
-0,70068359375;361,584348087087;-3,96728515625E-11;-0,6986083984375;9;706;9,28991660475731E-08;-8,8375099003315E-08;100 nA
-0,650634765625;362,084836085824;3,509521484375E-10;-0,648651123046875;9;707;9,28991660475731E-08;-8,8375099003315E-08;100 nA
-0,6005859375;362,58532408456;7,232666015625E-10;-0,598663330078125;9;708;9,28991660475731E-08;-8,8375099003315E-08;100 nA
-0,550537109375;363,085812083296;1,129150390625E-09;-0,548797607421875;9;709;9,28991660475731E-08;-8,8375099003315E-08;100 nA
-0,50048828125;363,586300082033;1,5380859375E-09;-0,4989013671875;9;710;9,28991660475731E-08;-8,8375099003315E-08;100 nA
-0,450439453125;364,086788080769;1,9561767578125E-09;-0,448944091796875;9;711;9,28991660475731E-08;-8,8375099003315E-08;100 nA
-0,400390625;364,587276079506;2,3773193359375E-09;-0,39910888671875;9;712;9,28991660475731E-08;-8,8375099003315E-08;100 nA
-0,350341796875;365,087764078242;2,691650390625E-09;-0,34918212890625;9;713;9,28991660475731E-08;-8,8375099003315E-08;100 nA
-0,30029296875;365,588252076978;2,9754638671875E-09;-0,2991943359375;9;714;9,28991660475731E-08;-8,8375099003315E-08;100 nA
-0,250244140625;366,088740075715;3,2684326171875E-09;-0,249359130859375;9;715;9,28991660475731E-08;-8,8375099003315E-08;100 nA
-0,2001953125;366,589228074451;3,6224365234375E-09;-0,199462890625;9;716;9,28991660475731E-08;-8,8375099003315E-08;100 nA
-0,150146484375;367,089716073188;3,717041015625E-09;-0,14959716796875;9;717;9,28991660475731E-08;-8,8375099003315E-08;100 nA
-0,10009765625;367,590204071924;3,5491943359375E-09;-0,099700927734375;9;718;9,28991660475731E-08;-8,8375099003315E-08;100 nA
-0,050048828125;368,09069207066;3,558349609375E-09;-0,049835205078125;9;719;9,28991660475731E-08;-8,8375099003315E-08;100 nA
0;368,591180069397;3,6529541015625E-09;0,000128173828124994;9;720;9,28991660475731E-08;-8,8375099003315E-08;100 nA
0,050048828125;369,091668068133;3,8421630859375E-09;0,050079345703125;10;721;9,10647958517075E-08;-8,69454815983773E-08;100 nA
0,10009765625;369,59215606687;3,9947509765625E-09;0,100067138671875;10;722;9,10647958517075E-08;-8,69454815983773E-08;100 nA
0,150146484375;370,092644065606;4,217529296875E-09;0,150054931640625;10;723;9,10647958517075E-08;-8,69454815983773E-08;100 nA
0,2001953125;370,593132064342;4,6661376953125E-09;0,2000732421875;10;724;9,10647958517075E-08;-8,69454815983773E-08;100 nA
0,250244140625;371,093620063079;5,31005859375E-09;0,250091552734375;10;725;9,10647958517075E-08;-8,69454815983773E-08;100 nA
0,30029296875;371,594108061815;6,0546875E-09;0,300079345703125;10;726;9,10647958517075E-08;-8,69454815983773E-08;100 nA
0,350341796875;372,094596060551;6,93359375E-09;0,35009765625;10;727;9,10647958517075E-08;-8,69454815983773E-08;100 nA
0,400390625;372,595084059288;7,647705078125E-09;0,40008544921875;10;728;9,10647958517075E-08;-8,69454815983773E-08;100 nA
0,450439453125;373,095572058024;8,2275390625E-09;0,45001220703125;10;729;9,10647958517075E-08;-8,69454815983773E-08;100 nA
0,50048828125;373,596060056761;8,465576171875E-09;0,500091552734375;10;730;9,10647958517075E-08;-8,69454815983773E-08;100 nA
0,550537109375;374,096548055497;8,3465576171875E-09;0,550048828125;10;731;9,10647958517075E-08;-8,69454815983773E-08;100 nA
0,6005859375;374,597036054233;7,9742431640625E-09;0,60009765625;10;732;9,10647958517075E-08;-8,69454815983773E-08;100 nA
0,650634765625;375,09752405297;7,67822265625E-09;0,649993896484375;10;733;9,10647958517075E-08;-8,69454815983773E-08;100 nA
0,70068359375;375,598012051706;7,3822021484375E-09;0,69989013671875;10;734;9,10647958517075E-08;-8,69454815983773E-08;100 nA
0,750732421875;376,098500050443;7,2601318359375E-09;0,74981689453125;10;735;9,10647958517075E-08;-8,69454815983773E-08;100 nA
0,80078125;376,598988049179;7,2418212890625E-09;0,8001708984375;10;736;9,10647958517075E-08;-8,69454815983773E-08;100 nA
0,850830078125;377,099476047915;7,3150634765625E-09;0,84991455078125;10;737;9,10647958517075E-08;-8,69454815983773E-08;100 nA
0,90087890625;377,599964046652;7,525634765625E-09;0,899658203125;10;738;9,10647958517075E-08;-8,69454815983773E-08;100 nA
0,950927734375;378,100452045388;7,7972412109375E-09;0,94940185546875;10;739;9,10647958517075E-08;-8,69454815983773E-08;100 nA
1,0009765625;378,600940044125;8,14208984375E-09;0,9991455078125;10;740;9,10647958517075E-08;-8,69454815983773E-08;100 nA
0,950927734375;379,101428042861;4,791259765625E-09;0,94970703125;10;741;9,10647958517075E-08;-8,69454815983773E-08;100 nA
0,90087890625;379,601916041597;3,125E-09;0,89996337890625;10;742;9,10647958517075E-08;-8,69454815983773E-08;100 nA
0,850830078125;380,102404040334;2,0721435546875E-09;0,85052490234375;10;743;9,10647958517075E-08;-8,69454815983773E-08;100 nA
0,80078125;380,60289203907;1,3336181640625E-09;0,8001708984375;10;744;9,10647958517075E-08;-8,69454815983773E-08;100 nA
0,750732421875;381,103380037806;7,62939453125E-10;0,749786376953125;10;745;9,10647958517075E-08;-8,69454815983773E-08;100 nA
0,70068359375;381,603868036543;2,44140625E-10;0,6998291015625;10;746;9,10647958517075E-08;-8,69454815983773E-08;100 nA
0,650634765625;382,104356035279;-2,410888671875E-10;0,649993896484375;10;747;9,10647958517075E-08;-8,69454815983773E-08;100 nA
0,6005859375;382,604844034016;-7,50732421875E-10;0,60009765625;10;748;9,10647958517075E-08;-8,69454815983773E-08;100 nA
0,550537109375;383,105332032752;-1,3671875E-09;0,550048828125;10;749;9,10647958517075E-08;-8,69454815983773E-08;100 nA
0,50048828125;383,605820031488;-2,13623046875E-09;0,500030517578125;10;750;9,10647958517075E-08;-8,69454815983773E-08;100 nA
0,450439453125;384,106308030225;-3,0731201171875E-09;0,45001220703125;10;751;9,10647958517075E-08;-8,69454815983773E-08;100 nA
0,400390625;384,606796028961;-3,9581298828125E-09;0,40008544921875;10;752;9,10647958517075E-08;-8,69454815983773E-08;100 nA
0,350341796875;385,107284027698;-4,7821044921875E-09;0,350067138671875;10;753;9,10647958517075E-08;-8,69454815983773E-08;100 nA
0,30029296875;385,607772026434;-5,584716796875E-09;0,300018310546875;10;754;9,10647958517075E-08;-8,69454815983773E-08;100 nA
0,250244140625;386,10826002517;-6,3720703125E-09;0,25006103515625;10;755;9,10647958517075E-08;-8,69454815983773E-08;100 nA
0,2001953125;386,608748023907;-7,1929931640625E-09;0,200042724609375;10;756;9,10647958517075E-08;-8,69454815983773E-08;100 nA
0,150146484375;387,109236022643;-7,989501953125E-09;0,150054931640625;10;757;9,10647958517075E-08;-8,69454815983773E-08;100 nA
0,10009765625;387,60972402138;-8,599853515625E-09;0,100067138671875;10;758;9,10647958517075E-08;-8,69454815983773E-08;100 nA
0,050048828125;388,110212020116;-8,599853515625E-09;0,050079345703125;10;759;9,10647958517075E-08;-8,69454815983773E-08;100 nA
0;388,610700018852;-7,3760986328125E-09;0,0001220703125;10;760;9,10647958517075E-08;-8,69454815983773E-08;100 nA
-0,050048828125;389,111188017589;-5,126953125E-09;-0,0498046875;10;761;9,10647958517075E-08;-8,69454815983773E-08;100 nA
-0,10009765625;389,611676016325;-4,534912109375E-09;-0,099700927734375;10;762;9,10647958517075E-08;-8,69454815983773E-08;100 nA
-0,150146484375;390,112164015061;-4,638671875E-09;-0,149566650390625;10;763;9,10647958517075E-08;-8,69454815983773E-08;100 nA
-0,2001953125;390,612652013798;-4,8492431640625E-09;-0,199462890625;10;764;9,10647958517075E-08;-8,69454815983773E-08;100 nA
-0,250244140625;391,113140012534;-5,0567626953125E-09;-0,24932861328125;10;765;9,10647958517075E-08;-8,69454815983773E-08;100 nA
-0,30029296875;391,613628011271;-5,1239013671875E-09;-0,299224853515625;10;766;9,10647958517075E-08;-8,69454815983773E-08;100 nA
-0,350341796875;392,114116010007;-5,1116943359375E-09;-0,34918212890625;10;767;9,10647958517075E-08;-8,69454815983773E-08;100 nA
-0,400390625;392,614604008743;-5,096435546875E-09;-0,3990478515625;10;768;9,10647958517075E-08;-8,69454815983773E-08;100 nA
-0,450439453125;393,11509200748;-5,0628662109375E-09;-0,44891357421875;10;769;9,10647958517075E-08;-8,69454815983773E-08;100 nA
-0,50048828125;393,615580006216;-4,9896240234375E-09;-0,498870849609375;10;770;9,10647958517075E-08;-8,69454815983773E-08;100 nA
-0,550537109375;394,116068004953;-4,901123046875E-09;-0,5487060546875;10;771;9,10647958517075E-08;-8,69454815983773E-08;100 nA
-0,6005859375;394,616556003689;-4,7882080078125E-09;-0,5986328125;10;772;9,10647958517075E-08;-8,69454815983773E-08;100 nA
-0,650634765625;395,117044002425;-4,6966552734375E-09;-0,648529052734375;10;773;9,10647958517075E-08;-8,69454815983773E-08;100 nA
-0,70068359375;395,617532001162;-4,669189453125E-09;-0,698577880859375;10;774;9,10647958517075E-08;-8,69454815983773E-08;100 nA
-0,750732421875;396,118019999898;-4,6539306640625E-09;-0,748565673828125;10;775;9,10647958517075E-08;-8,69454815983773E-08;100 nA
-0,80078125;396,618507998635;-4,6539306640625E-09;-0,7989501953125;10;776;9,10647958517075E-08;-8,69454815983773E-08;100 nA
-0,850830078125;397,118995997371;-4,7332763671875E-09;-0,84869384765625;10;777;9,10647958517075E-08;-8,69454815983773E-08;100 nA
-0,90087890625;397,619483996107;-4,833984375E-09;-0,89874267578125;10;778;9,10647958517075E-08;-8,69454815983773E-08;100 nA
-0,950927734375;398,119971994844;-5,078125E-09;-0,948486328125;10;779;9,10647958517075E-08;-8,69454815983773E-08;100 nA
-1,0009765625;398,62045999358;-5,4718017578125E-09;-0,99884033203125;10;780;9,10647958517075E-08;-8,69454815983773E-08;100 nA
-0,950927734375;399,120947992316;-3,1890869140625E-09;-0,94940185546875;10;781;9,10647958517075E-08;-8,69454815983773E-08;100 nA
-0,90087890625;399,621435991053;-2,0355224609375E-09;-0,89874267578125;10;782;9,10647958517075E-08;-8,69454815983773E-08;100 nA
-0,850830078125;400,121923989789;-1,28173828125E-09;-0,84869384765625;10;783;9,10647958517075E-08;-8,69454815983773E-08;100 nA
-0,80078125;400,622411988526;-7,62939453125E-10;-0,79864501953125;10;784;9,10647958517075E-08;-8,69454815983773E-08;100 nA
-0,750732421875;401,122899987262;-3,570556640625E-10;-0,74859619140625;10;785;9,10647958517075E-08;-8,69454815983773E-08;100 nA
-0,70068359375;401,623387985998;1,220703125E-11;-0,698577880859375;10;786;9,10647958517075E-08;-8,69454815983773E-08;100 nA
-0,650634765625;402,123875984735;3,692626953125E-10;-0,648590087890625;10;787;9,10647958517075E-08;-8,69454815983773E-08;100 nA
-0,6005859375;402,624363983471;7,476806640625E-10;-0,5986328125;10;788;9,10647958517075E-08;-8,69454815983773E-08;100 nA
-0,550537109375;403,124851982208;1,0894775390625E-09;-0,54876708984375;10;789;9,10647958517075E-08;-8,69454815983773E-08;100 nA
-0,50048828125;403,625339980944;1,5045166015625E-09;-0,498779296875;10;790;9,10647958517075E-08;-8,69454815983773E-08;100 nA
-0,450439453125;404,12582797968;1,9073486328125E-09;-0,449005126953125;10;791;9,10647958517075E-08;-8,69454815983773E-08;100 nA
-0,400390625;404,626315978417;2,2674560546875E-09;-0,39910888671875;10;792;9,10647958517075E-08;-8,69454815983773E-08;100 nA
-0,350341796875;405,126803977153;2,57568359375E-09;-0,34918212890625;10;793;9,10647958517075E-08;-8,69454815983773E-08;100 nA
-0,30029296875;405,62729197589;2,8167724609375E-09;-0,29931640625;10;794;9,10647958517075E-08;-8,69454815983773E-08;100 nA
-0,250244140625;406,127779974626;3,057861328125E-09;-0,249359130859375;10;795;9,10647958517075E-08;-8,69454815983773E-08;100 nA
-0,2001953125;406,628267973362;3,3660888671875E-09;-0,199493408203125;10;796;9,10647958517075E-08;-8,69454815983773E-08;100 nA
-0,150146484375;407,128755972099;3,5491943359375E-09;-0,14959716796875;10;797;9,10647958517075E-08;-8,69454815983773E-08;100 nA
-0,10009765625;407,629243970835;3,4332275390625E-09;-0,099700927734375;10;798;9,10647958517075E-08;-8,69454815983773E-08;100 nA
-0,050048828125;408,129731969571;3,38134765625E-09;-0,049835205078125;10;799;9,10647958517075E-08;-8,69454815983773E-08;100 nA
0;408,630219968308;3,521728515625E-09;0,0001068115234375;10;800;9,10647958517075E-08;-8,69454815983773E-08;100 nA
