Potential applied (V);Time (s);WE(1).Current (A);WE(1).Potential (V);Scan;Index;Q+;Q-;Current range
0,050048828125;7,34948098144434;5,4931640625E-11;0,050079345703125;1;1;3,38923186063767E-09;-5,43743371963501E-10;100 nA
0,10009765625;7,84996898018073;6,103515625E-11;0,10009765625;1;2;3,38923186063767E-09;-5,43743371963501E-10;100 nA
0,150146484375;8,35045697891712;5,79833984375E-11;0,15008544921875;1;3;3,38923186063767E-09;-5,43743371963501E-10;100 nA
0,2001953125;8,85094497765351;1,556396484375E-10;0,200042724609375;1;4;3,38923186063767E-09;-5,43743371963501E-10;100 nA
0,250244140625;9,3514329763899;1,983642578125E-10;0,25006103515625;1;5;3,38923186063767E-09;-5,43743371963501E-10;100 nA
0,30029296875;9,85192097512629;2,13623046875E-10;0,300018310546875;1;6;3,38923186063767E-09;-5,43743371963501E-10;100 nA
0,350341796875;10,3524089738627;8,23974609375E-11;0,350128173828125;1;7;3,38923186063767E-09;-5,43743371963501E-10;100 nA
0,400390625;10,8528969725991;5,2947998046875E-09;0,400115966796875;1;8;3,38923186063767E-09;-5,43743371963501E-10;100 nA
0,450439453125;11,3533849713355;-5,79833984375E-11;0,4500732421875;1;9;3,38923186063767E-09;-5,43743371963501E-10;100 nA
0,50048828125;11,8538729700718;9,765625E-11;0,5001220703125;1;10;3,38923186063767E-09;-5,43743371963501E-10;100 nA
0,550537109375;12,3543609688082;7,9345703125E-11;0,550048828125;1;11;3,38923186063767E-09;-5,43743371963501E-10;100 nA
0,6005859375;12,8548489675446;2,105712890625E-10;0,600067138671875;1;12;3,38923186063767E-09;-5,43743371963501E-10;100 nA
0,650634765625;13,355336966281;8,544921875E-11;0,650054931640625;1;13;3,38923186063767E-09;-5,43743371963501E-10;100 nA
0,70068359375;13,8558249650174;1,52587890625E-11;0,699951171875;1;14;3,38923186063767E-09;-5,43743371963501E-10;100 nA
0,750732421875;14,3563129637538;-2,0751953125E-10;0,749847412109375;1;15;3,38923186063767E-09;-5,43743371963501E-10;100 nA
0,80078125;14,8568009624902;-5,767822265625E-10;0,79986572265625;1;16;3,38923186063767E-09;-5,43743371963501E-10;100 nA
0,850830078125;15,3572889612266;-3,35693359375E-11;0,84991455078125;1;17;3,38923186063767E-09;-5,43743371963501E-10;100 nA
0,90087890625;15,857776959963;-2,74658203125E-11;0,9002685546875;1;18;3,38923186063767E-09;-5,43743371963501E-10;100 nA
0,950927734375;16,3582649586994;-2,74658203125E-11;0,94940185546875;1;19;3,38923186063767E-09;-5,43743371963501E-10;100 nA
1,0009765625;16,8587529574357;-2,44140625E-11;0,999755859375;1;20;3,38923186063767E-09;-5,43743371963501E-10;100 nA
0,950927734375;17,3592409561721;-2,13623046875E-11;0,94940185546875;1;21;3,38923186063767E-09;-5,43743371963501E-10;100 nA
0,90087890625;17,8597289549085;-9,1552734375E-12;0,899658203125;1;22;3,38923186063767E-09;-5,43743371963501E-10;100 nA
0,850830078125;18,3602169536449;0;0,8502197265625;1;23;3,38923186063767E-09;-5,43743371963501E-10;100 nA
0,80078125;18,8607049523813;-3,0517578125E-12;0,79986572265625;1;24;3,38923186063767E-09;-5,43743371963501E-10;100 nA
0,750732421875;19,3611929511177;6,103515625E-12;0,7498779296875;1;25;3,38923186063767E-09;-5,43743371963501E-10;100 nA
0,70068359375;19,8616809498541;6,103515625E-12;0,699981689453125;1;26;3,38923186063767E-09;-5,43743371963501E-10;100 nA
0,650634765625;20,3621689485905;6,103515625E-12;0,650054931640625;1;27;3,38923186063767E-09;-5,43743371963501E-10;100 nA
0,6005859375;20,8626569473269;3,0517578125E-12;0,60009765625;1;28;3,38923186063767E-09;-5,43743371963501E-10;100 nA
0,550537109375;21,3631449460632;6,103515625E-12;0,5501708984375;1;29;3,38923186063767E-09;-5,43743371963501E-10;100 nA
0,50048828125;21,8636329447996;6,103515625E-12;0,500091552734375;1;30;3,38923186063767E-09;-5,43743371963501E-10;100 nA
0,450439453125;22,364120943536;9,1552734375E-12;0,4500732421875;1;31;3,38923186063767E-09;-5,43743371963501E-10;100 nA
0,400390625;22,8646089422724;9,1552734375E-12;0,400115966796875;1;32;3,38923186063767E-09;-5,43743371963501E-10;100 nA
0,350341796875;23,3650969410088;3,0517578125E-12;0,350067138671875;1;33;3,38923186063767E-09;-5,43743371963501E-10;100 nA
0,30029296875;23,8655849397452;3,0517578125E-12;0,300079345703125;1;34;3,38923186063767E-09;-5,43743371963501E-10;100 nA
0,250244140625;24,3660729384816;6,103515625E-12;0,250030517578125;1;35;3,38923186063767E-09;-5,43743371963501E-10;100 nA
0,2001953125;24,866560937218;3,0517578125E-12;0,2000732421875;1;36;3,38923186063767E-09;-5,43743371963501E-10;100 nA
0,150146484375;25,3670489359544;9,1552734375E-12;0,15008544921875;1;37;3,38923186063767E-09;-5,43743371963501E-10;100 nA
0,10009765625;25,8675369346907;6,103515625E-12;0,100128173828125;1;38;3,38923186063767E-09;-5,43743371963501E-10;100 nA
0,050048828125;26,3680249334271;6,103515625E-12;0,050079345703125;1;39;3,38923186063767E-09;-5,43743371963501E-10;100 nA
0;26,8685129321635;9,1552734375E-12;0,0001220703125;1;40;3,38923186063767E-09;-5,43743371963501E-10;100 nA
-0,050048828125;27,3690009308999;3,0517578125E-12;-0,049774169921875;1;41;3,38923186063767E-09;-5,43743371963501E-10;100 nA
-0,10009765625;27,8694889296363;3,0517578125E-12;-0,09967041015625;1;42;3,38923186063767E-09;-5,43743371963501E-10;100 nA
-0,150146484375;28,3699769283727;3,0517578125E-12;-0,14959716796875;1;43;3,38923186063767E-09;-5,43743371963501E-10;100 nA
-0,2001953125;28,8704649271091;6,103515625E-12;-0,199432373046875;1;44;3,38923186063767E-09;-5,43743371963501E-10;100 nA
-0,250244140625;29,3709529258455;6,103515625E-12;-0,249420166015625;1;45;3,38923186063767E-09;-5,43743371963501E-10;100 nA
-0,30029296875;29,8714409245819;-3,0517578125E-12;-0,29925537109375;1;46;3,38923186063767E-09;-5,43743371963501E-10;100 nA
-0,350341796875;30,3719289233183;3,0517578125E-12;-0,3492431640625;1;47;3,38923186063767E-09;-5,43743371963501E-10;100 nA
-0,400390625;30,8724169220546;0;-0,3990478515625;1;48;3,38923186063767E-09;-5,43743371963501E-10;100 nA
-0,450439453125;31,372904920791;-3,0517578125E-12;-0,448974609375;1;49;3,38923186063767E-09;-5,43743371963501E-10;100 nA
-0,50048828125;31,8733929195274;-3,0517578125E-12;-0,49884033203125;1;50;3,38923186063767E-09;-5,43743371963501E-10;100 nA
-0,550537109375;32,3738809182638;3,0517578125E-12;-0,54876708984375;1;51;3,38923186063767E-09;-5,43743371963501E-10;100 nA
-0,6005859375;32,8743689170002;0;-0,59869384765625;1;52;3,38923186063767E-09;-5,43743371963501E-10;100 nA
-0,650634765625;33,3748569157366;-6,103515625E-12;-0,64862060546875;1;53;3,38923186063767E-09;-5,43743371963501E-10;100 nA
-0,70068359375;33,875344914473;-3,0517578125E-12;-0,698638916015625;1;54;3,38923186063767E-09;-5,43743371963501E-10;100 nA
-0,750732421875;34,3758329132094;-3,0517578125E-12;-0,748626708984375;1;55;3,38923186063767E-09;-5,43743371963501E-10;100 nA
-0,80078125;34,8763209119458;0;-0,79864501953125;1;56;3,38923186063767E-09;-5,43743371963501E-10;100 nA
-0,850830078125;35,3768089106821;3,0517578125E-12;-0,84869384765625;1;57;3,38923186063767E-09;-5,43743371963501E-10;100 nA
-0,90087890625;35,8772969094185;6,103515625E-12;-0,89935302734375;1;58;3,38923186063767E-09;-5,43743371963501E-10;100 nA
-0,950927734375;36,3777849081549;6,103515625E-12;-0,9490966796875;1;59;3,38923186063767E-09;-5,43743371963501E-10;100 nA
-1,0009765625;36,8782729068913;6,103515625E-12;-0,99853515625;1;60;3,38923186063767E-09;-5,43743371963501E-10;100 nA
-0,950927734375;37,3787609056277;0;-0,94940185546875;1;61;3,38923186063767E-09;-5,43743371963501E-10;100 nA
-0,90087890625;37,8792489043641;-6,103515625E-12;-0,8990478515625;1;62;3,38923186063767E-09;-5,43743371963501E-10;100 nA
-0,850830078125;38,3797369031005;0;-0,848388671875;1;63;3,38923186063767E-09;-5,43743371963501E-10;100 nA
-0,80078125;38,8802249018369;-3,0517578125E-12;-0,7989501953125;1;64;3,38923186063767E-09;-5,43743371963501E-10;100 nA
-0,750732421875;39,3807129005733;-3,0517578125E-12;-0,7486572265625;1;65;3,38923186063767E-09;-5,43743371963501E-10;100 nA
-0,70068359375;39,8812008993096;-3,0517578125E-12;-0,6986083984375;1;66;3,38923186063767E-09;-5,43743371963501E-10;100 nA
-0,650634765625;40,381688898046;-3,0517578125E-12;-0,64862060546875;1;67;3,38923186063767E-09;-5,43743371963501E-10;100 nA
-0,6005859375;40,8821768967824;0;-0,5986328125;1;68;3,38923186063767E-09;-5,43743371963501E-10;100 nA
-0,550537109375;41,3826648955188;3,0517578125E-12;-0,54876708984375;1;69;3,38923186063767E-09;-5,43743371963501E-10;100 nA
-0,50048828125;41,8831528942552;6,103515625E-12;-0,4989013671875;1;70;3,38923186063767E-09;-5,43743371963501E-10;100 nA
-0,450439453125;42,3836408929916;0;-0,448944091796875;1;71;3,38923186063767E-09;-5,43743371963501E-10;100 nA
-0,400390625;42,884128891728;3,0517578125E-12;-0,399169921875;1;72;3,38923186063767E-09;-5,43743371963501E-10;100 nA
-0,350341796875;43,3846168904644;3,0517578125E-12;-0,349273681640625;1;73;3,38923186063767E-09;-5,43743371963501E-10;100 nA
-0,30029296875;43,8851048892008;-3,0517578125E-12;-0,29925537109375;1;74;3,38923186063767E-09;-5,43743371963501E-10;100 nA
-0,250244140625;44,3855928879372;3,0517578125E-12;-0,249359130859375;1;75;3,38923186063767E-09;-5,43743371963501E-10;100 nA
-0,2001953125;44,8860808866735;-3,0517578125E-12;-0,19940185546875;1;76;3,38923186063767E-09;-5,43743371963501E-10;100 nA
-0,150146484375;45,3865688854099;-3,0517578125E-12;-0,149627685546875;1;77;3,38923186063767E-09;-5,43743371963501E-10;100 nA
-0,10009765625;45,8870568841463;-1,220703125E-11;-0,0997314453125;1;78;3,38923186063767E-09;-5,43743371963501E-10;100 nA
-0,050048828125;46,3875448828827;-2,13623046875E-11;-0,049774169921875;1;79;3,38923186063767E-09;-5,43743371963501E-10;100 nA
0;46,8880328816191;-1,52587890625E-11;0,000109863281249997;1;80;3,38923186063767E-09;-5,43743371963501E-10;100 nA
0,050048828125;47,3885208803555;-1,8310546875E-11;0,050079345703125;2;81;0;-1,2173131108284E-09;100 nA
0,10009765625;47,8890088790919;-2,74658203125E-11;0,100067138671875;2;82;0;-1,2173131108284E-09;100 nA
0,150146484375;48,3894968778283;-3,0517578125E-11;0,150054931640625;2;83;0;-1,2173131108284E-09;100 nA
0,2001953125;48,8899848765647;-3,662109375E-11;0,20001220703125;2;84;0;-1,2173131108284E-09;100 nA
0,250244140625;49,390472875301;-2,44140625E-11;0,250030517578125;2;85;0;-1,2173131108284E-09;100 nA
0,30029296875;49,8909608740374;-1,8310546875E-11;0,300079345703125;2;86;0;-1,2173131108284E-09;100 nA
0,350341796875;50,3914488727738;-6,103515625E-12;0,350128173828125;2;87;0;-1,2173131108284E-09;100 nA
0,400390625;50,8919368715102;-1,220703125E-11;0,40008544921875;2;88;0;-1,2173131108284E-09;100 nA
0,450439453125;51,3924248702466;-2,13623046875E-11;0,450042724609375;2;89;0;-1,2173131108284E-09;100 nA
0,50048828125;51,892912868983;-2,74658203125E-11;0,5;2;90;0;-1,2173131108284E-09;100 nA
0,550537109375;52,3934008677194;-3,0517578125E-11;0,550079345703125;2;91;0;-1,2173131108284E-09;100 nA
0,6005859375;52,8938888664558;-2,74658203125E-11;0,600067138671875;2;92;0;-1,2173131108284E-09;100 nA
0,650634765625;53,3943768651922;-3,0517578125E-11;0,649993896484375;2;93;0;-1,2173131108284E-09;100 nA
0,70068359375;53,8948648639285;-3,662109375E-11;0,699920654296875;2;94;0;-1,2173131108284E-09;100 nA
0,750732421875;54,3953528626649;-4,57763671875E-11;0,74981689453125;2;95;0;-1,2173131108284E-09;100 nA
0,80078125;54,8958408614013;-5,18798828125E-11;0,79986572265625;2;96;0;-1,2173131108284E-09;100 nA
0,850830078125;55,3963288601377;-4,57763671875E-11;0,85052490234375;2;97;0;-1,2173131108284E-09;100 nA
0,90087890625;55,8968168588741;-4,57763671875E-11;0,899658203125;2;98;0;-1,2173131108284E-09;100 nA
0,950927734375;56,3973048576105;-5,18798828125E-11;0,94970703125;2;99;0;-1,2173131108284E-09;100 nA
1,0009765625;56,8977928563469;-5,79833984375E-11;0,999755859375;2;100;0;-1,2173131108284E-09;100 nA
0,950927734375;57,3982808550833;-5,79833984375E-11;0,94970703125;2;101;0;-1,2173131108284E-09;100 nA
0,90087890625;57,8987688538197;-5,4931640625E-11;0,9002685546875;2;102;0;-1,2173131108284E-09;100 nA
0,850830078125;58,3992568525561;-5,18798828125E-11;0,8502197265625;2;103;0;-1,2173131108284E-09;100 nA
0,80078125;58,8997448512924;-4,8828125E-11;0,799560546875;2;104;0;-1,2173131108284E-09;100 nA
0,750732421875;59,4002328500288;-5,4931640625E-11;0,7498779296875;2;105;0;-1,2173131108284E-09;100 nA
0,70068359375;59,9007208487652;-4,8828125E-11;0,69989013671875;2;106;0;-1,2173131108284E-09;100 nA
0,650634765625;60,4012088475016;-4,57763671875E-11;0,649993896484375;2;107;0;-1,2173131108284E-09;100 nA
0,6005859375;60,901696846238;-5,4931640625E-11;0,600067138671875;2;108;0;-1,2173131108284E-09;100 nA
0,550537109375;61,4021848449744;-4,8828125E-11;0,550079345703125;2;109;0;-1,2173131108284E-09;100 nA
0,50048828125;61,9026728437108;-4,8828125E-11;0,50006103515625;2;110;0;-1,2173131108284E-09;100 nA
0,450439453125;62,4031608424472;-3,662109375E-11;0,450042724609375;2;111;0;-1,2173131108284E-09;100 nA
0,400390625;62,9036488411836;-4,2724609375E-11;0,400115966796875;2;112;0;-1,2173131108284E-09;100 nA
0,350341796875;63,4041368399199;-3,96728515625E-11;0,35009765625;2;113;0;-1,2173131108284E-09;100 nA
0,30029296875;63,9046248386563;-3,0517578125E-11;0,300018310546875;2;114;0;-1,2173131108284E-09;100 nA
0,250244140625;64,4051128373927;-3,0517578125E-11;0,2501220703125;2;115;0;-1,2173131108284E-09;100 nA
0,2001953125;64,9056008361291;-3,35693359375E-11;0,200042724609375;2;116;0;-1,2173131108284E-09;100 nA
0,150146484375;65,4060888348655;-3,35693359375E-11;0,150054931640625;2;117;0;-1,2173131108284E-09;100 nA
0,10009765625;65,9065768336019;-3,35693359375E-11;0,100006103515625;2;118;0;-1,2173131108284E-09;100 nA
0,050048828125;66,4070648323383;-2,74658203125E-11;0,050079345703125;2;119;0;-1,2173131108284E-09;100 nA
0;66,9075528310747;-2,13623046875E-11;0,000115966796875006;2;120;0;-1,2173131108284E-09;100 nA
-0,050048828125;67,4080408298111;-6,103515625E-12;-0,049835205078125;2;121;0;-1,2173131108284E-09;100 nA
-0,10009765625;67,9085288285474;-9,1552734375E-12;-0,099700927734375;2;122;0;-1,2173131108284E-09;100 nA
-0,150146484375;68,4090168272838;-2,44140625E-11;-0,149566650390625;2;123;0;-1,2173131108284E-09;100 nA
-0,2001953125;68,9095048260202;-3,96728515625E-11;-0,199493408203125;2;124;0;-1,2173131108284E-09;100 nA
-0,250244140625;69,4099928247566;-3,35693359375E-11;-0,249420166015625;2;125;0;-1,2173131108284E-09;100 nA
-0,30029296875;69,910480823493;-3,0517578125E-11;-0,29931640625;2;126;0;-1,2173131108284E-09;100 nA
-0,350341796875;70,4109688222294;-3,0517578125E-11;-0,349212646484375;2;127;0;-1,2173131108284E-09;100 nA
-0,400390625;70,9114568209658;-2,44140625E-11;-0,39910888671875;2;128;0;-1,2173131108284E-09;100 nA
-0,450439453125;71,4119448197022;-2,44140625E-11;-0,448974609375;2;129;0;-1,2173131108284E-09;100 nA
-0,50048828125;71,9124328184386;-2,13623046875E-11;-0,4989013671875;2;130;0;-1,2173131108284E-09;100 nA
-0,550537109375;72,412920817175;-1,52587890625E-11;-0,54876708984375;2;131;0;-1,2173131108284E-09;100 nA
-0,6005859375;72,9134088159113;-1,220703125E-11;-0,598663330078125;2;132;0;-1,2173131108284E-09;100 nA
-0,650634765625;73,4138968146477;-1,220703125E-11;-0,64862060546875;2;133;0;-1,2173131108284E-09;100 nA
-0,70068359375;73,9143848133841;-1,52587890625E-11;-0,698577880859375;2;134;0;-1,2173131108284E-09;100 nA
-0,750732421875;74,4148728121205;-1,52587890625E-11;-0,74859619140625;2;135;0;-1,2173131108284E-09;100 nA
-0,80078125;74,9153608108569;-1,220703125E-11;-0,79833984375;2;136;0;-1,2173131108284E-09;100 nA
-0,850830078125;75,4158488095933;-1,52587890625E-11;-0,8489990234375;2;137;0;-1,2173131108284E-09;100 nA
-0,90087890625;75,9163368083297;-2,44140625E-11;-0,8984375;2;138;0;-1,2173131108284E-09;100 nA
-0,950927734375;76,4168248070661;-2,13623046875E-11;-0,9490966796875;2;139;0;-1,2173131108284E-09;100 nA
-1,0009765625;76,9173128058025;-2,74658203125E-11;-0,9991455078125;2;140;0;-1,2173131108284E-09;100 nA
-0,950927734375;77,4178008045388;-2,74658203125E-11;-0,94879150390625;2;141;0;-1,2173131108284E-09;100 nA
-0,90087890625;77,9182888032752;-3,35693359375E-11;-0,8990478515625;2;142;0;-1,2173131108284E-09;100 nA
-0,850830078125;78,4187768020116;-3,0517578125E-11;-0,848388671875;2;143;0;-1,2173131108284E-09;100 nA
-0,80078125;78,919264800748;-3,0517578125E-11;-0,79864501953125;2;144;0;-1,2173131108284E-09;100 nA
-0,750732421875;79,4197527994844;-3,96728515625E-11;-0,74859619140625;2;145;0;-1,2173131108284E-09;100 nA
-0,70068359375;79,9202407982208;-3,35693359375E-11;-0,6986083984375;2;146;0;-1,2173131108284E-09;100 nA
-0,650634765625;80,4207287969572;-1,8310546875E-11;-0,6485595703125;2;147;0;-1,2173131108284E-09;100 nA
-0,6005859375;80,9212167956936;-1,220703125E-11;-0,598663330078125;2;148;0;-1,2173131108284E-09;100 nA
-0,550537109375;81,42170479443;-9,1552734375E-12;-0,54876708984375;2;149;0;-1,2173131108284E-09;100 nA
-0,50048828125;81,9221927931663;-9,1552734375E-12;-0,49884033203125;2;150;0;-1,2173131108284E-09;100 nA
-0,450439453125;82,4226807919027;-1,8310546875E-11;-0,448944091796875;2;151;0;-1,2173131108284E-09;100 nA
-0,400390625;82,9231687906391;-2,13623046875E-11;-0,399139404296875;2;152;0;-1,2173131108284E-09;100 nA
-0,350341796875;83,4236567893755;-2,13623046875E-11;-0,3492431640625;2;153;0;-1,2173131108284E-09;100 nA
-0,30029296875;83,9241447881119;-2,13623046875E-11;-0,29925537109375;2;154;0;-1,2173131108284E-09;100 nA
-0,250244140625;84,4246327868483;-3,0517578125E-11;-0,2493896484375;2;155;0;-1,2173131108284E-09;100 nA
-0,2001953125;84,9251207855847;-3,0517578125E-11;-0,199462890625;2;156;0;-1,2173131108284E-09;100 nA
-0,150146484375;85,4256087843211;-3,0517578125E-11;-0,149627685546875;2;157;0;-1,2173131108284E-09;100 nA
-0,10009765625;85,9260967830575;-3,662109375E-11;-0,09967041015625;2;158;0;-1,2173131108284E-09;100 nA
-0,050048828125;86,4265847817938;-3,662109375E-11;-0,0498046875;2;159;0;-1,2173131108284E-09;100 nA
0;86,9270727805302;-3,35693359375E-11;0,0001220703125;2;160;0;-1,2173131108284E-09;100 nA
0,050048828125;87,4275607792666;-3,35693359375E-11;0,050048828125;3;161;5,62071800231934E-10;-8,67545604705811E-10;100 nA
0,10009765625;87,928048778003;-3,662109375E-11;0,0999755859375;3;162;5,62071800231934E-10;-8,67545604705811E-10;100 nA
0,150146484375;88,4285367767394;-3,662109375E-11;0,150054931640625;3;163;5,62071800231934E-10;-8,67545604705811E-10;100 nA
0,2001953125;88,9290247754758;-4,2724609375E-11;0,200042724609375;3;164;5,62071800231934E-10;-8,67545604705811E-10;100 nA
0,250244140625;89,4295127742122;-4,2724609375E-11;0,250030517578125;3;165;5,62071800231934E-10;-8,67545604705811E-10;100 nA
0,30029296875;89,9300007729486;-5,18798828125E-11;0,300079345703125;3;166;5,62071800231934E-10;-8,67545604705811E-10;100 nA
0,350341796875;90,430488771685;-5,4931640625E-11;0,35009765625;3;167;5,62071800231934E-10;-8,67545604705811E-10;100 nA
0,400390625;90,9309767704214;-5,79833984375E-11;0,40008544921875;3;168;5,62071800231934E-10;-8,67545604705811E-10;100 nA
0,450439453125;91,4314647691577;-4,2724609375E-11;0,4500732421875;3;169;5,62071800231934E-10;-8,67545604705811E-10;100 nA
0,50048828125;91,9319527678941;-4,57763671875E-11;0,50006103515625;3;170;5,62071800231934E-10;-8,67545604705811E-10;100 nA
0,550537109375;92,4324407666305;-5,18798828125E-11;0,550079345703125;3;171;5,62071800231934E-10;-8,67545604705811E-10;100 nA
0,6005859375;92,9329287653669;-4,57763671875E-11;0,600128173828125;3;172;5,62071800231934E-10;-8,67545604705811E-10;100 nA
0,650634765625;93,4334167641033;-4,2724609375E-11;0,6500244140625;3;173;5,62071800231934E-10;-8,67545604705811E-10;100 nA
0,70068359375;93,9339047628397;-3,96728515625E-11;0,699920654296875;3;174;5,62071800231934E-10;-8,67545604705811E-10;100 nA
0,750732421875;94,4343927615761;-3,662109375E-11;0,74981689453125;3;175;5,62071800231934E-10;-8,67545604705811E-10;100 nA
0,80078125;94,9348807603125;-3,662109375E-11;0,8001708984375;3;176;5,62071800231934E-10;-8,67545604705811E-10;100 nA
0,850830078125;95,4353687590489;-2,44140625E-11;0,849609375;3;177;5,62071800231934E-10;-8,67545604705811E-10;100 nA
0,90087890625;95,9358567577852;-1,52587890625E-11;0,899658203125;3;178;5,62071800231934E-10;-8,67545604705811E-10;100 nA
0,950927734375;96,4363447565216;-1,52587890625E-11;0,94970703125;3;179;5,62071800231934E-10;-8,67545604705811E-10;100 nA
1,0009765625;96,936832755258;-1,8310546875E-11;1,00006103515625;3;180;5,62071800231934E-10;-8,67545604705811E-10;100 nA
0,950927734375;97,4373207539944;-1,8310546875E-11;0,94970703125;3;181;5,62071800231934E-10;-8,67545604705811E-10;100 nA
0,90087890625;97,9378087527308;-2,74658203125E-11;0,899658203125;3;182;5,62071800231934E-10;-8,67545604705811E-10;100 nA
0,850830078125;98,4382967514672;-2,13623046875E-11;0,84991455078125;3;183;5,62071800231934E-10;-8,67545604705811E-10;100 nA
0,80078125;98,9387847502036;-2,74658203125E-11;0,799560546875;3;184;5,62071800231934E-10;-8,67545604705811E-10;100 nA
0,750732421875;99,43927274894;-1,8310546875E-11;0,7498779296875;3;185;5,62071800231934E-10;-8,67545604705811E-10;100 nA
0,70068359375;99,9397607476764;-2,44140625E-11;0,69989013671875;3;186;5,62071800231934E-10;-8,67545604705811E-10;100 nA
0,650634765625;100,440248746413;-3,662109375E-11;0,650054931640625;3;187;5,62071800231934E-10;-8,67545604705811E-10;100 nA
0,6005859375;100,940736745149;-4,2724609375E-11;0,600067138671875;3;188;5,62071800231934E-10;-8,67545604705811E-10;100 nA
0,550537109375;101,441224743886;-4,8828125E-11;0,550079345703125;3;189;5,62071800231934E-10;-8,67545604705811E-10;100 nA
0,50048828125;101,941712742622;-4,8828125E-11;0,500030517578125;3;190;5,62071800231934E-10;-8,67545604705811E-10;100 nA
0,450439453125;102,442200741358;-4,8828125E-11;0,450164794921875;3;191;5,62071800231934E-10;-8,67545604705811E-10;100 nA
0,400390625;102,942688740095;-5,18798828125E-11;0,400115966796875;3;192;5,62071800231934E-10;-8,67545604705811E-10;100 nA
0,350341796875;103,443176738831;-4,2724609375E-11;0,350067138671875;3;193;5,62071800231934E-10;-8,67545604705811E-10;100 nA
0,30029296875;103,943664737567;-3,662109375E-11;0,300048828125;3;194;5,62071800231934E-10;-8,67545604705811E-10;100 nA
0,250244140625;104,444152736304;-3,96728515625E-11;0,25006103515625;3;195;5,62071800231934E-10;-8,67545604705811E-10;100 nA
0,2001953125;104,94464073504;-3,0517578125E-11;0,200103759765625;3;196;5,62071800231934E-10;-8,67545604705811E-10;100 nA
0,150146484375;105,445128733777;-3,35693359375E-11;0,15008544921875;3;197;5,62071800231934E-10;-8,67545604705811E-10;100 nA
0,10009765625;105,945616732513;-3,35693359375E-11;0,100067138671875;3;198;5,62071800231934E-10;-8,67545604705811E-10;100 nA
0,050048828125;106,446104731249;-2,74658203125E-11;0,050048828125;3;199;5,62071800231934E-10;-8,67545604705811E-10;100 nA
0;106,946592729986;-2,74658203125E-11;0,000134277343750003;3;200;5,62071800231934E-10;-8,67545604705811E-10;100 nA
-0,050048828125;107,447080728722;-2,74658203125E-11;-0,04986572265625;3;201;5,62071800231934E-10;-8,67545604705811E-10;100 nA
-0,10009765625;107,947568727459;-2,13623046875E-11;-0,0997314453125;3;202;5,62071800231934E-10;-8,67545604705811E-10;100 nA
-0,150146484375;108,448056726195;-3,0517578125E-12;-0,149658203125;3;203;5,62071800231934E-10;-8,67545604705811E-10;100 nA
-0,2001953125;108,948544724931;-9,1552734375E-12;-0,199432373046875;3;204;5,62071800231934E-10;-8,67545604705811E-10;100 nA
-0,250244140625;109,449032723668;-1,52587890625E-11;-0,249359130859375;3;205;5,62071800231934E-10;-8,67545604705811E-10;100 nA
-0,30029296875;109,949520722404;-2,13623046875E-11;-0,299285888671875;3;206;5,62071800231934E-10;-8,67545604705811E-10;100 nA
-0,350341796875;110,450008721141;-2,44140625E-11;-0,34918212890625;3;207;5,62071800231934E-10;-8,67545604705811E-10;100 nA
-0,400390625;110,950496719877;-2,74658203125E-11;-0,399078369140625;3;208;5,62071800231934E-10;-8,67545604705811E-10;100 nA
-0,450439453125;111,450984718613;-2,74658203125E-11;-0,448974609375;3;209;5,62071800231934E-10;-8,67545604705811E-10;100 nA
-0,50048828125;111,95147271735;-2,13623046875E-11;-0,498870849609375;3;210;5,62071800231934E-10;-8,67545604705811E-10;100 nA
-0,550537109375;112,451960716086;-1,52587890625E-11;-0,54876708984375;3;211;5,62071800231934E-10;-8,67545604705811E-10;100 nA
-0,6005859375;112,952448714822;-1,220703125E-11;-0,598663330078125;3;212;5,62071800231934E-10;-8,67545604705811E-10;100 nA
-0,650634765625;113,452936713559;-3,0517578125E-12;-0,64862060546875;3;213;5,62071800231934E-10;-8,67545604705811E-10;100 nA
-0,70068359375;113,953424712295;6,103515625E-12;-0,698577880859375;3;214;5,62071800231934E-10;-8,67545604705811E-10;100 nA
-0,750732421875;114,453912711032;9,1552734375E-12;-0,748626708984375;3;215;5,62071800231934E-10;-8,67545604705811E-10;100 nA
-0,80078125;114,954400709768;0;-0,79864501953125;3;216;5,62071800231934E-10;-8,67545604705811E-10;100 nA
-0,850830078125;115,454888708504;-1,220703125E-11;-0,8489990234375;3;217;5,62071800231934E-10;-8,67545604705811E-10;100 nA
-0,90087890625;115,955376707241;-1,8310546875E-11;-0,89874267578125;3;218;5,62071800231934E-10;-8,67545604705811E-10;100 nA
-0,950927734375;116,455864705977;-1,52587890625E-11;-0,94879150390625;3;219;5,62071800231934E-10;-8,67545604705811E-10;100 nA
-1,0009765625;116,956352704714;6,103515625E-12;-0,99945068359375;3;220;5,62071800231934E-10;-8,67545604705811E-10;100 nA
-0,950927734375;117,45684070345;1,8310546875E-11;-0,9490966796875;3;221;5,62071800231934E-10;-8,67545604705811E-10;100 nA
-0,90087890625;117,957328702186;4,8828125E-11;-0,8990478515625;3;222;5,62071800231934E-10;-8,67545604705811E-10;100 nA
-0,850830078125;118,457816700923;5,18798828125E-11;-0,8489990234375;3;223;5,62071800231934E-10;-8,67545604705811E-10;100 nA
-0,80078125;118,958304699659;4,8828125E-11;-0,79925537109375;3;224;5,62071800231934E-10;-8,67545604705811E-10;100 nA
-0,750732421875;119,458792698396;4,8828125E-11;-0,748565673828125;3;225;5,62071800231934E-10;-8,67545604705811E-10;100 nA
-0,70068359375;119,959280697132;4,8828125E-11;-0,6986083984375;3;226;5,62071800231934E-10;-8,67545604705811E-10;100 nA
-0,650634765625;120,459768695868;5,18798828125E-11;-0,648651123046875;3;227;5,62071800231934E-10;-8,67545604705811E-10;100 nA
-0,6005859375;120,960256694605;5,4931640625E-11;-0,598663330078125;3;228;5,62071800231934E-10;-8,67545604705811E-10;100 nA
-0,550537109375;121,460744693341;5,79833984375E-11;-0,54876708984375;3;229;5,62071800231934E-10;-8,67545604705811E-10;100 nA
-0,50048828125;121,961232692077;5,4931640625E-11;-0,498809814453125;3;230;5,62071800231934E-10;-8,67545604705811E-10;100 nA
-0,450439453125;122,461720690814;5,79833984375E-11;-0,448974609375;3;231;5,62071800231934E-10;-8,67545604705811E-10;100 nA
-0,400390625;122,96220868955;5,79833984375E-11;-0,39910888671875;3;232;5,62071800231934E-10;-8,67545604705811E-10;100 nA
-0,350341796875;123,462696688287;6,40869140625E-11;-0,349151611328125;3;233;5,62071800231934E-10;-8,67545604705811E-10;100 nA
-0,30029296875;123,963184687023;6,103515625E-11;-0,299224853515625;3;234;5,62071800231934E-10;-8,67545604705811E-10;100 nA
-0,250244140625;124,463672685759;6,103515625E-11;-0,2493896484375;3;235;5,62071800231934E-10;-8,67545604705811E-10;100 nA
-0,2001953125;124,964160684496;6,103515625E-11;-0,199462890625;3;236;5,62071800231934E-10;-8,67545604705811E-10;100 nA
-0,150146484375;125,464648683232;6,40869140625E-11;-0,149627685546875;3;237;5,62071800231934E-10;-8,67545604705811E-10;100 nA
-0,10009765625;125,965136681969;6,103515625E-11;-0,0997314453125;3;238;5,62071800231934E-10;-8,67545604705811E-10;100 nA
-0,050048828125;126,465624680705;6,103515625E-11;-0,0498046875;3;239;5,62071800231934E-10;-8,67545604705811E-10;100 nA
0;126,966112679441;6,7138671875E-11;0,000115966796875006;3;240;5,62071800231934E-10;-8,67545604705811E-10;100 nA
0,050048828125;127,466600678178;6,7138671875E-11;0,05010986328125;4;241;3,3877044916153E-09;0;100 nA
0,10009765625;127,967088676914;7,01904296875E-11;0,10009765625;4;242;3,3877044916153E-09;0;100 nA
0,150146484375;128,467576675651;7,01904296875E-11;0,1500244140625;4;243;3,3877044916153E-09;0;100 nA
0,2001953125;128,968064674387;7,9345703125E-11;0,2000732421875;4;244;3,3877044916153E-09;0;100 nA
0,250244140625;129,468552673123;8,544921875E-11;0,2501220703125;4;245;3,3877044916153E-09;0;100 nA
0,30029296875;129,96904067186;8,23974609375E-11;0,30010986328125;4;246;3,3877044916153E-09;0;100 nA
0,350341796875;130,469528670596;8,544921875E-11;0,35009765625;4;247;3,3877044916153E-09;0;100 nA
0,400390625;130,970016669332;7,9345703125E-11;0,400177001953125;4;248;3,3877044916153E-09;0;100 nA
0,450439453125;131,470504668069;7,62939453125E-11;0,450164794921875;4;249;3,3877044916153E-09;0;100 nA
0,50048828125;131,970992666805;7,62939453125E-11;0,5001220703125;4;250;3,3877044916153E-09;0;100 nA
0,550537109375;132,471480665542;7,9345703125E-11;0,55010986328125;4;251;3,3877044916153E-09;0;100 nA
0,6005859375;132,971968664278;8,544921875E-11;0,60009765625;4;252;3,3877044916153E-09;0;100 nA
0,650634765625;133,472456663014;8,23974609375E-11;0,65008544921875;4;253;3,3877044916153E-09;0;100 nA
0,70068359375;133,972944661751;8,544921875E-11;0,699920654296875;4;254;3,3877044916153E-09;0;100 nA
0,750732421875;134,473432660487;8,544921875E-11;0,7498779296875;4;255;3,3877044916153E-09;0;100 nA
0,80078125;134,973920659224;8,85009765625E-11;0,799560546875;4;256;3,3877044916153E-09;0;100 nA
0,850830078125;135,47440865796;9,1552734375E-11;0,84991455078125;4;257;3,3877044916153E-09;0;100 nA
0,90087890625;135,974896656696;9,1552734375E-11;0,899658203125;4;258;3,3877044916153E-09;0;100 nA
0,950927734375;136,475384655433;8,85009765625E-11;0,9490966796875;4;259;3,3877044916153E-09;0;100 nA
1,0009765625;136,975872654169;8,85009765625E-11;0,999755859375;4;260;3,3877044916153E-09;0;100 nA
0,950927734375;137,476360652906;8,85009765625E-11;0,94940185546875;4;261;3,3877044916153E-09;0;100 nA
0,90087890625;137,976848651642;8,23974609375E-11;0,899658203125;4;262;3,3877044916153E-09;0;100 nA
0,850830078125;138,477336650378;8,85009765625E-11;0,8502197265625;4;263;3,3877044916153E-09;0;100 nA
0,80078125;138,977824649115;8,23974609375E-11;0,799560546875;4;264;3,3877044916153E-09;0;100 nA
0,750732421875;139,478312647851;7,9345703125E-11;0,749847412109375;4;265;3,3877044916153E-09;0;100 nA
0,70068359375;139,978800646588;8,23974609375E-11;0,699951171875;4;266;3,3877044916153E-09;0;100 nA
0,650634765625;140,479288645324;7,9345703125E-11;0,650054931640625;4;267;3,3877044916153E-09;0;100 nA
0,6005859375;140,97977664406;8,23974609375E-11;0,60009765625;4;268;3,3877044916153E-09;0;100 nA
0,550537109375;141,480264642797;7,9345703125E-11;0,550079345703125;4;269;3,3877044916153E-09;0;100 nA
0,50048828125;141,980752641533;8,544921875E-11;0,500091552734375;4;270;3,3877044916153E-09;0;100 nA
0,450439453125;142,481240640269;8,23974609375E-11;0,450164794921875;4;271;3,3877044916153E-09;0;100 nA
0,400390625;142,981728639006;9,1552734375E-11;0,400115966796875;4;272;3,3877044916153E-09;0;100 nA
0,350341796875;143,482216637742;8,544921875E-11;0,35009765625;4;273;3,3877044916153E-09;0;100 nA
0,30029296875;143,982704636479;9,1552734375E-11;0,300140380859375;4;274;3,3877044916153E-09;0;100 nA
0,250244140625;144,483192635215;9,765625E-11;0,2501220703125;4;275;3,3877044916153E-09;0;100 nA
0,2001953125;144,983680633951;9,46044921875E-11;0,200103759765625;4;276;3,3877044916153E-09;0;100 nA
0,150146484375;145,484168632688;7,9345703125E-11;0,15008544921875;4;277;3,3877044916153E-09;0;100 nA
0,10009765625;145,984656631424;7,62939453125E-11;0,100067138671875;4;278;3,3877044916153E-09;0;100 nA
0,050048828125;146,485144630161;9,765625E-11;0,050079345703125;4;279;3,3877044916153E-09;0;100 nA
0;146,985632628897;1,312255859375E-10;0,000119018554687503;4;280;3,3877044916153E-09;0;100 nA
-0,050048828125;147,486120627633;1,251220703125E-10;-0,0498046875;4;281;3,3877044916153E-09;0;100 nA
-0,10009765625;147,98660862637;1,28173828125E-10;-0,09967041015625;4;282;3,3877044916153E-09;0;100 nA
-0,150146484375;148,487096625106;1,251220703125E-10;-0,149627685546875;4;283;3,3877044916153E-09;0;100 nA
-0,2001953125;148,987584623843;1,007080078125E-10;-0,199432373046875;4;284;3,3877044916153E-09;0;100 nA
-0,250244140625;149,488072622579;8,544921875E-11;-0,2493896484375;4;285;3,3877044916153E-09;0;100 nA
-0,30029296875;149,988560621315;7,9345703125E-11;-0,29925537109375;4;286;3,3877044916153E-09;0;100 nA
-0,350341796875;150,489048620052;9,46044921875E-11;-0,349151611328125;4;287;3,3877044916153E-09;0;100 nA
-0,400390625;150,989536618788;1,190185546875E-10;-0,399017333984375;4;288;3,3877044916153E-09;0;100 nA
-0,450439453125;151,490024617524;1,190185546875E-10;-0,448974609375;4;289;3,3877044916153E-09;0;100 nA
-0,50048828125;151,990512616261;1,03759765625E-10;-0,498809814453125;4;290;3,3877044916153E-09;0;100 nA
-0,550537109375;152,491000614997;9,46044921875E-11;-0,54876708984375;4;291;3,3877044916153E-09;0;100 nA
-0,6005859375;152,991488613734;1,0986328125E-10;-0,598663330078125;4;292;3,3877044916153E-09;0;100 nA
-0,650634765625;153,49197661247;1,3427734375E-10;-0,6485595703125;4;293;3,3877044916153E-09;0;100 nA
-0,70068359375;153,992464611206;1,3427734375E-10;-0,698638916015625;4;294;3,3877044916153E-09;0;100 nA
-0,750732421875;154,492952609943;1,312255859375E-10;-0,748565673828125;4;295;3,3877044916153E-09;0;100 nA
-0,80078125;154,993440608679;1,220703125E-10;-0,79864501953125;4;296;3,3877044916153E-09;0;100 nA
-0,850830078125;155,493928607416;1,190185546875E-10;-0,8489990234375;4;297;3,3877044916153E-09;0;100 nA
-0,90087890625;155,994416606152;1,129150390625E-10;-0,8984375;4;298;3,3877044916153E-09;0;100 nA
-0,950927734375;156,494904604888;1,28173828125E-10;-0,9490966796875;4;299;3,3877044916153E-09;0;100 nA
-1,0009765625;156,995392603625;1,03759765625E-10;-0,99884033203125;4;300;3,3877044916153E-09;0;100 nA
-0,950927734375;157,495880602361;9,1552734375E-11;-0,9490966796875;4;301;3,3877044916153E-09;0;100 nA
-0,90087890625;157,996368601098;9,765625E-11;-0,89935302734375;4;302;3,3877044916153E-09;0;100 nA
-0,850830078125;158,496856599834;1,0986328125E-10;-0,84869384765625;4;303;3,3877044916153E-09;0;100 nA
-0,80078125;158,99734459857;1,129150390625E-10;-0,79864501953125;4;304;3,3877044916153E-09;0;100 nA
-0,750732421875;159,497832597307;9,765625E-11;-0,7486572265625;4;305;3,3877044916153E-09;0;100 nA
-0,70068359375;159,998320596043;7,9345703125E-11;-0,69854736328125;4;306;3,3877044916153E-09;0;100 nA
-0,650634765625;160,498808594779;4,8828125E-11;-0,648590087890625;4;307;3,3877044916153E-09;0;100 nA
-0,6005859375;160,999296593516;4,57763671875E-11;-0,59869384765625;4;308;3,3877044916153E-09;0;100 nA
-0,550537109375;161,499784592252;4,8828125E-11;-0,54876708984375;4;309;3,3877044916153E-09;0;100 nA
-0,50048828125;162,000272590989;4,2724609375E-11;-0,49884033203125;4;310;3,3877044916153E-09;0;100 nA
-0,450439453125;162,500760589725;3,96728515625E-11;-0,448944091796875;4;311;3,3877044916153E-09;0;100 nA
-0,400390625;163,001248588461;4,2724609375E-11;-0,399078369140625;4;312;3,3877044916153E-09;0;100 nA
-0,350341796875;163,501736587198;3,96728515625E-11;-0,34918212890625;4;313;3,3877044916153E-09;0;100 nA
-0,30029296875;164,002224585934;3,662109375E-11;-0,29925537109375;4;314;3,3877044916153E-09;0;100 nA
-0,250244140625;164,502712584671;3,96728515625E-11;-0,249359130859375;4;315;3,3877044916153E-09;0;100 nA
-0,2001953125;165,003200583407;3,662109375E-11;-0,199462890625;4;316;3,3877044916153E-09;0;100 nA
-0,150146484375;165,503688582143;2,74658203125E-11;-0,149566650390625;4;317;3,3877044916153E-09;0;100 nA
-0,10009765625;166,00417658088;1,52587890625E-11;-0,099700927734375;4;318;3,3877044916153E-09;0;100 nA
-0,050048828125;166,504664579616;2,13623046875E-11;-0,049835205078125;4;319;3,3877044916153E-09;0;100 nA
0;167,005152578353;2,74658203125E-11;0,000128173828124994;4;320;3,3877044916153E-09;0;100 nA
0,050048828125;167,505640577089;1,8310546875E-11;0,050048828125;5;321;1,73814594745636E-09;-2,19941139221191E-10;100 nA
0,10009765625;168,006128575825;1,8310546875E-11;0,100067138671875;5;322;1,73814594745636E-09;-2,19941139221191E-10;100 nA
0,150146484375;168,506616574562;1,220703125E-11;0,150054931640625;5;323;1,73814594745636E-09;-2,19941139221191E-10;100 nA
0,2001953125;169,007104573298;1,52587890625E-11;0,200103759765625;5;324;1,73814594745636E-09;-2,19941139221191E-10;100 nA
0,250244140625;169,507592572034;2,13623046875E-11;0,250091552734375;5;325;1,73814594745636E-09;-2,19941139221191E-10;100 nA
0,30029296875;170,008080570771;-2,44140625E-11;0,30010986328125;5;326;1,73814594745636E-09;-2,19941139221191E-10;100 nA
0,350341796875;170,508568569507;-3,0517578125E-11;0,350128173828125;5;327;1,73814594745636E-09;-2,19941139221191E-10;100 nA
0,400390625;171,009056568244;0;0,40008544921875;5;328;1,73814594745636E-09;-2,19941139221191E-10;100 nA
0,450439453125;171,50954456698;1,220703125E-11;0,450103759765625;5;329;1,73814594745636E-09;-2,19941139221191E-10;100 nA
0,50048828125;172,010032565716;9,1552734375E-12;0,5001220703125;5;330;1,73814594745636E-09;-2,19941139221191E-10;100 nA
0,550537109375;172,510520564453;-2,13623046875E-11;0,550048828125;5;331;1,73814594745636E-09;-2,19941139221191E-10;100 nA
0,6005859375;173,011008563189;-2,13623046875E-11;0,600067138671875;5;332;1,73814594745636E-09;-2,19941139221191E-10;100 nA
0,650634765625;173,511496561926;-6,103515625E-12;0,649993896484375;5;333;1,73814594745636E-09;-2,19941139221191E-10;100 nA
0,70068359375;174,011984560662;3,0517578125E-12;0,699920654296875;5;334;1,73814594745636E-09;-2,19941139221191E-10;100 nA
0,750732421875;174,512472559398;-3,0517578125E-11;0,7498779296875;5;335;1,73814594745636E-09;-2,19941139221191E-10;100 nA
0,80078125;175,012960558135;-4,8828125E-11;0,80047607421875;5;336;1,73814594745636E-09;-2,19941139221191E-10;100 nA
0,850830078125;175,513448556871;-4,57763671875E-11;0,84991455078125;5;337;1,73814594745636E-09;-2,19941139221191E-10;100 nA
0,90087890625;176,013936555608;-3,35693359375E-11;0,899658203125;5;338;1,73814594745636E-09;-2,19941139221191E-10;100 nA
0,950927734375;176,514424554344;-2,44140625E-11;0,94970703125;5;339;1,73814594745636E-09;-2,19941139221191E-10;100 nA
1,0009765625;177,01491255308;-2,44140625E-11;1,00006103515625;5;340;1,73814594745636E-09;-2,19941139221191E-10;100 nA
0,950927734375;177,515400551817;-1,8310546875E-11;0,95001220703125;5;341;1,73814594745636E-09;-2,19941139221191E-10;100 nA
0,90087890625;178,015888550553;-3,0517578125E-11;0,89935302734375;5;342;1,73814594745636E-09;-2,19941139221191E-10;100 nA
0,850830078125;178,516376549289;0;0,84991455078125;5;343;1,73814594745636E-09;-2,19941139221191E-10;100 nA
0,80078125;179,016864548026;3,0517578125E-12;0,79986572265625;5;344;1,73814594745636E-09;-2,19941139221191E-10;100 nA
0,750732421875;179,517352546762;3,0517578125E-12;0,7498779296875;5;345;1,73814594745636E-09;-2,19941139221191E-10;100 nA
0,70068359375;180,017840545499;-1,220703125E-11;0,69989013671875;5;346;1,73814594745636E-09;-2,19941139221191E-10;100 nA
0,650634765625;180,518328544235;1,220703125E-11;0,650054931640625;5;347;1,73814594745636E-09;-2,19941139221191E-10;100 nA
0,6005859375;181,018816542971;4,57763671875E-11;0,600128173828125;5;348;1,73814594745636E-09;-2,19941139221191E-10;100 nA
0,550537109375;181,519304541708;5,18798828125E-11;0,550079345703125;5;349;1,73814594745636E-09;-2,19941139221191E-10;100 nA
0,50048828125;182,019792540444;5,4931640625E-11;0,5001220703125;5;350;1,73814594745636E-09;-2,19941139221191E-10;100 nA
0,450439453125;182,520280539181;5,79833984375E-11;0,450103759765625;5;351;1,73814594745636E-09;-2,19941139221191E-10;100 nA
0,400390625;183,020768537917;5,4931640625E-11;0,40008544921875;5;352;1,73814594745636E-09;-2,19941139221191E-10;100 nA
0,350341796875;183,521256536653;5,79833984375E-11;0,35009765625;5;353;1,73814594745636E-09;-2,19941139221191E-10;100 nA
0,30029296875;184,02174453539;5,79833984375E-11;0,300048828125;5;354;1,73814594745636E-09;-2,19941139221191E-10;100 nA
0,250244140625;184,522232534126;6,103515625E-11;0,25006103515625;5;355;1,73814594745636E-09;-2,19941139221191E-10;100 nA
0,2001953125;185,022720532863;7,62939453125E-11;0,20013427734375;5;356;1,73814594745636E-09;-2,19941139221191E-10;100 nA
0,150146484375;185,523208531599;7,62939453125E-11;0,150115966796875;5;357;1,73814594745636E-09;-2,19941139221191E-10;100 nA
0,10009765625;186,023696530335;7,01904296875E-11;0,100128173828125;5;358;1,73814594745636E-09;-2,19941139221191E-10;100 nA
0,050048828125;186,524184529072;8,544921875E-11;0,05010986328125;5;359;1,73814594745636E-09;-2,19941139221191E-10;100 nA
0;187,024672527808;8,23974609375E-11;0,0001373291015625;5;360;1,73814594745636E-09;-2,19941139221191E-10;100 nA
-0,050048828125;187,525160526544;8,23974609375E-11;-0,049835205078125;5;361;1,73814594745636E-09;-2,19941139221191E-10;100 nA
-0,10009765625;188,025648525281;8,544921875E-11;-0,099700927734375;5;362;1,73814594745636E-09;-2,19941139221191E-10;100 nA
-0,150146484375;188,526136524017;7,9345703125E-11;-0,14959716796875;5;363;1,73814594745636E-09;-2,19941139221191E-10;100 nA
-0,2001953125;189,026624522754;1,28173828125E-10;-0,199432373046875;5;364;1,73814594745636E-09;-2,19941139221191E-10;100 nA
-0,250244140625;189,52711252149;1,0986328125E-10;-0,249359130859375;5;365;1,73814594745636E-09;-2,19941139221191E-10;100 nA
-0,30029296875;190,027600520226;7,9345703125E-11;-0,299224853515625;5;366;1,73814594745636E-09;-2,19941139221191E-10;100 nA
-0,350341796875;190,528088518963;9,46044921875E-11;-0,349212646484375;5;367;1,73814594745636E-09;-2,19941139221191E-10;100 nA
-0,400390625;191,028576517699;1,220703125E-10;-0,399078369140625;5;368;1,73814594745636E-09;-2,19941139221191E-10;100 nA
-0,450439453125;191,529064516436;1,0986328125E-10;-0,449005126953125;5;369;1,73814594745636E-09;-2,19941139221191E-10;100 nA
-0,50048828125;192,029552515172;9,46044921875E-11;-0,49884033203125;5;370;1,73814594745636E-09;-2,19941139221191E-10;100 nA
-0,550537109375;192,530040513908;1,28173828125E-10;-0,54876708984375;5;371;1,73814594745636E-09;-2,19941139221191E-10;100 nA
-0,6005859375;193,030528512645;1,434326171875E-10;-0,598663330078125;5;372;1,73814594745636E-09;-2,19941139221191E-10;100 nA
-0,650634765625;193,531016511381;1,220703125E-10;-0,64862060546875;5;373;1,73814594745636E-09;-2,19941139221191E-10;100 nA
-0,70068359375;194,031504510118;1,220703125E-10;-0,698577880859375;5;374;1,73814594745636E-09;-2,19941139221191E-10;100 nA
-0,750732421875;194,531992508854;1,15966796875E-10;-0,748626708984375;5;375;1,73814594745636E-09;-2,19941139221191E-10;100 nA
-0,80078125;195,03248050759;1,03759765625E-10;-0,79864501953125;5;376;1,73814594745636E-09;-2,19941139221191E-10;100 nA
-0,850830078125;195,532968506327;8,85009765625E-11;-0,8489990234375;5;377;1,73814594745636E-09;-2,19941139221191E-10;100 nA
-0,90087890625;196,033456505063;9,765625E-11;-0,89874267578125;5;378;1,73814594745636E-09;-2,19941139221191E-10;100 nA
-0,950927734375;196,533944503799;1,03759765625E-10;-0,9490966796875;5;379;1,73814594745636E-09;-2,19941139221191E-10;100 nA
-1,0009765625;197,034432502536;7,62939453125E-11;-0,99884033203125;5;380;1,73814594745636E-09;-2,19941139221191E-10;100 nA
-0,950927734375;197,534920501272;4,2724609375E-11;-0,94879150390625;5;381;1,73814594745636E-09;-2,19941139221191E-10;100 nA
-0,90087890625;198,035408500009;4,57763671875E-11;-0,89874267578125;5;382;1,73814594745636E-09;-2,19941139221191E-10;100 nA
-0,850830078125;198,535896498745;3,662109375E-11;-0,84869384765625;5;383;1,73814594745636E-09;-2,19941139221191E-10;100 nA
-0,80078125;199,036384497481;4,2724609375E-11;-0,79833984375;5;384;1,73814594745636E-09;-2,19941139221191E-10;100 nA
-0,750732421875;199,536872496218;3,35693359375E-11;-0,74859619140625;5;385;1,73814594745636E-09;-2,19941139221191E-10;100 nA
-0,70068359375;200,037360494954;3,35693359375E-11;-0,6986083984375;5;386;1,73814594745636E-09;-2,19941139221191E-10;100 nA
-0,650634765625;200,537848493691;3,0517578125E-11;-0,64862060546875;5;387;1,73814594745636E-09;-2,19941139221191E-10;100 nA
-0,6005859375;201,038336492427;2,44140625E-11;-0,598663330078125;5;388;1,73814594745636E-09;-2,19941139221191E-10;100 nA
-0,550537109375;201,538824491163;1,8310546875E-11;-0,54876708984375;5;389;1,73814594745636E-09;-2,19941139221191E-10;100 nA
-0,50048828125;202,0393124899;2,44140625E-11;-0,49884033203125;5;390;1,73814594745636E-09;-2,19941139221191E-10;100 nA
-0,450439453125;202,539800488636;1,52587890625E-11;-0,448944091796875;5;391;1,73814594745636E-09;-2,19941139221191E-10;100 nA
-0,400390625;203,040288487373;1,52587890625E-11;-0,399139404296875;5;392;1,73814594745636E-09;-2,19941139221191E-10;100 nA
-0,350341796875;203,540776486109;1,52587890625E-11;-0,34918212890625;5;393;1,73814594745636E-09;-2,19941139221191E-10;100 nA
-0,30029296875;204,041264484845;1,220703125E-11;-0,299285888671875;5;394;1,73814594745636E-09;-2,19941139221191E-10;100 nA
-0,250244140625;204,541752483582;9,1552734375E-12;-0,249359130859375;5;395;1,73814594745636E-09;-2,19941139221191E-10;100 nA
-0,2001953125;205,042240482318;-3,0517578125E-11;-0,199432373046875;5;396;1,73814594745636E-09;-2,19941139221191E-10;100 nA
-0,150146484375;205,542728481055;-1,220703125E-11;-0,14959716796875;5;397;1,73814594745636E-09;-2,19941139221191E-10;100 nA
-0,10009765625;206,043216479791;1,8310546875E-11;-0,099700927734375;5;398;1,73814594745636E-09;-2,19941139221191E-10;100 nA
-0,050048828125;206,543704478527;6,103515625E-12;-0,049835205078125;5;399;1,73814594745636E-09;-2,19941139221191E-10;100 nA
0;207,044192477264;-2,44140625E-11;0,000134277343750003;5;400;1,73814594745636E-09;-2,19941139221191E-10;100 nA
0,050048828125;207,544680476;0;0,05010986328125;6;401;1,62053853273392E-09;-2,62707471847534E-10;100 nA
0,10009765625;208,045168474736;0;0,10003662109375;6;402;1,62053853273392E-09;-2,62707471847534E-10;100 nA
0,150146484375;208,545656473473;-4,2724609375E-11;0,1500244140625;6;403;1,62053853273392E-09;-2,62707471847534E-10;100 nA
0,2001953125;209,046144472209;-3,0517578125E-11;0,200042724609375;6;404;1,62053853273392E-09;-2,62707471847534E-10;100 nA
0,250244140625;209,546632470946;-2,44140625E-11;0,250091552734375;6;405;1,62053853273392E-09;-2,62707471847534E-10;100 nA
0,30029296875;210,047120469682;-2,74658203125E-11;0,300048828125;6;406;1,62053853273392E-09;-2,62707471847534E-10;100 nA
0,350341796875;210,547608468418;-2,44140625E-11;0,350067138671875;6;407;1,62053853273392E-09;-2,62707471847534E-10;100 nA
0,400390625;211,048096467155;-1,8310546875E-11;0,40008544921875;6;408;1,62053853273392E-09;-2,62707471847534E-10;100 nA
0,450439453125;211,548584465891;6,103515625E-12;0,450103759765625;6;409;1,62053853273392E-09;-2,62707471847534E-10;100 nA
0,50048828125;212,049072464628;0;0,50006103515625;6;410;1,62053853273392E-09;-2,62707471847534E-10;100 nA
0,550537109375;212,549560463364;-1,8310546875E-11;0,550140380859375;6;411;1,62053853273392E-09;-2,62707471847534E-10;100 nA
0,6005859375;213,0500484621;9,1552734375E-12;0,600067138671875;6;412;1,62053853273392E-09;-2,62707471847534E-10;100 nA
0,650634765625;213,550536460837;5,18798828125E-11;0,6500244140625;6;413;1,62053853273392E-09;-2,62707471847534E-10;100 nA
0,70068359375;214,051024459573;5,79833984375E-11;0,699951171875;6;414;1,62053853273392E-09;-2,62707471847534E-10;100 nA
0,750732421875;214,55151245831;4,57763671875E-11;0,749908447265625;6;415;1,62053853273392E-09;-2,62707471847534E-10;100 nA
0,80078125;215,052000457046;5,4931640625E-11;0,799560546875;6;416;1,62053853273392E-09;-2,62707471847534E-10;100 nA
0,850830078125;215,552488455782;6,103515625E-11;0,84991455078125;6;417;1,62053853273392E-09;-2,62707471847534E-10;100 nA
0,90087890625;216,052976454519;6,40869140625E-11;0,899658203125;6;418;1,62053853273392E-09;-2,62707471847534E-10;100 nA
0,950927734375;216,553464453255;5,4931640625E-11;0,95001220703125;6;419;1,62053853273392E-09;-2,62707471847534E-10;100 nA
1,0009765625;217,053952451991;6,40869140625E-11;0,9991455078125;6;420;1,62053853273392E-09;-2,62707471847534E-10;100 nA
0,950927734375;217,554440450728;6,7138671875E-11;0,95001220703125;6;421;1,62053853273392E-09;-2,62707471847534E-10;100 nA
0,90087890625;218,054928449464;6,40869140625E-11;0,9002685546875;6;422;1,62053853273392E-09;-2,62707471847534E-10;100 nA
0,850830078125;218,555416448201;7,62939453125E-11;0,8502197265625;6;423;1,62053853273392E-09;-2,62707471847534E-10;100 nA
0,80078125;219,055904446937;8,23974609375E-11;0,79986572265625;6;424;1,62053853273392E-09;-2,62707471847534E-10;100 nA
0,750732421875;219,556392445673;7,01904296875E-11;0,749847412109375;6;425;1,62053853273392E-09;-2,62707471847534E-10;100 nA
0,70068359375;220,05688044441;7,01904296875E-11;0,699981689453125;6;426;1,62053853273392E-09;-2,62707471847534E-10;100 nA
0,650634765625;220,557368443146;8,23974609375E-11;0,6500244140625;6;427;1,62053853273392E-09;-2,62707471847534E-10;100 nA
0,6005859375;221,057856441883;8,23974609375E-11;0,60009765625;6;428;1,62053853273392E-09;-2,62707471847534E-10;100 nA
0,550537109375;221,558344440619;8,23974609375E-11;0,550079345703125;6;429;1,62053853273392E-09;-2,62707471847534E-10;100 nA
0,50048828125;222,058832439355;8,544921875E-11;0,5001220703125;6;430;1,62053853273392E-09;-2,62707471847534E-10;100 nA
0,450439453125;222,559320438092;8,544921875E-11;0,450042724609375;6;431;1,62053853273392E-09;-2,62707471847534E-10;100 nA
0,400390625;223,059808436828;1,28173828125E-10;0,400146484375;6;432;1,62053853273392E-09;-2,62707471847534E-10;100 nA
0,350341796875;223,560296435565;9,46044921875E-11;0,35015869140625;6;433;1,62053853273392E-09;-2,62707471847534E-10;100 nA
0,30029296875;224,060784434301;7,62939453125E-11;0,300079345703125;6;434;1,62053853273392E-09;-2,62707471847534E-10;100 nA
0,250244140625;224,561272433037;1,190185546875E-10;0,2501220703125;6;435;1,62053853273392E-09;-2,62707471847534E-10;100 nA
0,2001953125;225,061760431774;9,765625E-11;0,200103759765625;6;436;1,62053853273392E-09;-2,62707471847534E-10;100 nA
0,150146484375;225,56224843051;1,220703125E-10;0,15008544921875;6;437;1,62053853273392E-09;-2,62707471847534E-10;100 nA
0,10009765625;226,062736429246;1,3427734375E-10;0,10009765625;6;438;1,62053853273392E-09;-2,62707471847534E-10;100 nA
0,050048828125;226,563224427983;1,190185546875E-10;0,050079345703125;6;439;1,62053853273392E-09;-2,62707471847534E-10;100 nA
0;227,063712426719;1,220703125E-10;0,000128173828124994;6;440;1,62053853273392E-09;-2,62707471847534E-10;100 nA
-0,050048828125;227,564200425456;9,1552734375E-11;-0,049713134765625;6;441;1,62053853273392E-09;-2,62707471847534E-10;100 nA
-0,10009765625;228,064688424192;9,765625E-11;-0,09967041015625;6;442;1,62053853273392E-09;-2,62707471847534E-10;100 nA
-0,150146484375;228,565176422928;9,1552734375E-11;-0,149566650390625;6;443;1,62053853273392E-09;-2,62707471847534E-10;100 nA
-0,2001953125;229,065664421665;4,57763671875E-11;-0,199493408203125;6;444;1,62053853273392E-09;-2,62707471847534E-10;100 nA
-0,250244140625;229,566152420401;4,57763671875E-11;-0,249359130859375;6;445;1,62053853273392E-09;-2,62707471847534E-10;100 nA
-0,30029296875;230,066640419138;3,96728515625E-11;-0,299285888671875;6;446;1,62053853273392E-09;-2,62707471847534E-10;100 nA
-0,350341796875;230,567128417874;4,2724609375E-11;-0,349212646484375;6;447;1,62053853273392E-09;-2,62707471847534E-10;100 nA
-0,400390625;231,06761641661;3,662109375E-11;-0,399139404296875;6;448;1,62053853273392E-09;-2,62707471847534E-10;100 nA
-0,450439453125;231,568104415347;3,35693359375E-11;-0,449005126953125;6;449;1,62053853273392E-09;-2,62707471847534E-10;100 nA
-0,50048828125;232,068592414083;2,44140625E-11;-0,498870849609375;6;450;1,62053853273392E-09;-2,62707471847534E-10;100 nA
-0,550537109375;232,56908041282;2,44140625E-11;-0,54876708984375;6;451;1,62053853273392E-09;-2,62707471847534E-10;100 nA
-0,6005859375;233,069568411556;2,13623046875E-11;-0,598663330078125;6;452;1,62053853273392E-09;-2,62707471847534E-10;100 nA
-0,650634765625;233,570056410292;1,52587890625E-11;-0,64862060546875;6;453;1,62053853273392E-09;-2,62707471847534E-10;100 nA
-0,70068359375;234,070544409029;1,8310546875E-11;-0,6986083984375;6;454;1,62053853273392E-09;-2,62707471847534E-10;100 nA
-0,750732421875;234,571032407765;6,103515625E-12;-0,748626708984375;6;455;1,62053853273392E-09;-2,62707471847534E-10;100 nA
-0,80078125;235,071520406501;6,103515625E-12;-0,79864501953125;6;456;1,62053853273392E-09;-2,62707471847534E-10;100 nA
-0,850830078125;235,572008405238;-3,0517578125E-11;-0,8489990234375;6;457;1,62053853273392E-09;-2,62707471847534E-10;100 nA
-0,90087890625;236,072496403974;3,0517578125E-12;-0,89874267578125;6;458;1,62053853273392E-09;-2,62707471847534E-10;100 nA
-0,950927734375;236,572984402711;1,8310546875E-11;-0,948486328125;6;459;1,62053853273392E-09;-2,62707471847534E-10;100 nA
-1,0009765625;237,073472401447;-2,13623046875E-11;-0,99853515625;6;460;1,62053853273392E-09;-2,62707471847534E-10;100 nA
-0,950927734375;237,573960400183;-1,52587890625E-11;-0,9490966796875;6;461;1,62053853273392E-09;-2,62707471847534E-10;100 nA
-0,90087890625;238,07444839892;6,103515625E-12;-0,8990478515625;6;462;1,62053853273392E-09;-2,62707471847534E-10;100 nA
-0,850830078125;238,574936397656;-2,13623046875E-11;-0,8489990234375;6;463;1,62053853273392E-09;-2,62707471847534E-10;100 nA
-0,80078125;239,075424396393;-4,57763671875E-11;-0,7989501953125;6;464;1,62053853273392E-09;-2,62707471847534E-10;100 nA
-0,750732421875;239,575912395129;-4,57763671875E-11;-0,7486572265625;6;465;1,62053853273392E-09;-2,62707471847534E-10;100 nA
-0,70068359375;240,076400393865;-3,662109375E-11;-0,6986083984375;6;466;1,62053853273392E-09;-2,62707471847534E-10;100 nA
-0,650634765625;240,576888392602;-2,44140625E-11;-0,648681640625;6;467;1,62053853273392E-09;-2,62707471847534E-10;100 nA
-0,6005859375;241,077376391338;-2,44140625E-11;-0,598663330078125;6;468;1,62053853273392E-09;-2,62707471847534E-10;100 nA
-0,550537109375;241,577864390075;0;-0,548736572265625;6;469;1,62053853273392E-09;-2,62707471847534E-10;100 nA
-0,50048828125;242,078352388811;-3,0517578125E-11;-0,49884033203125;6;470;1,62053853273392E-09;-2,62707471847534E-10;100 nA
-0,450439453125;242,578840387547;-1,220703125E-11;-0,448974609375;6;471;1,62053853273392E-09;-2,62707471847534E-10;100 nA
-0,400390625;243,079328386284;3,0517578125E-12;-0,399139404296875;6;472;1,62053853273392E-09;-2,62707471847534E-10;100 nA
-0,350341796875;243,57981638502;6,103515625E-12;-0,349212646484375;6;473;1,62053853273392E-09;-2,62707471847534E-10;100 nA
-0,30029296875;244,080304383756;-1,52587890625E-11;-0,29925537109375;6;474;1,62053853273392E-09;-2,62707471847534E-10;100 nA
-0,250244140625;244,580792382493;-1,52587890625E-11;-0,2493896484375;6;475;1,62053853273392E-09;-2,62707471847534E-10;100 nA
-0,2001953125;245,081280381229;9,1552734375E-12;-0,199493408203125;6;476;1,62053853273392E-09;-2,62707471847534E-10;100 nA
-0,150146484375;245,581768379966;4,8828125E-11;-0,149627685546875;6;477;1,62053853273392E-09;-2,62707471847534E-10;100 nA
-0,10009765625;246,082256378702;5,4931640625E-11;-0,0997314453125;6;478;1,62053853273392E-09;-2,62707471847534E-10;100 nA
-0,050048828125;246,582744377438;5,4931640625E-11;-0,0498046875;6;479;1,62053853273392E-09;-2,62707471847534E-10;100 nA
0;247,083232376175;6,103515625E-11;0,0001068115234375;6;480;1,62053853273392E-09;-2,62707471847534E-10;100 nA
0,050048828125;247,583720374911;5,79833984375E-11;0,050079345703125;7;481;2,20093876123428E-09;-1,06915831565857E-10;100 nA
0,10009765625;248,084208373648;5,79833984375E-11;0,10003662109375;7;482;2,20093876123428E-09;-1,06915831565857E-10;100 nA
0,150146484375;248,584696372384;5,79833984375E-11;0,150115966796875;7;483;2,20093876123428E-09;-1,06915831565857E-10;100 nA
0,2001953125;249,08518437112;6,40869140625E-11;0,200103759765625;7;484;2,20093876123428E-09;-1,06915831565857E-10;100 nA
0,250244140625;249,585672369857;6,7138671875E-11;0,250152587890625;7;485;2,20093876123428E-09;-1,06915831565857E-10;100 nA
0,30029296875;250,086160368593;7,32421875E-11;0,300048828125;7;486;2,20093876123428E-09;-1,06915831565857E-10;100 nA
0,350341796875;250,58664836733;7,9345703125E-11;0,350067138671875;7;487;2,20093876123428E-09;-1,06915831565857E-10;100 nA
0,400390625;251,087136366066;7,62939453125E-11;0,400115966796875;7;488;2,20093876123428E-09;-1,06915831565857E-10;100 nA
0,450439453125;251,587624364802;7,62939453125E-11;0,450103759765625;7;489;2,20093876123428E-09;-1,06915831565857E-10;100 nA
0,50048828125;252,088112363539;8,544921875E-11;0,500091552734375;7;490;2,20093876123428E-09;-1,06915831565857E-10;100 nA
0,550537109375;252,588600362275;7,9345703125E-11;0,55010986328125;7;491;2,20093876123428E-09;-1,06915831565857E-10;100 nA
0,6005859375;253,089088361011;8,544921875E-11;0,600128173828125;7;492;2,20093876123428E-09;-1,06915831565857E-10;100 nA
0,650634765625;253,589576359748;9,46044921875E-11;0,650054931640625;7;493;2,20093876123428E-09;-1,06915831565857E-10;100 nA
0,70068359375;254,090064358484;1,312255859375E-10;0,699951171875;7;494;2,20093876123428E-09;-1,06915831565857E-10;100 nA
0,750732421875;254,590552357221;9,46044921875E-11;0,749908447265625;7;495;2,20093876123428E-09;-1,06915831565857E-10;100 nA
0,80078125;255,091040355957;8,23974609375E-11;0,80047607421875;7;496;2,20093876123428E-09;-1,06915831565857E-10;100 nA
0,850830078125;255,591528354693;1,15966796875E-10;0,84991455078125;7;497;2,20093876123428E-09;-1,06915831565857E-10;100 nA
0,90087890625;256,09201635343;9,765625E-11;0,899658203125;7;498;2,20093876123428E-09;-1,06915831565857E-10;100 nA
0,950927734375;256,592504352166;9,46044921875E-11;0,94970703125;7;499;2,20093876123428E-09;-1,06915831565857E-10;100 nA
1,0009765625;257,092992350903;1,40380859375E-10;0,9991455078125;7;500;2,20093876123428E-09;-1,06915831565857E-10;100 nA
0,950927734375;257,593480349639;1,312255859375E-10;0,94940185546875;7;501;2,20093876123428E-09;-1,06915831565857E-10;100 nA
0,90087890625;258,093968348375;1,251220703125E-10;0,9002685546875;7;502;2,20093876123428E-09;-1,06915831565857E-10;100 nA
0,850830078125;258,594456347112;9,46044921875E-11;0,849609375;7;503;2,20093876123428E-09;-1,06915831565857E-10;100 nA
0,80078125;259,094944345848;1,220703125E-10;0,8001708984375;7;504;2,20093876123428E-09;-1,06915831565857E-10;100 nA
0,750732421875;259,595432344585;1,0986328125E-10;0,749847412109375;7;505;2,20093876123428E-09;-1,06915831565857E-10;100 nA
0,70068359375;260,095920343321;8,544921875E-11;0,699920654296875;7;506;2,20093876123428E-09;-1,06915831565857E-10;100 nA
0,650634765625;260,596408342057;1,0986328125E-10;0,650054931640625;7;507;2,20093876123428E-09;-1,06915831565857E-10;100 nA
0,6005859375;261,096896340794;9,46044921875E-11;0,600128173828125;7;508;2,20093876123428E-09;-1,06915831565857E-10;100 nA
0,550537109375;261,59738433953;5,18798828125E-11;0,550079345703125;7;509;2,20093876123428E-09;-1,06915831565857E-10;100 nA
0,50048828125;262,097872338266;4,8828125E-11;0,500091552734375;7;510;2,20093876123428E-09;-1,06915831565857E-10;100 nA
0,450439453125;262,598360337003;4,8828125E-11;0,450103759765625;7;511;2,20093876123428E-09;-1,06915831565857E-10;100 nA
0,400390625;263,098848335739;3,662109375E-11;0,400115966796875;7;512;2,20093876123428E-09;-1,06915831565857E-10;100 nA
0,350341796875;263,599336334476;3,96728515625E-11;0,35009765625;7;513;2,20093876123428E-09;-1,06915831565857E-10;100 nA
0,30029296875;264,099824333212;3,96728515625E-11;0,300048828125;7;514;2,20093876123428E-09;-1,06915831565857E-10;100 nA
0,250244140625;264,600312331948;3,662109375E-11;0,250091552734375;7;515;2,20093876123428E-09;-1,06915831565857E-10;100 nA
0,2001953125;265,100800330685;3,662109375E-11;0,2000732421875;7;516;2,20093876123428E-09;-1,06915831565857E-10;100 nA
0,150146484375;265,601288329421;3,35693359375E-11;0,150054931640625;7;517;2,20093876123428E-09;-1,06915831565857E-10;100 nA
0,10009765625;266,101776328158;2,74658203125E-11;0,100067138671875;7;518;2,20093876123428E-09;-1,06915831565857E-10;100 nA
0,050048828125;266,602264326894;1,8310546875E-11;0,05010986328125;7;519;2,20093876123428E-09;-1,06915831565857E-10;100 nA
0;267,10275232563;1,52587890625E-11;0,0001220703125;7;520;2,20093876123428E-09;-1,06915831565857E-10;100 nA
-0,050048828125;267,603240324367;2,13623046875E-11;-0,049835205078125;7;521;2,20093876123428E-09;-1,06915831565857E-10;100 nA
-0,10009765625;268,103728323103;2,44140625E-11;-0,0997314453125;7;522;2,20093876123428E-09;-1,06915831565857E-10;100 nA
-0,150146484375;268,60421632184;1,52587890625E-11;-0,149658203125;7;523;2,20093876123428E-09;-1,06915831565857E-10;100 nA
-0,2001953125;269,104704320576;6,103515625E-12;-0,199432373046875;7;524;2,20093876123428E-09;-1,06915831565857E-10;100 nA
-0,250244140625;269,605192319312;1,52587890625E-11;-0,249359130859375;7;525;2,20093876123428E-09;-1,06915831565857E-10;100 nA
-0,30029296875;270,105680318049;1,8310546875E-11;-0,29925537109375;7;526;2,20093876123428E-09;-1,06915831565857E-10;100 nA
-0,350341796875;270,606168316785;1,220703125E-11;-0,3492431640625;7;527;2,20093876123428E-09;-1,06915831565857E-10;100 nA
-0,400390625;271,106656315521;1,220703125E-11;-0,399078369140625;7;528;2,20093876123428E-09;-1,06915831565857E-10;100 nA
-0,450439453125;271,607144314258;9,1552734375E-12;-0,448974609375;7;529;2,20093876123428E-09;-1,06915831565857E-10;100 nA
-0,50048828125;272,107632312994;2,13623046875E-11;-0,49884033203125;7;530;2,20093876123428E-09;-1,06915831565857E-10;100 nA
-0,550537109375;272,608120311731;-1,8310546875E-11;-0,54876708984375;7;531;2,20093876123428E-09;-1,06915831565857E-10;100 nA
-0,6005859375;273,108608310467;-3,35693359375E-11;-0,5986328125;7;532;2,20093876123428E-09;-1,06915831565857E-10;100 nA
-0,650634765625;273,609096309203;-1,8310546875E-11;-0,648651123046875;7;533;2,20093876123428E-09;-1,06915831565857E-10;100 nA
-0,70068359375;274,10958430794;9,1552734375E-12;-0,6986083984375;7;534;2,20093876123428E-09;-1,06915831565857E-10;100 nA
-0,750732421875;274,610072306676;1,8310546875E-11;-0,74859619140625;7;535;2,20093876123428E-09;-1,06915831565857E-10;100 nA
-0,80078125;275,110560305413;-1,8310546875E-11;-0,79833984375;7;536;2,20093876123428E-09;-1,06915831565857E-10;100 nA
-0,850830078125;275,611048304149;-1,52587890625E-11;-0,8489990234375;7;537;2,20093876123428E-09;-1,06915831565857E-10;100 nA
-0,90087890625;276,111536302885;6,103515625E-12;-0,89874267578125;7;538;2,20093876123428E-09;-1,06915831565857E-10;100 nA
-0,950927734375;276,612024301622;-3,662109375E-11;-0,94879150390625;7;539;2,20093876123428E-09;-1,06915831565857E-10;100 nA
-1,0009765625;277,112512300358;-3,0517578125E-11;-0,99884033203125;7;540;2,20093876123428E-09;-1,06915831565857E-10;100 nA
-0,950927734375;277,613000299095;-9,1552734375E-12;-0,94940185546875;7;541;2,20093876123428E-09;-1,06915831565857E-10;100 nA
-0,90087890625;278,113488297831;-2,13623046875E-11;-0,89874267578125;7;542;2,20093876123428E-09;-1,06915831565857E-10;100 nA
-0,850830078125;278,613976296567;1,52587890625E-11;-0,84930419921875;7;543;2,20093876123428E-09;-1,06915831565857E-10;100 nA
-0,80078125;279,114464295304;-1,220703125E-11;-0,79864501953125;7;544;2,20093876123428E-09;-1,06915831565857E-10;100 nA
-0,750732421875;279,61495229404;6,103515625E-12;-0,7486572265625;7;545;2,20093876123428E-09;-1,06915831565857E-10;100 nA
-0,70068359375;280,115440292777;5,18798828125E-11;-0,6986083984375;7;546;2,20093876123428E-09;-1,06915831565857E-10;100 nA
-0,650634765625;280,615928291513;5,18798828125E-11;-0,648590087890625;7;547;2,20093876123428E-09;-1,06915831565857E-10;100 nA
-0,6005859375;281,116416290249;6,103515625E-11;-0,59869384765625;7;548;2,20093876123428E-09;-1,06915831565857E-10;100 nA
-0,550537109375;281,616904288986;6,103515625E-11;-0,548797607421875;7;549;2,20093876123428E-09;-1,06915831565857E-10;100 nA
-0,50048828125;282,117392287722;6,103515625E-11;-0,4989013671875;7;550;2,20093876123428E-09;-1,06915831565857E-10;100 nA
-0,450439453125;282,617880286458;6,40869140625E-11;-0,448944091796875;7;551;2,20093876123428E-09;-1,06915831565857E-10;100 nA
-0,400390625;283,118368285195;8,23974609375E-11;-0,39910888671875;7;552;2,20093876123428E-09;-1,06915831565857E-10;100 nA
-0,350341796875;283,618856283931;7,32421875E-11;-0,34918212890625;7;553;2,20093876123428E-09;-1,06915831565857E-10;100 nA
-0,30029296875;284,119344282668;7,9345703125E-11;-0,299224853515625;7;554;2,20093876123428E-09;-1,06915831565857E-10;100 nA
-0,250244140625;284,619832281404;7,9345703125E-11;-0,24932861328125;7;555;2,20093876123428E-09;-1,06915831565857E-10;100 nA
-0,2001953125;285,12032028014;8,544921875E-11;-0,199462890625;7;556;2,20093876123428E-09;-1,06915831565857E-10;100 nA
-0,150146484375;285,620808278877;1,129150390625E-10;-0,149566650390625;7;557;2,20093876123428E-09;-1,06915831565857E-10;100 nA
-0,10009765625;286,121296277613;1,0986328125E-10;-0,099700927734375;7;558;2,20093876123428E-09;-1,06915831565857E-10;100 nA
-0,050048828125;286,62178427635;8,23974609375E-11;-0,04974365234375;7;559;2,20093876123428E-09;-1,06915831565857E-10;100 nA
0;287,122272275086;1,129150390625E-10;0,000112915039062494;7;560;2,20093876123428E-09;-1,06915831565857E-10;100 nA
0,050048828125;287,622760273822;1,15966796875E-10;0,050048828125;8;561;2,24370509386063E-09;-1,52736902236938E-10;100 nA
0,10009765625;288,123248272559;1,40380859375E-10;0,100067138671875;8;562;2,24370509386063E-09;-1,52736902236938E-10;100 nA
0,150146484375;288,623736271295;1,220703125E-10;0,150115966796875;8;563;2,24370509386063E-09;-1,52736902236938E-10;100 nA
0,2001953125;289,124224270032;9,1552734375E-11;0,200103759765625;8;564;2,24370509386063E-09;-1,52736902236938E-10;100 nA
0,250244140625;289,624712268768;1,46484375E-10;0,250030517578125;8;565;2,24370509386063E-09;-1,52736902236938E-10;100 nA
0,30029296875;290,125200267504;9,46044921875E-11;0,300140380859375;8;566;2,24370509386063E-09;-1,52736902236938E-10;100 nA
0,350341796875;290,625688266241;1,0986328125E-10;0,35009765625;8;567;2,24370509386063E-09;-1,52736902236938E-10;100 nA
0,400390625;291,126176264977;9,1552734375E-11;0,40008544921875;8;568;2,24370509386063E-09;-1,52736902236938E-10;100 nA
0,450439453125;291,626664263713;4,2724609375E-11;0,450103759765625;8;569;2,24370509386063E-09;-1,52736902236938E-10;100 nA
0,50048828125;292,12715226245;4,57763671875E-11;0,50006103515625;8;570;2,24370509386063E-09;-1,52736902236938E-10;100 nA
0,550537109375;292,627640261186;3,96728515625E-11;0,55010986328125;8;571;2,24370509386063E-09;-1,52736902236938E-10;100 nA
0,6005859375;293,128128259923;3,662109375E-11;0,600067138671875;8;572;2,24370509386063E-09;-1,52736902236938E-10;100 nA
0,650634765625;293,628616258659;3,96728515625E-11;0,6500244140625;8;573;2,24370509386063E-09;-1,52736902236938E-10;100 nA
0,70068359375;294,129104257395;3,662109375E-11;0,699981689453125;8;574;2,24370509386063E-09;-1,52736902236938E-10;100 nA
0,750732421875;294,629592256132;3,35693359375E-11;0,749847412109375;8;575;2,24370509386063E-09;-1,52736902236938E-10;100 nA
0,80078125;295,130080254868;3,35693359375E-11;0,799560546875;8;576;2,24370509386063E-09;-1,52736902236938E-10;100 nA
0,850830078125;295,630568253605;1,8310546875E-11;0,84991455078125;8;577;2,24370509386063E-09;-1,52736902236938E-10;100 nA
0,90087890625;296,131056252341;2,74658203125E-11;0,89996337890625;8;578;2,24370509386063E-09;-1,52736902236938E-10;100 nA
0,950927734375;296,631544251077;2,44140625E-11;0,94940185546875;8;579;2,24370509386063E-09;-1,52736902236938E-10;100 nA
1,0009765625;297,132032249814;9,1552734375E-12;0,999755859375;8;580;2,24370509386063E-09;-1,52736902236938E-10;100 nA
0,950927734375;297,63252024855;1,220703125E-11;0,95001220703125;8;581;2,24370509386063E-09;-1,52736902236938E-10;100 nA
0,90087890625;298,133008247287;9,1552734375E-12;0,899658203125;8;582;2,24370509386063E-09;-1,52736902236938E-10;100 nA
0,850830078125;298,633496246023;2,44140625E-11;0,849609375;8;583;2,24370509386063E-09;-1,52736902236938E-10;100 nA
0,80078125;299,133984244759;-3,35693359375E-11;0,799560546875;8;584;2,24370509386063E-09;-1,52736902236938E-10;100 nA
0,750732421875;299,634472243496;-2,44140625E-11;0,7498779296875;8;585;2,24370509386063E-09;-1,52736902236938E-10;100 nA
0,70068359375;300,134960242232;1,220703125E-11;0,699951171875;8;586;2,24370509386063E-09;-1,52736902236938E-10;100 nA
0,650634765625;300,635448240968;1,52587890625E-11;0,6500244140625;8;587;2,24370509386063E-09;-1,52736902236938E-10;100 nA
0,6005859375;301,135936239705;-2,44140625E-11;0,60009765625;8;588;2,24370509386063E-09;-1,52736902236938E-10;100 nA
0,550537109375;301,636424238441;-3,0517578125E-12;0,55010986328125;8;589;2,24370509386063E-09;-1,52736902236938E-10;100 nA
0,50048828125;302,136912237178;6,103515625E-12;0,500091552734375;8;590;2,24370509386063E-09;-1,52736902236938E-10;100 nA
0,450439453125;302,637400235914;-3,662109375E-11;0,45001220703125;8;591;2,24370509386063E-09;-1,52736902236938E-10;100 nA
0,400390625;303,13788823465;-4,57763671875E-11;0,400054931640625;8;592;2,24370509386063E-09;-1,52736902236938E-10;100 nA
0,350341796875;303,638376233387;-3,0517578125E-11;0,350128173828125;8;593;2,24370509386063E-09;-1,52736902236938E-10;100 nA
0,30029296875;304,138864232123;-2,74658203125E-11;0,300079345703125;8;594;2,24370509386063E-09;-1,52736902236938E-10;100 nA
0,250244140625;304,63935223086;-3,0517578125E-12;0,25006103515625;8;595;2,24370509386063E-09;-1,52736902236938E-10;100 nA
0,2001953125;305,139840229596;-3,0517578125E-11;0,200042724609375;8;596;2,24370509386063E-09;-1,52736902236938E-10;100 nA
0,150146484375;305,640328228332;-1,220703125E-11;0,15008544921875;8;597;2,24370509386063E-09;-1,52736902236938E-10;100 nA
0,10009765625;306,140816227069;-3,0517578125E-12;0,10003662109375;8;598;2,24370509386063E-09;-1,52736902236938E-10;100 nA
0,050048828125;306,641304225805;9,1552734375E-12;0,050079345703125;8;599;2,24370509386063E-09;-1,52736902236938E-10;100 nA
0;307,141792224542;-1,52587890625E-11;0,000112915039062494;8;600;2,24370509386063E-09;-1,52736902236938E-10;100 nA
-0,050048828125;307,642280223278;-1,52587890625E-11;-0,049835205078125;8;601;2,24370509386063E-09;-1,52736902236938E-10;100 nA
-0,10009765625;308,142768222014;9,1552734375E-12;-0,099700927734375;8;602;2,24370509386063E-09;-1,52736902236938E-10;100 nA
-0,150146484375;308,643256220751;4,8828125E-11;-0,149566650390625;8;603;2,24370509386063E-09;-1,52736902236938E-10;100 nA
-0,2001953125;309,143744219487;5,18798828125E-11;-0,199432373046875;8;604;2,24370509386063E-09;-1,52736902236938E-10;100 nA
-0,250244140625;309,644232218223;5,18798828125E-11;-0,2493896484375;8;605;2,24370509386063E-09;-1,52736902236938E-10;100 nA
-0,30029296875;310,14472021696;5,4931640625E-11;-0,29925537109375;8;606;2,24370509386063E-09;-1,52736902236938E-10;100 nA
-0,350341796875;310,645208215696;5,79833984375E-11;-0,349151611328125;8;607;2,24370509386063E-09;-1,52736902236938E-10;100 nA
-0,400390625;311,145696214433;5,4931640625E-11;-0,399078369140625;8;608;2,24370509386063E-09;-1,52736902236938E-10;100 nA
-0,450439453125;311,646184213169;6,103515625E-11;-0,448944091796875;8;609;2,24370509386063E-09;-1,52736902236938E-10;100 nA
-0,50048828125;312,146672211905;6,7138671875E-11;-0,498870849609375;8;610;2,24370509386063E-09;-1,52736902236938E-10;100 nA
-0,550537109375;312,647160210642;5,79833984375E-11;-0,54876708984375;8;611;2,24370509386063E-09;-1,52736902236938E-10;100 nA
-0,6005859375;313,147648209378;6,103515625E-11;-0,598663330078125;8;612;2,24370509386063E-09;-1,52736902236938E-10;100 nA
-0,650634765625;313,648136208115;7,01904296875E-11;-0,64862060546875;8;613;2,24370509386063E-09;-1,52736902236938E-10;100 nA
-0,70068359375;314,148624206851;7,01904296875E-11;-0,698577880859375;8;614;2,24370509386063E-09;-1,52736902236938E-10;100 nA
-0,750732421875;314,649112205587;8,23974609375E-11;-0,748565673828125;8;615;2,24370509386063E-09;-1,52736902236938E-10;100 nA
-0,80078125;315,149600204324;8,23974609375E-11;-0,79864501953125;8;616;2,24370509386063E-09;-1,52736902236938E-10;100 nA
-0,850830078125;315,65008820306;7,9345703125E-11;-0,84869384765625;8;617;2,24370509386063E-09;-1,52736902236938E-10;100 nA
-0,90087890625;316,150576201797;7,62939453125E-11;-0,8984375;8;618;2,24370509386063E-09;-1,52736902236938E-10;100 nA
-0,950927734375;316,651064200533;7,32421875E-11;-0,94879150390625;8;619;2,24370509386063E-09;-1,52736902236938E-10;100 nA
-1,0009765625;317,151552199269;7,62939453125E-11;-0,99853515625;8;620;2,24370509386063E-09;-1,52736902236938E-10;100 nA
-0,950927734375;317,652040198006;3,0517578125E-11;-0,94879150390625;8;621;2,24370509386063E-09;-1,52736902236938E-10;100 nA
-0,90087890625;318,152528196742;9,1552734375E-11;-0,8984375;8;622;2,24370509386063E-09;-1,52736902236938E-10;100 nA
-0,850830078125;318,653016195478;9,46044921875E-11;-0,84869384765625;8;623;2,24370509386063E-09;-1,52736902236938E-10;100 nA
-0,80078125;319,153504194215;8,85009765625E-11;-0,79833984375;8;624;2,24370509386063E-09;-1,52736902236938E-10;100 nA
-0,750732421875;319,653992192951;8,544921875E-11;-0,748565673828125;8;625;2,24370509386063E-09;-1,52736902236938E-10;100 nA
-0,70068359375;320,154480191688;8,85009765625E-11;-0,69854736328125;8;626;2,24370509386063E-09;-1,52736902236938E-10;100 nA
-0,650634765625;320,654968190424;8,85009765625E-11;-0,64862060546875;8;627;2,24370509386063E-09;-1,52736902236938E-10;100 nA
-0,6005859375;321,15545618916;8,23974609375E-11;-0,598663330078125;8;628;2,24370509386063E-09;-1,52736902236938E-10;100 nA
-0,550537109375;321,655944187897;8,85009765625E-11;-0,54876708984375;8;629;2,24370509386063E-09;-1,52736902236938E-10;100 nA
-0,50048828125;322,156432186633;9,1552734375E-11;-0,4989013671875;8;630;2,24370509386063E-09;-1,52736902236938E-10;100 nA
-0,450439453125;322,65692018537;7,9345703125E-11;-0,448944091796875;8;631;2,24370509386063E-09;-1,52736902236938E-10;100 nA
-0,400390625;323,157408184106;8,23974609375E-11;-0,399139404296875;8;632;2,24370509386063E-09;-1,52736902236938E-10;100 nA
-0,350341796875;323,657896182842;7,62939453125E-11;-0,349151611328125;8;633;2,24370509386063E-09;-1,52736902236938E-10;100 nA
-0,30029296875;324,158384181579;8,544921875E-11;-0,299285888671875;8;634;2,24370509386063E-09;-1,52736902236938E-10;100 nA
-0,250244140625;324,658872180315;9,765625E-11;-0,24932861328125;8;635;2,24370509386063E-09;-1,52736902236938E-10;100 nA
-0,2001953125;325,159360179052;1,251220703125E-10;-0,199493408203125;8;636;2,24370509386063E-09;-1,52736902236938E-10;100 nA
-0,150146484375;325,659848177788;1,251220703125E-10;-0,149566650390625;8;637;2,24370509386063E-09;-1,52736902236938E-10;100 nA
-0,10009765625;326,160336176524;1,28173828125E-10;-0,09967041015625;8;638;2,24370509386063E-09;-1,52736902236938E-10;100 nA
-0,050048828125;326,660824175261;1,40380859375E-10;-0,0498046875;8;639;2,24370509386063E-09;-1,52736902236938E-10;100 nA
0;327,161312173997;1,373291015625E-10;0,000134277343750003;8;640;2,24370509386063E-09;-1,52736902236938E-10;100 nA
0,050048828125;327,661800172733;1,3427734375E-10;0,050079345703125;9;641;1,29062682390213E-09;-4,50573861598968E-10;100 nA
0,10009765625;328,16228817147;1,312255859375E-10;0,100128173828125;9;642;1,29062682390213E-09;-4,50573861598968E-10;100 nA
0,150146484375;328,662776170206;1,190185546875E-10;0,15008544921875;9;643;1,29062682390213E-09;-4,50573861598968E-10;100 nA
0,2001953125;329,163264168943;1,068115234375E-10;0,2000732421875;9;644;1,29062682390213E-09;-4,50573861598968E-10;100 nA
0,250244140625;329,663752167679;9,1552734375E-11;0,250091552734375;9;645;1,29062682390213E-09;-4,50573861598968E-10;100 nA
0,30029296875;330,164240166415;7,62939453125E-11;0,30010986328125;9;646;1,29062682390213E-09;-4,50573861598968E-10;100 nA
0,350341796875;330,664728165152;8,23974609375E-11;0,35015869140625;9;647;1,29062682390213E-09;-4,50573861598968E-10;100 nA
0,400390625;331,165216163888;9,765625E-11;0,400115966796875;9;648;1,29062682390213E-09;-4,50573861598968E-10;100 nA
0,450439453125;331,665704162625;9,1552734375E-11;0,450164794921875;9;649;1,29062682390213E-09;-4,50573861598968E-10;100 nA
0,50048828125;332,166192161361;8,85009765625E-11;0,5001220703125;9;650;1,29062682390213E-09;-4,50573861598968E-10;100 nA
0,550537109375;332,666680160097;8,85009765625E-11;0,55010986328125;9;651;1,29062682390213E-09;-4,50573861598968E-10;100 nA
0,6005859375;333,167168158834;8,544921875E-11;0,60009765625;9;652;1,29062682390213E-09;-4,50573861598968E-10;100 nA
0,650634765625;333,66765615757;8,544921875E-11;0,650054931640625;9;653;1,29062682390213E-09;-4,50573861598968E-10;100 nA
0,70068359375;334,168144156307;8,23974609375E-11;0,699951171875;9;654;1,29062682390213E-09;-4,50573861598968E-10;100 nA
0,750732421875;334,668632155043;8,23974609375E-11;0,7498779296875;9;655;1,29062682390213E-09;-4,50573861598968E-10;100 nA
0,80078125;335,169120153779;8,23974609375E-11;0,799560546875;9;656;1,29062682390213E-09;-4,50573861598968E-10;100 nA
0,850830078125;335,669608152516;8,85009765625E-11;0,849609375;9;657;1,29062682390213E-09;-4,50573861598968E-10;100 nA
0,90087890625;336,170096151252;7,9345703125E-11;0,899658203125;9;658;1,29062682390213E-09;-4,50573861598968E-10;100 nA
0,950927734375;336,670584149988;7,01904296875E-11;0,9490966796875;9;659;1,29062682390213E-09;-4,50573861598968E-10;100 nA
1,0009765625;337,171072148725;5,79833984375E-11;1,0003662109375;9;660;1,29062682390213E-09;-4,50573861598968E-10;100 nA
0,950927734375;337,671560147461;6,103515625E-11;0,95001220703125;9;661;1,29062682390213E-09;-4,50573861598968E-10;100 nA
0,90087890625;338,172048146198;5,79833984375E-11;0,89935302734375;9;662;1,29062682390213E-09;-4,50573861598968E-10;100 nA
0,850830078125;338,672536144934;6,103515625E-11;0,84991455078125;9;663;1,29062682390213E-09;-4,50573861598968E-10;100 nA
0,80078125;339,17302414367;5,79833984375E-11;0,79986572265625;9;664;1,29062682390213E-09;-4,50573861598968E-10;100 nA
0,750732421875;339,673512142407;5,18798828125E-11;0,74981689453125;9;665;1,29062682390213E-09;-4,50573861598968E-10;100 nA
0,70068359375;340,174000141143;4,8828125E-11;0,699951171875;9;666;1,29062682390213E-09;-4,50573861598968E-10;100 nA
0,650634765625;340,67448813988;4,57763671875E-11;0,6500244140625;9;667;1,29062682390213E-09;-4,50573861598968E-10;100 nA
0,6005859375;341,174976138616;4,57763671875E-11;0,600067138671875;9;668;1,29062682390213E-09;-4,50573861598968E-10;100 nA
0,550537109375;341,675464137352;4,8828125E-11;0,550048828125;9;669;1,29062682390213E-09;-4,50573861598968E-10;100 nA
0,50048828125;342,175952136089;3,96728515625E-11;0,500091552734375;9;670;1,29062682390213E-09;-4,50573861598968E-10;100 nA
0,450439453125;342,676440134825;1,52587890625E-11;0,4500732421875;9;671;1,29062682390213E-09;-4,50573861598968E-10;100 nA
0,400390625;343,176928133562;-3,0517578125E-12;0,40008544921875;9;672;1,29062682390213E-09;-4,50573861598968E-10;100 nA
0,350341796875;343,677416132298;-2,44140625E-11;0,350128173828125;9;673;1,29062682390213E-09;-4,50573861598968E-10;100 nA
0,30029296875;344,177904131034;-3,35693359375E-11;0,300079345703125;9;674;1,29062682390213E-09;-4,50573861598968E-10;100 nA
0,250244140625;344,678392129771;-6,103515625E-12;0,250091552734375;9;675;1,29062682390213E-09;-4,50573861598968E-10;100 nA
0,2001953125;345,178880128507;0;0,20001220703125;9;676;1,29062682390213E-09;-4,50573861598968E-10;100 nA
0,150146484375;345,679368127243;0;0,1500244140625;9;677;1,29062682390213E-09;-4,50573861598968E-10;100 nA
0,10009765625;346,17985612598;-6,103515625E-12;0,100067138671875;9;678;1,29062682390213E-09;-4,50573861598968E-10;100 nA
0,050048828125;346,680344124716;-2,74658203125E-11;0,050018310546875;9;679;1,29062682390213E-09;-4,50573861598968E-10;100 nA
0;347,180832123453;-3,662109375E-11;0,000119018554687503;9;680;1,29062682390213E-09;-4,50573861598968E-10;100 nA
-0,050048828125;347,681320122189;-2,13623046875E-11;-0,049835205078125;9;681;1,29062682390213E-09;-4,50573861598968E-10;100 nA
-0,10009765625;348,181808120925;-2,74658203125E-11;-0,099700927734375;9;682;1,29062682390213E-09;-4,50573861598968E-10;100 nA
-0,150146484375;348,682296119662;-3,0517578125E-11;-0,149658203125;9;683;1,29062682390213E-09;-4,50573861598968E-10;100 nA
-0,2001953125;349,182784118398;-3,35693359375E-11;-0,199493408203125;9;684;1,29062682390213E-09;-4,50573861598968E-10;100 nA
-0,250244140625;349,683272117135;-4,2724609375E-11;-0,2493896484375;9;685;1,29062682390213E-09;-4,50573861598968E-10;100 nA
-0,30029296875;350,183760115871;-5,4931640625E-11;-0,29925537109375;9;686;1,29062682390213E-09;-4,50573861598968E-10;100 nA
-0,350341796875;350,684248114607;-4,2724609375E-11;-0,349212646484375;9;687;1,29062682390213E-09;-4,50573861598968E-10;100 nA
-0,400390625;351,184736113344;-3,96728515625E-11;-0,399139404296875;9;688;1,29062682390213E-09;-4,50573861598968E-10;100 nA
-0,450439453125;351,68522411208;-2,74658203125E-11;-0,449005126953125;9;689;1,29062682390213E-09;-4,50573861598968E-10;100 nA
-0,50048828125;352,185712110817;-3,0517578125E-12;-0,49884033203125;9;690;1,29062682390213E-09;-4,50573861598968E-10;100 nA
-0,550537109375;352,686200109553;-9,1552734375E-12;-0,54876708984375;9;691;1,29062682390213E-09;-4,50573861598968E-10;100 nA
-0,6005859375;353,186688108289;-2,44140625E-11;-0,59869384765625;9;692;1,29062682390213E-09;-4,50573861598968E-10;100 nA
-0,650634765625;353,687176107026;-3,0517578125E-11;-0,64862060546875;9;693;1,29062682390213E-09;-4,50573861598968E-10;100 nA
-0,70068359375;354,187664105762;-3,662109375E-11;-0,698638916015625;9;694;1,29062682390213E-09;-4,50573861598968E-10;100 nA
-0,750732421875;354,688152104499;-2,74658203125E-11;-0,74859619140625;9;695;1,29062682390213E-09;-4,50573861598968E-10;100 nA
-0,80078125;355,188640103235;-2,44140625E-11;-0,79864501953125;9;696;1,29062682390213E-09;-4,50573861598968E-10;100 nA
-0,850830078125;355,689128101971;-6,103515625E-12;-0,84869384765625;9;697;1,29062682390213E-09;-4,50573861598968E-10;100 nA
-0,90087890625;356,189616100708;1,220703125E-11;-0,8990478515625;9;698;1,29062682390213E-09;-4,50573861598968E-10;100 nA
-0,950927734375;356,690104099444;1,220703125E-11;-0,9490966796875;9;699;1,29062682390213E-09;-4,50573861598968E-10;100 nA
-1,0009765625;357,19059209818;9,1552734375E-12;-0,99945068359375;9;700;1,29062682390213E-09;-4,50573861598968E-10;100 nA
-0,950927734375;357,691080096917;3,0517578125E-12;-0,94879150390625;9;701;1,29062682390213E-09;-4,50573861598968E-10;100 nA
-0,90087890625;358,191568095653;-1,739501953125E-10;-0,89874267578125;9;702;1,29062682390213E-09;-4,50573861598968E-10;100 nA
-0,850830078125;358,69205609439;-2,13623046875E-11;-0,84869384765625;9;703;1,29062682390213E-09;-4,50573861598968E-10;100 nA
-0,80078125;359,192544093126;-2,44140625E-11;-0,79864501953125;9;704;1,29062682390213E-09;-4,50573861598968E-10;100 nA
-0,750732421875;359,693032091862;-3,0517578125E-11;-0,74859619140625;9;705;1,29062682390213E-09;-4,50573861598968E-10;100 nA
-0,70068359375;360,193520090599;-2,74658203125E-11;-0,698577880859375;9;706;1,29062682390213E-09;-4,50573861598968E-10;100 nA
-0,650634765625;360,694008089335;-3,0517578125E-12;-0,64862060546875;9;707;1,29062682390213E-09;-4,50573861598968E-10;100 nA
-0,6005859375;361,194496088072;1,8310546875E-11;-0,598663330078125;9;708;1,29062682390213E-09;-4,50573861598968E-10;100 nA
-0,550537109375;361,694984086808;9,1552734375E-12;-0,54876708984375;9;709;1,29062682390213E-09;-4,50573861598968E-10;100 nA
-0,50048828125;362,195472085544;1,52587890625E-11;-0,4989013671875;9;710;1,29062682390213E-09;-4,50573861598968E-10;100 nA
-0,450439453125;362,695960084281;1,52587890625E-11;-0,448944091796875;9;711;1,29062682390213E-09;-4,50573861598968E-10;100 nA
-0,400390625;363,196448083017;1,220703125E-11;-0,399017333984375;9;712;1,29062682390213E-09;-4,50573861598968E-10;100 nA
-0,350341796875;363,696936081754;1,220703125E-11;-0,349212646484375;9;713;1,29062682390213E-09;-4,50573861598968E-10;100 nA
-0,30029296875;364,19742408049;6,103515625E-12;-0,29931640625;9;714;1,29062682390213E-09;-4,50573861598968E-10;100 nA
-0,250244140625;364,697912079226;1,220703125E-11;-0,2493896484375;9;715;1,29062682390213E-09;-4,50573861598968E-10;100 nA
-0,2001953125;365,198400077963;1,8310546875E-11;-0,199493408203125;9;716;1,29062682390213E-09;-4,50573861598968E-10;100 nA
-0,150146484375;365,698888076699;1,8310546875E-11;-0,149627685546875;9;717;1,29062682390213E-09;-4,50573861598968E-10;100 nA
-0,10009765625;366,199376075435;1,8310546875E-11;-0,099700927734375;9;718;1,29062682390213E-09;-4,50573861598968E-10;100 nA
-0,050048828125;366,699864074172;1,8310546875E-11;-0,0498046875;9;719;1,29062682390213E-09;-4,50573861598968E-10;100 nA
0;367,200352072908;1,220703125E-11;0,000128173828124994;9;720;1,29062682390213E-09;-4,50573861598968E-10;100 nA
0,050048828125;367,700840071645;1,220703125E-11;0,050079345703125;10;721;6,41494989395142E-10;-1,93975865840912E-10;100 nA
0,10009765625;368,201328070381;1,52587890625E-11;0,100067138671875;10;722;6,41494989395142E-10;-1,93975865840912E-10;100 nA
0,150146484375;368,701816069117;1,52587890625E-11;0,150115966796875;10;723;6,41494989395142E-10;-1,93975865840912E-10;100 nA
0,2001953125;369,202304067854;2,44140625E-11;0,200103759765625;10;724;6,41494989395142E-10;-1,93975865840912E-10;100 nA
0,250244140625;369,70279206659;2,13623046875E-11;0,250091552734375;10;725;6,41494989395142E-10;-1,93975865840912E-10;100 nA
0,30029296875;370,203280065327;2,44140625E-11;0,300079345703125;10;726;6,41494989395142E-10;-1,93975865840912E-10;100 nA
0,350341796875;370,703768064063;2,13623046875E-11;0,35009765625;10;727;6,41494989395142E-10;-1,93975865840912E-10;100 nA
0,400390625;371,204256062799;2,74658203125E-11;0,400115966796875;10;728;6,41494989395142E-10;-1,93975865840912E-10;100 nA
0,450439453125;371,704744061536;3,0517578125E-11;0,450103759765625;10;729;6,41494989395142E-10;-1,93975865840912E-10;100 nA
0,50048828125;372,205232060272;3,0517578125E-11;0,500152587890625;10;730;6,41494989395142E-10;-1,93975865840912E-10;100 nA
0,550537109375;372,705720059009;2,74658203125E-11;0,55010986328125;10;731;6,41494989395142E-10;-1,93975865840912E-10;100 nA
0,6005859375;373,206208057745;2,74658203125E-11;0,600128173828125;10;732;6,41494989395142E-10;-1,93975865840912E-10;100 nA
0,650634765625;373,706696056481;2,74658203125E-11;0,6500244140625;10;733;6,41494989395142E-10;-1,93975865840912E-10;100 nA
0,70068359375;374,207184055218;2,44140625E-11;0,69989013671875;10;734;6,41494989395142E-10;-1,93975865840912E-10;100 nA
0,750732421875;374,707672053954;2,74658203125E-11;0,749847412109375;10;735;6,41494989395142E-10;-1,93975865840912E-10;100 nA
0,80078125;375,20816005269;2,13623046875E-11;0,79986572265625;10;736;6,41494989395142E-10;-1,93975865840912E-10;100 nA
0,850830078125;375,708648051427;2,74658203125E-11;0,84991455078125;10;737;6,41494989395142E-10;-1,93975865840912E-10;100 nA
0,90087890625;376,209136050163;2,44140625E-11;0,899658203125;10;738;6,41494989395142E-10;-1,93975865840912E-10;100 nA
0,950927734375;376,7096240489;2,74658203125E-11;0,94970703125;10;739;6,41494989395142E-10;-1,93975865840912E-10;100 nA
1,0009765625;377,210112047636;2,74658203125E-11;0,9991455078125;10;740;6,41494989395142E-10;-1,93975865840912E-10;100 nA
0,950927734375;377,710600046372;2,74658203125E-11;0,94940185546875;10;741;6,41494989395142E-10;-1,93975865840912E-10;100 nA
0,90087890625;378,211088045109;3,0517578125E-11;0,899658203125;10;742;6,41494989395142E-10;-1,93975865840912E-10;100 nA
0,850830078125;378,711576043845;2,44140625E-11;0,8502197265625;10;743;6,41494989395142E-10;-1,93975865840912E-10;100 nA
0,80078125;379,212064042582;3,0517578125E-11;0,79986572265625;10;744;6,41494989395142E-10;-1,93975865840912E-10;100 nA
0,750732421875;379,712552041318;2,44140625E-11;0,749908447265625;10;745;6,41494989395142E-10;-1,93975865840912E-10;100 nA
0,70068359375;380,213040040054;2,74658203125E-11;0,69989013671875;10;746;6,41494989395142E-10;-1,93975865840912E-10;100 nA
0,650634765625;380,713528038791;2,74658203125E-11;0,650054931640625;10;747;6,41494989395142E-10;-1,93975865840912E-10;100 nA
0,6005859375;381,214016037527;3,35693359375E-11;0,600128173828125;10;748;6,41494989395142E-10;-1,93975865840912E-10;100 nA
0,550537109375;381,714504036264;1,8310546875E-11;0,55010986328125;10;749;6,41494989395142E-10;-1,93975865840912E-10;100 nA
0,50048828125;382,214992035;3,0517578125E-11;0,5001220703125;10;750;6,41494989395142E-10;-1,93975865840912E-10;100 nA
0,450439453125;382,715480033736;3,35693359375E-11;0,450103759765625;10;751;6,41494989395142E-10;-1,93975865840912E-10;100 nA
0,400390625;383,215968032473;2,44140625E-11;0,400054931640625;10;752;6,41494989395142E-10;-1,93975865840912E-10;100 nA
0,350341796875;383,716456031209;2,13623046875E-11;0,350128173828125;10;753;6,41494989395142E-10;-1,93975865840912E-10;100 nA
0,30029296875;384,216944029945;2,44140625E-11;0,300079345703125;10;754;6,41494989395142E-10;-1,93975865840912E-10;100 nA
0,250244140625;384,717432028682;2,44140625E-11;0,250091552734375;10;755;6,41494989395142E-10;-1,93975865840912E-10;100 nA
0,2001953125;385,217920027418;1,8310546875E-11;0,200103759765625;10;756;6,41494989395142E-10;-1,93975865840912E-10;100 nA
0,150146484375;385,718408026155;1,8310546875E-11;0,1500244140625;10;757;6,41494989395142E-10;-1,93975865840912E-10;100 nA
0,10009765625;386,218896024891;2,13623046875E-11;0,100067138671875;10;758;6,41494989395142E-10;-1,93975865840912E-10;100 nA
0,050048828125;386,719384023627;1,220703125E-11;0,050048828125;10;759;6,41494989395142E-10;-1,93975865840912E-10;100 nA
0;387,219872022364;1,52587890625E-11;0,000109863281249997;10;760;6,41494989395142E-10;-1,93975865840912E-10;100 nA
-0,050048828125;387,7203600211;1,52587890625E-11;-0,04986572265625;10;761;6,41494989395142E-10;-1,93975865840912E-10;100 nA
-0,10009765625;388,220848019837;1,52587890625E-11;-0,099761962890625;10;762;6,41494989395142E-10;-1,93975865840912E-10;100 nA
-0,150146484375;388,721336018573;1,52587890625E-11;-0,14959716796875;10;763;6,41494989395142E-10;-1,93975865840912E-10;100 nA
-0,2001953125;389,221824017309;2,44140625E-11;-0,199493408203125;10;764;6,41494989395142E-10;-1,93975865840912E-10;100 nA
-0,250244140625;389,722312016046;2,44140625E-11;-0,24932861328125;10;765;6,41494989395142E-10;-1,93975865840912E-10;100 nA
-0,30029296875;390,222800014782;2,13623046875E-11;-0,29925537109375;10;766;6,41494989395142E-10;-1,93975865840912E-10;100 nA
-0,350341796875;390,723288013519;1,52587890625E-11;-0,349212646484375;10;767;6,41494989395142E-10;-1,93975865840912E-10;100 nA
-0,400390625;391,223776012255;1,220703125E-11;-0,39910888671875;10;768;6,41494989395142E-10;-1,93975865840912E-10;100 nA
-0,450439453125;391,724264010991;1,220703125E-11;-0,448974609375;10;769;6,41494989395142E-10;-1,93975865840912E-10;100 nA
-0,50048828125;392,224752009728;1,52587890625E-11;-0,4989013671875;10;770;6,41494989395142E-10;-1,93975865840912E-10;100 nA
-0,550537109375;392,725240008464;1,220703125E-11;-0,548797607421875;10;771;6,41494989395142E-10;-1,93975865840912E-10;100 nA
-0,6005859375;393,2257280072;1,220703125E-11;-0,5986328125;10;772;6,41494989395142E-10;-1,93975865840912E-10;100 nA
-0,650634765625;393,726216005937;1,220703125E-11;-0,648651123046875;10;773;6,41494989395142E-10;-1,93975865840912E-10;100 nA
-0,70068359375;394,226704004673;9,1552734375E-12;-0,698638916015625;10;774;6,41494989395142E-10;-1,93975865840912E-10;100 nA
-0,750732421875;394,72719200341;1,8310546875E-11;-0,74859619140625;10;775;6,41494989395142E-10;-1,93975865840912E-10;100 nA
-0,80078125;395,227680002146;9,1552734375E-12;-0,79864501953125;10;776;6,41494989395142E-10;-1,93975865840912E-10;100 nA
-0,850830078125;395,728168000882;-2,74658203125E-11;-0,8489990234375;10;777;6,41494989395142E-10;-1,93975865840912E-10;100 nA
-0,90087890625;396,228655999619;-3,662109375E-11;-0,89874267578125;10;778;6,41494989395142E-10;-1,93975865840912E-10;100 nA
-0,950927734375;396,729143998355;-2,74658203125E-11;-0,94879150390625;10;779;6,41494989395142E-10;-1,93975865840912E-10;100 nA
-1,0009765625;397,229631997092;-1,8310546875E-11;-0,9991455078125;10;780;6,41494989395142E-10;-1,93975865840912E-10;100 nA
-0,950927734375;397,730119995828;1,220703125E-11;-0,948486328125;10;781;6,41494989395142E-10;-1,93975865840912E-10;100 nA
-0,90087890625;398,230607994564;2,13623046875E-11;-0,89874267578125;10;782;6,41494989395142E-10;-1,93975865840912E-10;100 nA
-0,850830078125;398,731095993301;6,103515625E-12;-0,849609375;10;783;6,41494989395142E-10;-1,93975865840912E-10;100 nA
-0,80078125;399,231583992037;-1,8310546875E-11;-0,7989501953125;10;784;6,41494989395142E-10;-1,93975865840912E-10;100 nA
-0,750732421875;399,732071990774;-2,44140625E-11;-0,7486572265625;10;785;6,41494989395142E-10;-1,93975865840912E-10;100 nA
-0,70068359375;400,23255998951;-1,52587890625E-11;-0,6986083984375;10;786;6,41494989395142E-10;-1,93975865840912E-10;100 nA
-0,650634765625;400,733047988246;0;-0,64862060546875;10;787;6,41494989395142E-10;-1,93975865840912E-10;100 nA
-0,6005859375;401,233535986983;-1,52587890625E-11;-0,598663330078125;10;788;6,41494989395142E-10;-1,93975865840912E-10;100 nA
-0,550537109375;401,734023985719;-4,57763671875E-11;-0,548797607421875;10;789;6,41494989395142E-10;-1,93975865840912E-10;100 nA
-0,50048828125;402,234511984455;-3,96728515625E-11;-0,49884033203125;10;790;6,41494989395142E-10;-1,93975865840912E-10;100 nA
-0,450439453125;402,734999983192;-3,0517578125E-11;-0,448974609375;10;791;6,41494989395142E-10;-1,93975865840912E-10;100 nA
-0,400390625;403,235487981928;-2,44140625E-11;-0,399139404296875;10;792;6,41494989395142E-10;-1,93975865840912E-10;100 nA
-0,350341796875;403,735975980665;3,0517578125E-12;-0,349212646484375;10;793;6,41494989395142E-10;-1,93975865840912E-10;100 nA
-0,30029296875;404,236463979401;-2,13623046875E-11;-0,299224853515625;10;794;6,41494989395142E-10;-1,93975865840912E-10;100 nA
-0,250244140625;404,736951978137;-1,52587890625E-11;-0,24932861328125;10;795;6,41494989395142E-10;-1,93975865840912E-10;100 nA
-0,2001953125;405,237439976874;0;-0,199493408203125;10;796;6,41494989395142E-10;-1,93975865840912E-10;100 nA
-0,150146484375;405,73792797561;6,103515625E-12;-0,149627685546875;10;797;6,41494989395142E-10;-1,93975865840912E-10;100 nA
-0,10009765625;406,238415974347;-1,220703125E-11;-0,0997314453125;10;798;6,41494989395142E-10;-1,93975865840912E-10;100 nA
-0,050048828125;406,738903973083;-1,52587890625E-11;-0,049835205078125;10;799;6,41494989395142E-10;-1,93975865840912E-10;100 nA
0;407,239391971819;1,52587890625E-11;0,000134277343750003;10;800;6,41494989395142E-10;-1,93975865840912E-10;100 nA
