Potential applied (V);Time (s);WE(1).Current (A);WE(1).Potential (V);Scan;Index;Q+;Q-;Current range
0,050048828125;7,39966798131763;1,6632080078125E-09;0,050018310546875;1;1;5,97460940480232E-08;-6,5993033349514E-08;100 nA
0,10009765625;7,90015598005402;2,0477294921875E-09;0,10003662109375;1;2;5,97460940480232E-08;-6,5993033349514E-08;100 nA
0,150146484375;8,40064397879041;2,4139404296875E-09;0,15008544921875;1;3;5,97460940480232E-08;-6,5993033349514E-08;100 nA
0,2001953125;8,9011319775268;2,8533935546875E-09;0,20013427734375;1;4;5,97460940480232E-08;-6,5993033349514E-08;100 nA
0,250244140625;9,40161997626319;3,61328125E-09;0,25006103515625;1;5;5,97460940480232E-08;-6,5993033349514E-08;100 nA
0,30029296875;9,90210797499958;3,89404296875E-09;0,300079345703125;1;6;5,97460940480232E-08;-6,5993033349514E-08;100 nA
0,350341796875;10,402595973736;4,4403076171875E-09;0,35015869140625;1;7;5,97460940480232E-08;-6,5993033349514E-08;100 nA
0,400390625;10,9030839724724;4,9835205078125E-09;0,40008544921875;1;8;5,97460940480232E-08;-6,5993033349514E-08;100 nA
0,450439453125;11,4035719712087;5,3985595703125E-09;0,4500732421875;1;9;5,97460940480232E-08;-6,5993033349514E-08;100 nA
0,50048828125;11,9040599699451;5,5694580078125E-09;0,500091552734375;1;10;5,97460940480232E-08;-6,5993033349514E-08;100 nA
0,550537109375;12,4045479686815;5,615234375E-09;0,550140380859375;1;11;5,97460940480232E-08;-6,5993033349514E-08;100 nA
0,6005859375;12,9050359674179;5,462646484375E-09;0,600128173828125;1;12;5,97460940480232E-08;-6,5993033349514E-08;100 nA
0,650634765625;13,4055239661543;5,31005859375E-09;0,650115966796875;1;13;5,97460940480232E-08;-6,5993033349514E-08;100 nA
0,70068359375;13,9060119648907;5,1025390625E-09;0,699981689453125;1;14;5,97460940480232E-08;-6,5993033349514E-08;100 nA
0,750732421875;14,4064999636271;4,8431396484375E-09;0,749847412109375;1;15;5,97460940480232E-08;-6,5993033349514E-08;100 nA
0,80078125;14,9069879623635;4,638671875E-09;0,80047607421875;1;16;5,97460940480232E-08;-6,5993033349514E-08;100 nA
0,850830078125;15,4074759610999;4,461669921875E-09;0,849609375;1;17;5,97460940480232E-08;-6,5993033349514E-08;100 nA
0,90087890625;15,9079639598363;4,2755126953125E-09;0,9002685546875;1;18;5,97460940480232E-08;-6,5993033349514E-08;100 nA
0,950927734375;16,4084519585726;4,1534423828125E-09;0,94970703125;1;19;5,97460940480232E-08;-6,5993033349514E-08;100 nA
1,0009765625;16,908939957309;4,0771484375E-09;0,99945068359375;1;20;5,97460940480232E-08;-6,5993033349514E-08;100 nA
0,950927734375;17,4094279560454;2,032470703125E-09;0,95001220703125;1;21;5,97460940480232E-08;-6,5993033349514E-08;100 nA
0,90087890625;17,9099159547818;9,674072265625E-10;0,89996337890625;1;22;5,97460940480232E-08;-6,5993033349514E-08;100 nA
0,850830078125;18,4104039535182;3,997802734375E-10;0,84991455078125;1;23;5,97460940480232E-08;-6,5993033349514E-08;100 nA
0,80078125;18,9108919522546;3,35693359375E-11;0,799560546875;1;24;5,97460940480232E-08;-6,5993033349514E-08;100 nA
0,750732421875;19,411379950991;-2,410888671875E-10;0,749908447265625;1;25;5,97460940480232E-08;-6,5993033349514E-08;100 nA
0,70068359375;19,9118679497274;-5,218505859375E-10;0,70001220703125;1;26;5,97460940480232E-08;-6,5993033349514E-08;100 nA
0,650634765625;20,4123559484638;-7,4462890625E-10;0,650115966796875;1;27;5,97460940480232E-08;-6,5993033349514E-08;100 nA
0,6005859375;20,9128439472001;-1,025390625E-09;0,60009765625;1;28;5,97460940480232E-08;-6,5993033349514E-08;100 nA
0,550537109375;21,4133319459365;-1,416015625E-09;0,550140380859375;1;29;5,97460940480232E-08;-6,5993033349514E-08;100 nA
0,50048828125;21,9138199446729;-1,8341064453125E-09;0,5001220703125;1;30;5,97460940480232E-08;-6,5993033349514E-08;100 nA
0,450439453125;22,4143079434093;-2,3284912109375E-09;0,45013427734375;1;31;5,97460940480232E-08;-6,5993033349514E-08;100 nA
0,400390625;22,9147959421457;-2,8106689453125E-09;0,400146484375;1;32;5,97460940480232E-08;-6,5993033349514E-08;100 nA
0,350341796875;23,4152839408821;-3,3935546875E-09;0,350128173828125;1;33;5,97460940480232E-08;-6,5993033349514E-08;100 nA
0,30029296875;23,9157719396185;-3,826904296875E-09;0,300140380859375;1;34;5,97460940480232E-08;-6,5993033349514E-08;100 nA
0,250244140625;24,4162599383549;-4,1656494140625E-09;0,25006103515625;1;35;5,97460940480232E-08;-6,5993033349514E-08;100 nA
0,2001953125;24,9167479370913;-4,522705078125E-09;0,2000732421875;1;36;5,97460940480232E-08;-6,5993033349514E-08;100 nA
0,150146484375;25,4172359358276;-4,7760009765625E-09;0,15008544921875;1;37;5,97460940480232E-08;-6,5993033349514E-08;100 nA
0,10009765625;25,917723934564;-5,0537109375E-09;0,100128173828125;1;38;5,97460940480232E-08;-6,5993033349514E-08;100 nA
0,050048828125;26,4182119333004;-5,5633544921875E-09;0,05010986328125;1;39;5,97460940480232E-08;-6,5993033349514E-08;100 nA
0;26,9186999320368;-7,1746826171875E-09;0,000146484375000006;1;40;5,97460940480232E-08;-6,5993033349514E-08;100 nA
-0,050048828125;27,4191879307732;-1,04278564453125E-08;-0,049774169921875;1;41;5,97460940480232E-08;-6,5993033349514E-08;100 nA
-0,10009765625;27,9196759295096;-1,01348876953125E-08;-0,09967041015625;1;42;5,97460940480232E-08;-6,5993033349514E-08;100 nA
-0,150146484375;28,420163928246;-6,9580078125E-09;-0,149566650390625;1;43;5,97460940480232E-08;-6,5993033349514E-08;100 nA
-0,2001953125;28,9206519269824;-4,168701171875E-09;-0,19952392578125;1;44;5,97460940480232E-08;-6,5993033349514E-08;100 nA
-0,250244140625;29,4211399257188;-2,545166015625E-09;-0,2493896484375;1;45;5,97460940480232E-08;-6,5993033349514E-08;100 nA
-0,30029296875;29,9216279244552;-2,4871826171875E-09;-0,29925537109375;1;46;5,97460940480232E-08;-6,5993033349514E-08;100 nA
-0,350341796875;30,4221159231915;-2,734375E-09;-0,349212646484375;1;47;5,97460940480232E-08;-6,5993033349514E-08;100 nA
-0,400390625;30,9226039219279;-3,021240234375E-09;-0,399139404296875;1;48;5,97460940480232E-08;-6,5993033349514E-08;100 nA
-0,450439453125;31,4230919206643;-3,2958984375E-09;-0,449005126953125;1;49;5,97460940480232E-08;-6,5993033349514E-08;100 nA
-0,50048828125;31,9235799194007;-3,265380859375E-09;-0,4989013671875;1;50;5,97460940480232E-08;-6,5993033349514E-08;100 nA
-0,550537109375;32,4240679181371;-3,131103515625E-09;-0,548828125;1;51;5,97460940480232E-08;-6,5993033349514E-08;100 nA
-0,6005859375;32,9245559168735;-2,978515625E-09;-0,598663330078125;1;52;5,97460940480232E-08;-6,5993033349514E-08;100 nA
-0,650634765625;33,4250439156099;-2,9022216796875E-09;-0,6485595703125;1;53;5,97460940480232E-08;-6,5993033349514E-08;100 nA
-0,70068359375;33,9255319143463;-2,8594970703125E-09;-0,698577880859375;1;54;5,97460940480232E-08;-6,5993033349514E-08;100 nA
-0,750732421875;34,4260199130827;-2,8167724609375E-09;-0,748565673828125;1;55;5,97460940480232E-08;-6,5993033349514E-08;100 nA
-0,80078125;34,926507911819;-2,7862548828125E-09;-0,7989501953125;1;56;5,97460940480232E-08;-6,5993033349514E-08;100 nA
-0,850830078125;35,4269959105554;-2,7618408203125E-09;-0,848388671875;1;57;5,97460940480232E-08;-6,5993033349514E-08;100 nA
-0,90087890625;35,9274839092918;-2,7618408203125E-09;-0,8984375;1;58;5,97460940480232E-08;-6,5993033349514E-08;100 nA
-0,950927734375;36,4279719080282;-2,7984619140625E-09;-0,9490966796875;1;59;5,97460940480232E-08;-6,5993033349514E-08;100 nA
-1,0009765625;36,9284599067646;-2,8472900390625E-09;-0,99853515625;1;60;5,97460940480232E-08;-6,5993033349514E-08;100 nA
-0,950927734375;37,428947905501;-1,7578125E-09;-0,94940185546875;1;61;5,97460940480232E-08;-6,5993033349514E-08;100 nA
-0,90087890625;37,9294359042374;-1,1810302734375E-09;-0,89874267578125;1;62;5,97460940480232E-08;-6,5993033349514E-08;100 nA
-0,850830078125;38,4299239029738;-8,544921875E-10;-0,84869384765625;1;63;5,97460940480232E-08;-6,5993033349514E-08;100 nA
-0,80078125;38,9304119017102;-5,645751953125E-10;-0,7989501953125;1;64;5,97460940480232E-08;-6,5993033349514E-08;100 nA
-0,750732421875;39,4308999004465;-3,265380859375E-10;-0,748687744140625;1;65;5,97460940480232E-08;-6,5993033349514E-08;100 nA
-0,70068359375;39,9313878991829;-9,1552734375E-11;-0,69866943359375;1;66;5,97460940480232E-08;-6,5993033349514E-08;100 nA
-0,650634765625;40,4318758979193;7,62939453125E-11;-0,648651123046875;1;67;5,97460940480232E-08;-6,5993033349514E-08;100 nA
-0,6005859375;40,9323638966557;3,84521484375E-10;-0,5987548828125;1;68;5,97460940480232E-08;-6,5993033349514E-08;100 nA
-0,550537109375;41,4328518953921;6,317138671875E-10;-0,548797607421875;1;69;5,97460940480232E-08;-6,5993033349514E-08;100 nA
-0,50048828125;41,9333398941285;9,857177734375E-10;-0,4989013671875;1;70;5,97460940480232E-08;-6,5993033349514E-08;100 nA
-0,450439453125;42,4338278928649;1,544189453125E-09;-0,449005126953125;1;71;5,97460940480232E-08;-6,5993033349514E-08;100 nA
-0,400390625;42,9343158916013;2,2705078125E-09;-0,399169921875;1;72;5,97460940480232E-08;-6,5993033349514E-08;100 nA
-0,350341796875;43,4348038903377;2,5909423828125E-09;-0,349334716796875;1;73;5,97460940480232E-08;-6,5993033349514E-08;100 nA
-0,30029296875;43,9352918890741;2,606201171875E-09;-0,29931640625;1;74;5,97460940480232E-08;-6,5993033349514E-08;100 nA
-0,250244140625;44,4357798878104;2,6611328125E-09;-0,2493896484375;1;75;5,97460940480232E-08;-6,5993033349514E-08;100 nA
-0,2001953125;44,9362678865468;2,6397705078125E-09;-0,199462890625;1;76;5,97460940480232E-08;-6,5993033349514E-08;100 nA
-0,150146484375;45,4367558852832;2,6275634765625E-09;-0,14959716796875;1;77;5,97460940480232E-08;-6,5993033349514E-08;100 nA
-0,10009765625;45,9372438840196;2,8594970703125E-09;-0,099700927734375;1;78;5,97460940480232E-08;-6,5993033349514E-08;100 nA
-0,050048828125;46,437731882756;3,7353515625E-09;-0,049774169921875;1;79;5,97460940480232E-08;-6,5993033349514E-08;100 nA
0;46,9382198814924;5,511474609375E-09;0,000100708007812506;1;80;5,97460940480232E-08;-6,5993033349514E-08;100 nA
0,050048828125;47,4387078802288;5,2642822265625E-09;0,050079345703125;2;81;7,04224035143852E-08;-6,47100433707237E-08;100 nA
0,10009765625;47,9391958789652;4,937744140625E-09;0,100067138671875;2;82;7,04224035143852E-08;-6,47100433707237E-08;100 nA
0,150146484375;48,4396838777016;5,133056640625E-09;0,150115966796875;2;83;7,04224035143852E-08;-6,47100433707237E-08;100 nA
0,2001953125;48,9401718764379;5,3314208984375E-09;0,200103759765625;2;84;7,04224035143852E-08;-6,47100433707237E-08;100 nA
0,250244140625;49,4406598751743;5,56640625E-09;0,250091552734375;2;85;7,04224035143852E-08;-6,47100433707237E-08;100 nA
0,30029296875;49,9411478739107;5,841064453125E-09;0,30010986328125;2;86;7,04224035143852E-08;-6,47100433707237E-08;100 nA
0,350341796875;50,4416358726471;6,097412109375E-09;0,350128173828125;2;87;7,04224035143852E-08;-6,47100433707237E-08;100 nA
0,400390625;50,9421238713835;6,28662109375E-09;0,400115966796875;2;88;7,04224035143852E-08;-6,47100433707237E-08;100 nA
0,450439453125;51,4426118701199;6,3934326171875E-09;0,450103759765625;2;89;7,04224035143852E-08;-6,47100433707237E-08;100 nA
0,50048828125;51,9430998688563;6,3812255859375E-09;0,500152587890625;2;90;7,04224035143852E-08;-6,47100433707237E-08;100 nA
0,550537109375;52,4435878675927;6,1798095703125E-09;0,55010986328125;2;91;7,04224035143852E-08;-6,47100433707237E-08;100 nA
0,6005859375;52,9440758663291;5,8837890625E-09;0,600067138671875;2;92;7,04224035143852E-08;-6,47100433707237E-08;100 nA
0,650634765625;53,4445638650654;5,57861328125E-09;0,6500244140625;2;93;7,04224035143852E-08;-6,47100433707237E-08;100 nA
0,70068359375;53,9450518638018;5,279541015625E-09;0,699951171875;2;94;7,04224035143852E-08;-6,47100433707237E-08;100 nA
0,750732421875;54,4455398625382;4,888916015625E-09;0,7498779296875;2;95;7,04224035143852E-08;-6,47100433707237E-08;100 nA
0,80078125;54,9460278612746;4,681396484375E-09;0,8001708984375;2;96;7,04224035143852E-08;-6,47100433707237E-08;100 nA
0,850830078125;55,446515860011;4,45556640625E-09;0,849609375;2;97;7,04224035143852E-08;-6,47100433707237E-08;100 nA
0,90087890625;55,9470038587474;4,2877197265625E-09;0,89996337890625;2;98;7,04224035143852E-08;-6,47100433707237E-08;100 nA
0,950927734375;56,4474918574838;4,132080078125E-09;0,95001220703125;2;99;7,04224035143852E-08;-6,47100433707237E-08;100 nA
1,0009765625;56,9479798562202;4,1290283203125E-09;0,999755859375;2;100;7,04224035143852E-08;-6,47100433707237E-08;100 nA
0,950927734375;57,4484678549566;2,044677734375E-09;0,94970703125;2;101;7,04224035143852E-08;-6,47100433707237E-08;100 nA
0,90087890625;57,948955853693;1,03759765625E-09;0,899658203125;2;102;7,04224035143852E-08;-6,47100433707237E-08;100 nA
0,850830078125;58,4494438524293;4,547119140625E-10;0,849609375;2;103;7,04224035143852E-08;-6,47100433707237E-08;100 nA
0,80078125;58,9499318511657;7,32421875E-11;0,79925537109375;2;104;7,04224035143852E-08;-6,47100433707237E-08;100 nA
0,750732421875;59,4504198499021;-1,861572265625E-10;0,749908447265625;2;105;7,04224035143852E-08;-6,47100433707237E-08;100 nA
0,70068359375;59,9509078486385;-3,692626953125E-10;0,700042724609375;2;106;7,04224035143852E-08;-6,47100433707237E-08;100 nA
0,650634765625;60,4513958473749;-6,622314453125E-10;0,650146484375;2;107;7,04224035143852E-08;-6,47100433707237E-08;100 nA
0,6005859375;60,9518838461113;-9,3994140625E-10;0,60015869140625;2;108;7,04224035143852E-08;-6,47100433707237E-08;100 nA
0,550537109375;61,4523718448477;-1,251220703125E-09;0,550140380859375;2;109;7,04224035143852E-08;-6,47100433707237E-08;100 nA
0,50048828125;61,9528598435841;-1,6845703125E-09;0,500152587890625;2;110;7,04224035143852E-08;-6,47100433707237E-08;100 nA
0,450439453125;62,4533478423205;-2,1575927734375E-09;0,450164794921875;2;111;7,04224035143852E-08;-6,47100433707237E-08;100 nA
0,400390625;62,9538358410568;-2,6763916015625E-09;0,400177001953125;2;112;7,04224035143852E-08;-6,47100433707237E-08;100 nA
0,350341796875;63,4543238397932;-3,2379150390625E-09;0,350250244140625;2;113;7,04224035143852E-08;-6,47100433707237E-08;100 nA
0,30029296875;63,9548118385296;-3,7445068359375E-09;0,3001708984375;2;114;7,04224035143852E-08;-6,47100433707237E-08;100 nA
0,250244140625;64,455299837266;-4,0863037109375E-09;0,2501220703125;2;115;7,04224035143852E-08;-6,47100433707237E-08;100 nA
0,2001953125;64,9557878360024;-4,4219970703125E-09;0,2000732421875;2;116;7,04224035143852E-08;-6,47100433707237E-08;100 nA
0,150146484375;65,4562758347388;-4,74853515625E-09;0,15008544921875;2;117;7,04224035143852E-08;-6,47100433707237E-08;100 nA
0,10009765625;65,9567638334752;-5,0933837890625E-09;0,10009765625;2;118;7,04224035143852E-08;-6,47100433707237E-08;100 nA
0,050048828125;66,4572518322116;-5,6121826171875E-09;0,050048828125;2;119;7,04224035143852E-08;-6,47100433707237E-08;100 nA
0;66,957739830948;-7,3577880859375E-09;0,000152587890625;2;120;7,04224035143852E-08;-6,47100433707237E-08;100 nA
-0,050048828125;67,4582278296843;-1,09710693359375E-08;-0,049774169921875;2;121;7,04224035143852E-08;-6,47100433707237E-08;100 nA
-0,10009765625;67,9587158284207;-1,08154296875E-08;-0,09967041015625;2;122;7,04224035143852E-08;-6,47100433707237E-08;100 nA
-0,150146484375;68,4592038271571;-7,049560546875E-09;-0,149566650390625;2;123;7,04224035143852E-08;-6,47100433707237E-08;100 nA
-0,2001953125;68,9596918258935;-4,0435791015625E-09;-0,199462890625;2;124;7,04224035143852E-08;-6,47100433707237E-08;100 nA
-0,250244140625;69,4601798246299;-2,679443359375E-09;-0,249359130859375;2;125;7,04224035143852E-08;-6,47100433707237E-08;100 nA
-0,30029296875;69,9606678233663;-2,63671875E-09;-0,299285888671875;2;126;7,04224035143852E-08;-6,47100433707237E-08;100 nA
-0,350341796875;70,4611558221027;-2,825927734375E-09;-0,3492431640625;2;127;7,04224035143852E-08;-6,47100433707237E-08;100 nA
-0,400390625;70,9616438208391;-3,1463623046875E-09;-0,399078369140625;2;128;7,04224035143852E-08;-6,47100433707237E-08;100 nA
-0,450439453125;71,4621318195755;-3,2867431640625E-09;-0,448974609375;2;129;7,04224035143852E-08;-6,47100433707237E-08;100 nA
-0,50048828125;71,9626198183119;-3,22265625E-09;-0,498931884765625;2;130;7,04224035143852E-08;-6,47100433707237E-08;100 nA
-0,550537109375;72,4631078170482;-3,0303955078125E-09;-0,548828125;2;131;7,04224035143852E-08;-6,47100433707237E-08;100 nA
-0,6005859375;72,9635958157846;-2,874755859375E-09;-0,598663330078125;2;132;7,04224035143852E-08;-6,47100433707237E-08;100 nA
-0,650634765625;73,464083814521;-2,7679443359375E-09;-0,648590087890625;2;133;7,04224035143852E-08;-6,47100433707237E-08;100 nA
-0,70068359375;73,9645718132574;-2,679443359375E-09;-0,698638916015625;2;134;7,04224035143852E-08;-6,47100433707237E-08;100 nA
-0,750732421875;74,4650598119938;-2,6275634765625E-09;-0,748626708984375;2;135;7,04224035143852E-08;-6,47100433707237E-08;100 nA
-0,80078125;74,9655478107302;-2,532958984375E-09;-0,7989501953125;2;136;7,04224035143852E-08;-6,47100433707237E-08;100 nA
-0,850830078125;75,4660358094666;-2,5054931640625E-09;-0,8489990234375;2;137;7,04224035143852E-08;-6,47100433707237E-08;100 nA
-0,90087890625;75,966523808203;-2,5360107421875E-09;-0,8990478515625;2;138;7,04224035143852E-08;-6,47100433707237E-08;100 nA
-0,950927734375;76,4670118069394;-2,496337890625E-09;-0,948486328125;2;139;7,04224035143852E-08;-6,47100433707237E-08;100 nA
-1,0009765625;76,9674998056757;-2,5604248046875E-09;-0,99945068359375;2;140;7,04224035143852E-08;-6,47100433707237E-08;100 nA
-0,950927734375;77,4679878044121;-1,5350341796875E-09;-0,94879150390625;2;141;7,04224035143852E-08;-6,47100433707237E-08;100 nA
-0,90087890625;77,9684758031485;-1,0009765625E-09;-0,8990478515625;2;142;7,04224035143852E-08;-6,47100433707237E-08;100 nA
-0,850830078125;78,4689638018849;-6,34765625E-10;-0,848388671875;2;143;7,04224035143852E-08;-6,47100433707237E-08;100 nA
-0,80078125;78,9694518006213;-4,33349609375E-10;-0,79864501953125;2;144;7,04224035143852E-08;-6,47100433707237E-08;100 nA
-0,750732421875;79,4699397993577;-1,64794921875E-10;-0,748687744140625;2;145;7,04224035143852E-08;-6,47100433707237E-08;100 nA
-0,70068359375;79,9704277980941;-6,103515625E-12;-0,6986083984375;2;146;7,04224035143852E-08;-6,47100433707237E-08;100 nA
-0,650634765625;80,4709157968305;1,983642578125E-10;-0,648590087890625;2;147;7,04224035143852E-08;-6,47100433707237E-08;100 nA
-0,6005859375;80,9714037955669;3,72314453125E-10;-0,598724365234375;2;148;7,04224035143852E-08;-6,47100433707237E-08;100 nA
-0,550537109375;81,4718917943032;6,256103515625E-10;-0,54876708984375;2;149;7,04224035143852E-08;-6,47100433707237E-08;100 nA
-0,50048828125;81,9723797930396;9,3994140625E-10;-0,498870849609375;2;150;7,04224035143852E-08;-6,47100433707237E-08;100 nA
-0,450439453125;82,472867791776;1,4404296875E-09;-0,44903564453125;2;151;7,04224035143852E-08;-6,47100433707237E-08;100 nA
-0,400390625;82,9733557905124;2,2064208984375E-09;-0,399169921875;2;152;7,04224035143852E-08;-6,47100433707237E-08;100 nA
-0,350341796875;83,4738437892488;2,569580078125E-09;-0,3492431640625;2;153;7,04224035143852E-08;-6,47100433707237E-08;100 nA
-0,30029296875;83,9743317879852;2,5054931640625E-09;-0,29937744140625;2;154;7,04224035143852E-08;-6,47100433707237E-08;100 nA
-0,250244140625;84,4748197867216;2,55126953125E-09;-0,249420166015625;2;155;7,04224035143852E-08;-6,47100433707237E-08;100 nA
-0,2001953125;84,975307785458;2,5482177734375E-09;-0,199493408203125;2;156;7,04224035143852E-08;-6,47100433707237E-08;100 nA
-0,150146484375;85,4757957841944;2,57568359375E-09;-0,149627685546875;2;157;7,04224035143852E-08;-6,47100433707237E-08;100 nA
-0,10009765625;85,9762837829308;2,7679443359375E-09;-0,0997314453125;2;158;7,04224035143852E-08;-6,47100433707237E-08;100 nA
-0,050048828125;86,4767717816671;3,6346435546875E-09;-0,0498046875;2;159;7,04224035143852E-08;-6,47100433707237E-08;100 nA
0;86,9772597804035;5,43212890625E-09;0,000125122070312497;2;160;7,04224035143852E-08;-6,47100433707237E-08;100 nA
0,050048828125;87,4777477791399;5,206298828125E-09;0,050048828125;3;161;7,10669532418251E-08;-6,47971034049988E-08;100 nA
0,10009765625;87,9782357778763;4,9041748046875E-09;0,100067138671875;3;162;7,10669532418251E-08;-6,47971034049988E-08;100 nA
0,150146484375;88,4787237766127;5,0872802734375E-09;0,150054931640625;3;163;7,10669532418251E-08;-6,47971034049988E-08;100 nA
0,2001953125;88,9792117753491;5,352783203125E-09;0,2000732421875;3;164;7,10669532418251E-08;-6,47971034049988E-08;100 nA
0,250244140625;89,4796997740855;5,615234375E-09;0,250091552734375;3;165;7,10669532418251E-08;-6,47971034049988E-08;100 nA
0,30029296875;89,9801877728219;5,89599609375E-09;0,30010986328125;3;166;7,10669532418251E-08;-6,47971034049988E-08;100 nA
0,350341796875;90,4806757715583;6,1370849609375E-09;0,350189208984375;3;167;7,10669532418251E-08;-6,47971034049988E-08;100 nA
0,400390625;90,9811637702946;6,34765625E-09;0,400177001953125;3;168;7,10669532418251E-08;-6,47971034049988E-08;100 nA
0,450439453125;91,481651769031;6,463623046875E-09;0,45013427734375;3;169;7,10669532418251E-08;-6,47971034049988E-08;100 nA
0,50048828125;91,9821397677674;6,4422607421875E-09;0,500091552734375;3;170;7,10669532418251E-08;-6,47971034049988E-08;100 nA
0,550537109375;92,4826277665038;6,2774658203125E-09;0,55010986328125;3;171;7,10669532418251E-08;-6,47971034049988E-08;100 nA
0,6005859375;92,9831157652402;6,0211181640625E-09;0,600128173828125;3;172;7,10669532418251E-08;-6,47971034049988E-08;100 nA
0,650634765625;93,4836037639766;5,6793212890625E-09;0,650115966796875;3;173;7,10669532418251E-08;-6,47971034049988E-08;100 nA
0,70068359375;93,984091762713;5,3131103515625E-09;0,699981689453125;3;174;7,10669532418251E-08;-6,47971034049988E-08;100 nA
0,750732421875;94,4845797614494;5,010986328125E-09;0,749908447265625;3;175;7,10669532418251E-08;-6,47971034049988E-08;100 nA
0,80078125;94,9850677601858;4,730224609375E-09;0,799560546875;3;176;7,10669532418251E-08;-6,47971034049988E-08;100 nA
0,850830078125;95,4855557589221;4,50439453125E-09;0,8502197265625;3;177;7,10669532418251E-08;-6,47971034049988E-08;100 nA
0,90087890625;95,9860437576585;4,3060302734375E-09;0,89996337890625;3;178;7,10669532418251E-08;-6,47971034049988E-08;100 nA
0,950927734375;96,4865317563949;4,144287109375E-09;0,94970703125;3;179;7,10669532418251E-08;-6,47971034049988E-08;100 nA
1,0009765625;96,9870197551313;4,06494140625E-09;0,999755859375;3;180;7,10669532418251E-08;-6,47971034049988E-08;100 nA
0,950927734375;97,4875077538677;1,9805908203125E-09;0,94970703125;3;181;7,10669532418251E-08;-6,47971034049988E-08;100 nA
0,90087890625;97,9879957526041;9,70458984375E-10;0,89996337890625;3;182;7,10669532418251E-08;-6,47971034049988E-08;100 nA
0,850830078125;98,4884837513405;3,47900390625E-10;0,8502197265625;3;183;7,10669532418251E-08;-6,47971034049988E-08;100 nA
0,80078125;98,9889717500769;-3,0517578125E-12;0,80047607421875;3;184;7,10669532418251E-08;-6,47971034049988E-08;100 nA
0,750732421875;99,4894597488133;-2,685546875E-10;0,749847412109375;3;185;7,10669532418251E-08;-6,47971034049988E-08;100 nA
0,70068359375;99,9899477475497;-5,0048828125E-10;0,699920654296875;3;186;7,10669532418251E-08;-6,47971034049988E-08;100 nA
0,650634765625;100,490435746286;-7,659912109375E-10;0,650054931640625;3;187;7,10669532418251E-08;-6,47971034049988E-08;100 nA
0,6005859375;100,990923745022;-9,429931640625E-10;0,600189208984375;3;188;7,10669532418251E-08;-6,47971034049988E-08;100 nA
0,550537109375;101,491411743759;-1,300048828125E-09;0,5501708984375;3;189;7,10669532418251E-08;-6,47971034049988E-08;100 nA
0,50048828125;101,991899742495;-1,7181396484375E-09;0,500152587890625;3;190;7,10669532418251E-08;-6,47971034049988E-08;100 nA
0,450439453125;102,492387741232;-2,197265625E-09;0,45013427734375;3;191;7,10669532418251E-08;-6,47971034049988E-08;100 nA
0,400390625;102,992875739968;-2,7099609375E-09;0,400146484375;3;192;7,10669532418251E-08;-6,47971034049988E-08;100 nA
0,350341796875;103,493363738704;-3,2958984375E-09;0,35009765625;3;193;7,10669532418251E-08;-6,47971034049988E-08;100 nA
0,30029296875;103,993851737441;-3,77197265625E-09;0,300140380859375;3;194;7,10669532418251E-08;-6,47971034049988E-08;100 nA
0,250244140625;104,494339736177;-4,0802001953125E-09;0,250152587890625;3;195;7,10669532418251E-08;-6,47971034049988E-08;100 nA
0,2001953125;104,994827734914;-4,3853759765625E-09;0,200164794921875;3;196;7,10669532418251E-08;-6,47971034049988E-08;100 nA
0,150146484375;105,49531573365;-4,693603515625E-09;0,150115966796875;3;197;7,10669532418251E-08;-6,47971034049988E-08;100 nA
0,10009765625;105,995803732386;-5,0537109375E-09;0,10015869140625;3;198;7,10669532418251E-08;-6,47971034049988E-08;100 nA
0,050048828125;106,496291731123;-5,57861328125E-09;0,05010986328125;3;199;7,10669532418251E-08;-6,47971034049988E-08;100 nA
0;106,996779729859;-7,2418212890625E-09;0,000158691406249994;3;200;7,10669532418251E-08;-6,47971034049988E-08;100 nA
-0,050048828125;107,497267728595;-1,09222412109375E-08;-0,0497039794921875;3;201;7,10669532418251E-08;-6,47971034049988E-08;100 nA
-0,10009765625;107,997755727332;-1,06964111328125E-08;-0,099700927734375;3;202;7,10669532418251E-08;-6,47971034049988E-08;100 nA
-0,150146484375;108,498243726068;-6,84814453125E-09;-0,14959716796875;3;203;7,10669532418251E-08;-6,47971034049988E-08;100 nA
-0,2001953125;108,998731724805;-3,82080078125E-09;-0,199432373046875;3;204;7,10669532418251E-08;-6,47971034049988E-08;100 nA
-0,250244140625;109,499219723541;-2,508544921875E-09;-0,249359130859375;3;205;7,10669532418251E-08;-6,47971034049988E-08;100 nA
-0,30029296875;109,999707722277;-2,5482177734375E-09;-0,299285888671875;3;206;7,10669532418251E-08;-6,47971034049988E-08;100 nA
-0,350341796875;110,500195721014;-2,728271484375E-09;-0,349151611328125;3;207;7,10669532418251E-08;-6,47971034049988E-08;100 nA
-0,400390625;111,00068371975;-3,0364990234375E-09;-0,399078369140625;3;208;7,10669532418251E-08;-6,47971034049988E-08;100 nA
-0,450439453125;111,501171718487;-3,21044921875E-09;-0,448974609375;3;209;7,10669532418251E-08;-6,47971034049988E-08;100 nA
-0,50048828125;112,001659717223;-3,1646728515625E-09;-0,498870849609375;3;210;7,10669532418251E-08;-6,47971034049988E-08;100 nA
-0,550537109375;112,502147715959;-3,01513671875E-09;-0,548858642578125;3;211;7,10669532418251E-08;-6,47971034049988E-08;100 nA
-0,6005859375;113,002635714696;-2,8564453125E-09;-0,59869384765625;3;212;7,10669532418251E-08;-6,47971034049988E-08;100 nA
-0,650634765625;113,503123713432;-2,77099609375E-09;-0,648590087890625;3;213;7,10669532418251E-08;-6,47971034049988E-08;100 nA
-0,70068359375;114,003611712169;-2,7130126953125E-09;-0,69866943359375;3;214;7,10669532418251E-08;-6,47971034049988E-08;100 nA
-0,750732421875;114,504099710905;-2,691650390625E-09;-0,748687744140625;3;215;7,10669532418251E-08;-6,47971034049988E-08;100 nA
-0,80078125;115,004587709641;-2,6275634765625E-09;-0,79864501953125;3;216;7,10669532418251E-08;-6,47971034049988E-08;100 nA
-0,850830078125;115,505075708378;-2,6031494140625E-09;-0,84869384765625;3;217;7,10669532418251E-08;-6,47971034049988E-08;100 nA
-0,90087890625;116,005563707114;-2,5665283203125E-09;-0,8990478515625;3;218;7,10669532418251E-08;-6,47971034049988E-08;100 nA
-0,950927734375;116,506051705851;-2,630615234375E-09;-0,94940185546875;3;219;7,10669532418251E-08;-6,47971034049988E-08;100 nA
-1,0009765625;117,006539704587;-2,630615234375E-09;-0,99884033203125;3;220;7,10669532418251E-08;-6,47971034049988E-08;100 nA
-0,950927734375;117,507027703323;-1,6265869140625E-09;-0,94879150390625;3;221;7,10669532418251E-08;-6,47971034049988E-08;100 nA
-0,90087890625;118,00751570206;-1,092529296875E-09;-0,8990478515625;3;222;7,10669532418251E-08;-6,47971034049988E-08;100 nA
-0,850830078125;118,508003700796;-7,6904296875E-10;-0,84869384765625;3;223;7,10669532418251E-08;-6,47971034049988E-08;100 nA
-0,80078125;119,008491699532;-5,37109375E-10;-0,79864501953125;3;224;7,10669532418251E-08;-6,47971034049988E-08;100 nA
-0,750732421875;119,508979698269;-3,021240234375E-10;-0,7486572265625;3;225;7,10669532418251E-08;-6,47971034049988E-08;100 nA
-0,70068359375;120,009467697005;-4,2724609375E-11;-0,698638916015625;3;226;7,10669532418251E-08;-6,47971034049988E-08;100 nA
-0,650634765625;120,509955695742;1,495361328125E-10;-0,64862060546875;3;227;7,10669532418251E-08;-6,47971034049988E-08;100 nA
-0,6005859375;121,010443694478;3,997802734375E-10;-0,59869384765625;3;228;7,10669532418251E-08;-6,47971034049988E-08;100 nA
-0,550537109375;121,510931693214;6,439208984375E-10;-0,54876708984375;3;229;7,10669532418251E-08;-6,47971034049988E-08;100 nA
-0,50048828125;122,011419691951;9,765625E-10;-0,498931884765625;3;230;7,10669532418251E-08;-6,47971034049988E-08;100 nA
-0,450439453125;122,511907690687;1,507568359375E-09;-0,449005126953125;3;231;7,10669532418251E-08;-6,47971034049988E-08;100 nA
-0,400390625;123,012395689424;2,25830078125E-09;-0,399169921875;3;232;7,10669532418251E-08;-6,47971034049988E-08;100 nA
-0,350341796875;123,51288368816;2,6123046875E-09;-0,3492431640625;3;233;7,10669532418251E-08;-6,47971034049988E-08;100 nA
-0,30029296875;124,013371686896;2,618408203125E-09;-0,299285888671875;3;234;7,10669532418251E-08;-6,47971034049988E-08;100 nA
-0,250244140625;124,513859685633;2,64892578125E-09;-0,2493896484375;3;235;7,10669532418251E-08;-6,47971034049988E-08;100 nA
-0,2001953125;125,014347684369;2,691650390625E-09;-0,199493408203125;3;236;7,10669532418251E-08;-6,47971034049988E-08;100 nA
-0,150146484375;125,514835683106;2,67333984375E-09;-0,14959716796875;3;237;7,10669532418251E-08;-6,47971034049988E-08;100 nA
-0,10009765625;126,015323681842;2,862548828125E-09;-0,099700927734375;3;238;7,10669532418251E-08;-6,47971034049988E-08;100 nA
-0,050048828125;126,515811680578;3,67431640625E-09;-0,049835205078125;3;239;7,10669532418251E-08;-6,47971034049988E-08;100 nA
0;127,016299679315;5,474853515625E-09;0,000119018554687503;3;240;7,10669532418251E-08;-6,47971034049988E-08;100 nA
0,050048828125;127,516787678051;5,2734375E-09;0,050079345703125;4;241;7,05094635486603E-08;-6,44809380173683E-08;100 nA
0,10009765625;128,017275676787;4,9468994140625E-09;0,100128173828125;4;242;7,05094635486603E-08;-6,44809380173683E-08;100 nA
0,150146484375;128,517763675524;5,1361083984375E-09;0,150054931640625;4;243;7,05094635486603E-08;-6,44809380173683E-08;100 nA
0,2001953125;129,01825167426;5,3863525390625E-09;0,200103759765625;4;244;7,05094635486603E-08;-6,44809380173683E-08;100 nA
0,250244140625;129,518739672997;5,657958984375E-09;0,250091552734375;4;245;7,05094635486603E-08;-6,44809380173683E-08;100 nA
0,30029296875;130,019227671733;5,8441162109375E-09;0,300140380859375;4;246;7,05094635486603E-08;-6,44809380173683E-08;100 nA
0,350341796875;130,519715670469;6,1309814453125E-09;0,350128173828125;4;247;7,05094635486603E-08;-6,44809380173683E-08;100 nA
0,400390625;131,020203669206;6,304931640625E-09;0,400177001953125;4;248;7,05094635486603E-08;-6,44809380173683E-08;100 nA
0,450439453125;131,520691667942;6,43310546875E-09;0,45013427734375;4;249;7,05094635486603E-08;-6,44809380173683E-08;100 nA
0,50048828125;132,021179666679;6,4361572265625E-09;0,5001220703125;4;250;7,05094635486603E-08;-6,44809380173683E-08;100 nA
0,550537109375;132,521667665415;6,2103271484375E-09;0,550079345703125;4;251;7,05094635486603E-08;-6,44809380173683E-08;100 nA
0,6005859375;133,022155664151;5,9417724609375E-09;0,600128173828125;4;252;7,05094635486603E-08;-6,44809380173683E-08;100 nA
0,650634765625;133,522643662888;5,6121826171875E-09;0,65008544921875;4;253;7,05094635486603E-08;-6,44809380173683E-08;100 nA
0,70068359375;134,023131661624;5,2337646484375E-09;0,699951171875;4;254;7,05094635486603E-08;-6,44809380173683E-08;100 nA
0,750732421875;134,523619660361;4,89501953125E-09;0,7498779296875;4;255;7,05094635486603E-08;-6,44809380173683E-08;100 nA
0,80078125;135,024107659097;4,6478271484375E-09;0,8001708984375;4;256;7,05094635486603E-08;-6,44809380173683E-08;100 nA
0,850830078125;135,524595657833;4,4097900390625E-09;0,8502197265625;4;257;7,05094635486603E-08;-6,44809380173683E-08;100 nA
0,90087890625;136,02508365657;4,2327880859375E-09;0,89996337890625;4;258;7,05094635486603E-08;-6,44809380173683E-08;100 nA
0,950927734375;136,525571655306;4,095458984375E-09;0,95001220703125;4;259;7,05094635486603E-08;-6,44809380173683E-08;100 nA
1,0009765625;137,026059654042;4,0618896484375E-09;0,999755859375;4;260;7,05094635486603E-08;-6,44809380173683E-08;100 nA
0,950927734375;137,526547652779;1,971435546875E-09;0,94970703125;4;261;7,05094635486603E-08;-6,44809380173683E-08;100 nA
0,90087890625;138,027035651515;9,58251953125E-10;0,899658203125;4;262;7,05094635486603E-08;-6,44809380173683E-08;100 nA
0,850830078125;138,527523650252;3,387451171875E-10;0,84991455078125;4;263;7,05094635486603E-08;-6,44809380173683E-08;100 nA
0,80078125;139,028011648988;1,8310546875E-11;0,799560546875;4;264;7,05094635486603E-08;-6,44809380173683E-08;100 nA
0,750732421875;139,528499647724;-2,227783203125E-10;0,74993896484375;4;265;7,05094635486603E-08;-6,44809380173683E-08;100 nA
0,70068359375;140,028987646461;-4,33349609375E-10;0,699981689453125;4;266;7,05094635486603E-08;-6,44809380173683E-08;100 nA
0,650634765625;140,529475645197;-6,866455078125E-10;0,650115966796875;4;267;7,05094635486603E-08;-6,44809380173683E-08;100 nA
0,6005859375;141,029963643934;-9,46044921875E-10;0,60015869140625;4;268;7,05094635486603E-08;-6,44809380173683E-08;100 nA
0,550537109375;141,53045164267;-1,2969970703125E-09;0,550140380859375;4;269;7,05094635486603E-08;-6,44809380173683E-08;100 nA
0,50048828125;142,030939641406;-1,702880859375E-09;0,500152587890625;4;270;7,05094635486603E-08;-6,44809380173683E-08;100 nA
0,450439453125;142,531427640143;-2,1942138671875E-09;0,450164794921875;4;271;7,05094635486603E-08;-6,44809380173683E-08;100 nA
0,400390625;143,031915638879;-2,6763916015625E-09;0,40020751953125;4;272;7,05094635486603E-08;-6,44809380173683E-08;100 nA
0,350341796875;143,532403637616;-3,21044921875E-09;0,350189208984375;4;273;7,05094635486603E-08;-6,44809380173683E-08;100 nA
0,30029296875;144,032891636352;-3,6956787109375E-09;0,300140380859375;4;274;7,05094635486603E-08;-6,44809380173683E-08;100 nA
0,250244140625;144,533379635088;-4,08935546875E-09;0,2501220703125;4;275;7,05094635486603E-08;-6,44809380173683E-08;100 nA
0,2001953125;145,033867633825;-4,4464111328125E-09;0,20013427734375;4;276;7,05094635486603E-08;-6,44809380173683E-08;100 nA
0,150146484375;145,534355632561;-4,7515869140625E-09;0,150146484375;4;277;7,05094635486603E-08;-6,44809380173683E-08;100 nA
0,10009765625;146,034843631297;-5,0018310546875E-09;0,100128173828125;4;278;7,05094635486603E-08;-6,44809380173683E-08;100 nA
0,050048828125;146,535331630034;-5,5633544921875E-09;0,050140380859375;4;279;7,05094635486603E-08;-6,44809380173683E-08;100 nA
0;147,03581962877;-7,23876953125E-09;0,000143432617187494;4;280;7,05094635486603E-08;-6,44809380173683E-08;100 nA
-0,050048828125;147,536307627507;-1,094970703125E-08;-0,0497100830078125;4;281;7,05094635486603E-08;-6,44809380173683E-08;100 nA
-0,10009765625;148,036795626243;-1,07025146484375E-08;-0,099609375;4;282;7,05094635486603E-08;-6,44809380173683E-08;100 nA
-0,150146484375;148,537283624979;-6,768798828125E-09;-0,149566650390625;4;283;7,05094635486603E-08;-6,44809380173683E-08;100 nA
-0,2001953125;149,037771623716;-3,759765625E-09;-0,199462890625;4;284;7,05094635486603E-08;-6,44809380173683E-08;100 nA
-0,250244140625;149,538259622452;-2,5146484375E-09;-0,249420166015625;4;285;7,05094635486603E-08;-6,44809380173683E-08;100 nA
-0,30029296875;150,038747621189;-2,5299072265625E-09;-0,299224853515625;4;286;7,05094635486603E-08;-6,44809380173683E-08;100 nA
-0,350341796875;150,539235619925;-2,7252197265625E-09;-0,349212646484375;4;287;7,05094635486603E-08;-6,44809380173683E-08;100 nA
-0,400390625;151,039723618661;-3,033447265625E-09;-0,39910888671875;4;288;7,05094635486603E-08;-6,44809380173683E-08;100 nA
-0,450439453125;151,540211617398;-3,2562255859375E-09;-0,44891357421875;4;289;7,05094635486603E-08;-6,44809380173683E-08;100 nA
-0,50048828125;152,040699616134;-3,1494140625E-09;-0,49884033203125;4;290;7,05094635486603E-08;-6,44809380173683E-08;100 nA
-0,550537109375;152,541187614871;-2,9876708984375E-09;-0,548797607421875;4;291;7,05094635486603E-08;-6,44809380173683E-08;100 nA
-0,6005859375;153,041675613607;-2,8350830078125E-09;-0,598663330078125;4;292;7,05094635486603E-08;-6,44809380173683E-08;100 nA
-0,650634765625;153,542163612343;-2,7557373046875E-09;-0,648651123046875;4;293;7,05094635486603E-08;-6,44809380173683E-08;100 nA
-0,70068359375;154,04265161108;-2,703857421875E-09;-0,6986083984375;4;294;7,05094635486603E-08;-6,44809380173683E-08;100 nA
-0,750732421875;154,543139609816;-2,679443359375E-09;-0,7486572265625;4;295;7,05094635486603E-08;-6,44809380173683E-08;100 nA
-0,80078125;155,043627608552;-2,6214599609375E-09;-0,79864501953125;4;296;7,05094635486603E-08;-6,44809380173683E-08;100 nA
-0,850830078125;155,544115607289;-2,5634765625E-09;-0,848388671875;4;297;7,05094635486603E-08;-6,44809380173683E-08;100 nA
-0,90087890625;156,044603606025;-2,5726318359375E-09;-0,89874267578125;4;298;7,05094635486603E-08;-6,44809380173683E-08;100 nA
-0,950927734375;156,545091604762;-2,5360107421875E-09;-0,9490966796875;4;299;7,05094635486603E-08;-6,44809380173683E-08;100 nA
-1,0009765625;157,045579603498;-2,6031494140625E-09;-0,9991455078125;4;300;7,05094635486603E-08;-6,44809380173683E-08;100 nA
-0,950927734375;157,546067602234;-1,6632080078125E-09;-0,9490966796875;4;301;7,05094635486603E-08;-6,44809380173683E-08;100 nA
-0,90087890625;158,046555600971;-1,08642578125E-09;-0,8984375;4;302;7,05094635486603E-08;-6,44809380173683E-08;100 nA
-0,850830078125;158,547043599707;-7,537841796875E-10;-0,8489990234375;4;303;7,05094635486603E-08;-6,44809380173683E-08;100 nA
-0,80078125;159,047531598444;-5,2490234375E-10;-0,79833984375;4;304;7,05094635486603E-08;-6,44809380173683E-08;100 nA
-0,750732421875;159,54801959718;-3,0517578125E-10;-0,748626708984375;4;305;7,05094635486603E-08;-6,44809380173683E-08;100 nA
-0,70068359375;160,048507595916;-9,765625E-11;-0,69866943359375;4;306;7,05094635486603E-08;-6,44809380173683E-08;100 nA
-0,650634765625;160,548995594653;1,03759765625E-10;-0,648681640625;4;307;7,05094635486603E-08;-6,44809380173683E-08;100 nA
-0,6005859375;161,049483593389;3,0517578125E-10;-0,5987548828125;4;308;7,05094635486603E-08;-6,44809380173683E-08;100 nA
-0,550537109375;161,549971592126;6,40869140625E-10;-0,548858642578125;4;309;7,05094635486603E-08;-6,44809380173683E-08;100 nA
-0,50048828125;162,050459590862;9,46044921875E-10;-0,4989013671875;4;310;7,05094635486603E-08;-6,44809380173683E-08;100 nA
-0,450439453125;162,550947589598;1,495361328125E-09;-0,449005126953125;4;311;7,05094635486603E-08;-6,44809380173683E-08;100 nA
-0,400390625;163,051435588335;2,23388671875E-09;-0,399169921875;4;312;7,05094635486603E-08;-6,44809380173683E-08;100 nA
-0,350341796875;163,551923587071;2,6153564453125E-09;-0,3492431640625;4;313;7,05094635486603E-08;-6,44809380173683E-08;100 nA
-0,30029296875;164,052411585807;2,593994140625E-09;-0,29931640625;4;314;7,05094635486603E-08;-6,44809380173683E-08;100 nA
-0,250244140625;164,552899584544;2,60009765625E-09;-0,249420166015625;4;315;7,05094635486603E-08;-6,44809380173683E-08;100 nA
-0,2001953125;165,05338758328;2,6123046875E-09;-0,199462890625;4;316;7,05094635486603E-08;-6,44809380173683E-08;100 nA
-0,150146484375;165,553875582017;2,6123046875E-09;-0,149658203125;4;317;7,05094635486603E-08;-6,44809380173683E-08;100 nA
-0,10009765625;166,054363580753;2,83203125E-09;-0,0997314453125;4;318;7,05094635486603E-08;-6,44809380173683E-08;100 nA
-0,050048828125;166,554851579489;3,6590576171875E-09;-0,049835205078125;4;319;7,05094635486603E-08;-6,44809380173683E-08;100 nA
0;167,055339578226;5,4534912109375E-09;0,000119018554687503;4;320;7,05094635486603E-08;-6,44809380173683E-08;100 nA
0,050048828125;167,555827576962;5,2520751953125E-09;0,050048828125;5;321;7,0260502398014E-08;-6,40853494405746E-08;100 nA
0,10009765625;168,056315575699;4,937744140625E-09;0,100128173828125;5;322;7,0260502398014E-08;-6,40853494405746E-08;100 nA
0,150146484375;168,556803574435;5,1239013671875E-09;0,15008544921875;5;323;7,0260502398014E-08;-6,40853494405746E-08;100 nA
0,2001953125;169,057291573171;5,3436279296875E-09;0,200103759765625;5;324;7,0260502398014E-08;-6,40853494405746E-08;100 nA
0,250244140625;169,557779571908;5,6060791015625E-09;0,2501220703125;5;325;7,0260502398014E-08;-6,40853494405746E-08;100 nA
0,30029296875;170,058267570644;5,926513671875E-09;0,30010986328125;5;326;7,0260502398014E-08;-6,40853494405746E-08;100 nA
0,350341796875;170,558755569381;6,1431884765625E-09;0,35015869140625;5;327;7,0260502398014E-08;-6,40853494405746E-08;100 nA
0,400390625;171,059243568117;6,3507080078125E-09;0,400177001953125;5;328;7,0260502398014E-08;-6,40853494405746E-08;100 nA
0,450439453125;171,559731566853;6,4544677734375E-09;0,450164794921875;5;329;7,0260502398014E-08;-6,40853494405746E-08;100 nA
0,50048828125;172,06021956559;6,43310546875E-09;0,500091552734375;5;330;7,0260502398014E-08;-6,40853494405746E-08;100 nA
0,550537109375;172,560707564326;6,292724609375E-09;0,550201416015625;5;331;7,0260502398014E-08;-6,40853494405746E-08;100 nA
0,6005859375;173,061195563062;5,938720703125E-09;0,600189208984375;5;332;7,0260502398014E-08;-6,40853494405746E-08;100 nA
0,650634765625;173,561683561799;5,615234375E-09;0,650054931640625;5;333;7,0260502398014E-08;-6,40853494405746E-08;100 nA
0,70068359375;174,062171560535;5,2886962890625E-09;0,699951171875;5;334;7,0260502398014E-08;-6,40853494405746E-08;100 nA
0,750732421875;174,562659559272;4,9713134765625E-09;0,749847412109375;5;335;7,0260502398014E-08;-6,40853494405746E-08;100 nA
0,80078125;175,063147558008;4,6966552734375E-09;0,79986572265625;5;336;7,0260502398014E-08;-6,40853494405746E-08;100 nA
0,850830078125;175,563635556744;4,4677734375E-09;0,84991455078125;5;337;7,0260502398014E-08;-6,40853494405746E-08;100 nA
0,90087890625;176,064123555481;4,266357421875E-09;0,899658203125;5;338;7,0260502398014E-08;-6,40853494405746E-08;100 nA
0,950927734375;176,564611554217;4,1412353515625E-09;0,9490966796875;5;339;7,0260502398014E-08;-6,40853494405746E-08;100 nA
1,0009765625;177,065099552954;4,08935546875E-09;0,99945068359375;5;340;7,0260502398014E-08;-6,40853494405746E-08;100 nA
0,950927734375;177,56558755169;1,9927978515625E-09;0,94940185546875;5;341;7,0260502398014E-08;-6,40853494405746E-08;100 nA
0,90087890625;178,066075550426;9,3994140625E-10;0,899658203125;5;342;7,0260502398014E-08;-6,40853494405746E-08;100 nA
0,850830078125;178,566563549163;3,570556640625E-10;0,84991455078125;5;343;7,0260502398014E-08;-6,40853494405746E-08;100 nA
0,80078125;179,067051547899;-9,1552734375E-12;0,79986572265625;5;344;7,0260502398014E-08;-6,40853494405746E-08;100 nA
0,750732421875;179,567539546636;-2,960205078125E-10;0,7498779296875;5;345;7,0260502398014E-08;-6,40853494405746E-08;100 nA
0,70068359375;180,068027545372;-5,035400390625E-10;0,699920654296875;5;346;7,0260502398014E-08;-6,40853494405746E-08;100 nA
0,650634765625;180,568515544108;-7,904052734375E-10;0,650054931640625;5;347;7,0260502398014E-08;-6,40853494405746E-08;100 nA
0,6005859375;181,069003542845;-1,03759765625E-09;0,60009765625;5;348;7,0260502398014E-08;-6,40853494405746E-08;100 nA
0,550537109375;181,569491541581;-1,361083984375E-09;0,550140380859375;5;349;7,0260502398014E-08;-6,40853494405746E-08;100 nA
0,50048828125;182,069979540317;-1,79443359375E-09;0,500091552734375;5;350;7,0260502398014E-08;-6,40853494405746E-08;100 nA
0,450439453125;182,570467539054;-2,2430419921875E-09;0,450164794921875;5;351;7,0260502398014E-08;-6,40853494405746E-08;100 nA
0,400390625;183,07095553779;-2,74658203125E-09;0,400177001953125;5;352;7,0260502398014E-08;-6,40853494405746E-08;100 nA
0,350341796875;183,571443536527;-3,3599853515625E-09;0,35015869140625;5;353;7,0260502398014E-08;-6,40853494405746E-08;100 nA
0,30029296875;184,071931535263;-3,7750244140625E-09;0,30010986328125;5;354;7,0260502398014E-08;-6,40853494405746E-08;100 nA
0,250244140625;184,572419533999;-4,1107177734375E-09;0,2501220703125;5;355;7,0260502398014E-08;-6,40853494405746E-08;100 nA
0,2001953125;185,072907532736;-4,4708251953125E-09;0,200103759765625;5;356;7,0260502398014E-08;-6,40853494405746E-08;100 nA
0,150146484375;185,573395531472;-4,7760009765625E-09;0,150054931640625;5;357;7,0260502398014E-08;-6,40853494405746E-08;100 nA
0,10009765625;186,073883530209;-5,0933837890625E-09;0,10009765625;5;358;7,0260502398014E-08;-6,40853494405746E-08;100 nA
0,050048828125;186,574371528945;-5,56640625E-09;0,050079345703125;5;359;7,0260502398014E-08;-6,40853494405746E-08;100 nA
0;187,074859527681;-7,26318359375E-09;0,000149536132812503;5;360;7,0260502398014E-08;-6,40853494405746E-08;100 nA
-0,050048828125;187,575347526418;-1,10260009765625E-08;-0,0496978759765625;5;361;7,0260502398014E-08;-6,40853494405746E-08;100 nA
-0,10009765625;188,075835525154;-1,07666015625E-08;-0,09967041015625;5;362;7,0260502398014E-08;-6,40853494405746E-08;100 nA
-0,150146484375;188,576323523891;-6,7230224609375E-09;-0,149627685546875;5;363;7,0260502398014E-08;-6,40853494405746E-08;100 nA
-0,2001953125;189,076811522627;-3,64990234375E-09;-0,199432373046875;5;364;7,0260502398014E-08;-6,40853494405746E-08;100 nA
-0,250244140625;189,577299521363;-2,4627685546875E-09;-0,249359130859375;5;365;7,0260502398014E-08;-6,40853494405746E-08;100 nA
-0,30029296875;190,0777875201;-2,484130859375E-09;-0,29931640625;5;366;7,0260502398014E-08;-6,40853494405746E-08;100 nA
-0,350341796875;190,578275518836;-2,752685546875E-09;-0,349273681640625;5;367;7,0260502398014E-08;-6,40853494405746E-08;100 nA
-0,400390625;191,078763517573;-3,0242919921875E-09;-0,399139404296875;5;368;7,0260502398014E-08;-6,40853494405746E-08;100 nA
-0,450439453125;191,579251516309;-3,2257080078125E-09;-0,449005126953125;5;369;7,0260502398014E-08;-6,40853494405746E-08;100 nA
-0,50048828125;192,079739515045;-3,094482421875E-09;-0,49884033203125;5;370;7,0260502398014E-08;-6,40853494405746E-08;100 nA
-0,550537109375;192,580227513782;-2,9205322265625E-09;-0,548828125;5;371;7,0260502398014E-08;-6,40853494405746E-08;100 nA
-0,6005859375;193,080715512518;-2,7923583984375E-09;-0,598724365234375;5;372;7,0260502398014E-08;-6,40853494405746E-08;100 nA
-0,650634765625;193,581203511254;-2,6580810546875E-09;-0,648590087890625;5;373;7,0260502398014E-08;-6,40853494405746E-08;100 nA
-0,70068359375;194,081691509991;-2,581787109375E-09;-0,698638916015625;5;374;7,0260502398014E-08;-6,40853494405746E-08;100 nA
-0,750732421875;194,582179508727;-2,5360107421875E-09;-0,74859619140625;5;375;7,0260502398014E-08;-6,40853494405746E-08;100 nA
-0,80078125;195,082667507464;-2,4505615234375E-09;-0,7989501953125;5;376;7,0260502398014E-08;-6,40853494405746E-08;100 nA
-0,850830078125;195,5831555062;-2,4261474609375E-09;-0,84869384765625;5;377;7,0260502398014E-08;-6,40853494405746E-08;100 nA
-0,90087890625;196,083643504936;-2,45361328125E-09;-0,8990478515625;5;378;7,0260502398014E-08;-6,40853494405746E-08;100 nA
-0,950927734375;196,584131503673;-2,4261474609375E-09;-0,9490966796875;5;379;7,0260502398014E-08;-6,40853494405746E-08;100 nA
-1,0009765625;197,084619502409;-2,47802734375E-09;-0,9991455078125;5;380;7,0260502398014E-08;-6,40853494405746E-08;100 nA
-0,950927734375;197,585107501146;-1,495361328125E-09;-0,94879150390625;5;381;7,0260502398014E-08;-6,40853494405746E-08;100 nA
-0,90087890625;198,085595499882;-1,0040283203125E-09;-0,8990478515625;5;382;7,0260502398014E-08;-6,40853494405746E-08;100 nA
-0,850830078125;198,586083498618;-6,77490234375E-10;-0,84869384765625;5;383;7,0260502398014E-08;-6,40853494405746E-08;100 nA
-0,80078125;199,086571497355;-4,5166015625E-10;-0,79833984375;5;384;7,0260502398014E-08;-6,40853494405746E-08;100 nA
-0,750732421875;199,587059496091;-2,532958984375E-10;-0,748626708984375;5;385;7,0260502398014E-08;-6,40853494405746E-08;100 nA
-0,70068359375;200,087547494828;-3,35693359375E-11;-0,698638916015625;5;386;7,0260502398014E-08;-6,40853494405746E-08;100 nA
-0,650634765625;200,588035493564;1,556396484375E-10;-0,64862060546875;5;387;7,0260502398014E-08;-6,40853494405746E-08;100 nA
-0,6005859375;201,0885234923;3,509521484375E-10;-0,598724365234375;5;388;7,0260502398014E-08;-6,40853494405746E-08;100 nA
-0,550537109375;201,589011491037;5,523681640625E-10;-0,548828125;5;389;7,0260502398014E-08;-6,40853494405746E-08;100 nA
-0,50048828125;202,089499489773;8,697509765625E-10;-0,498931884765625;5;390;7,0260502398014E-08;-6,40853494405746E-08;100 nA
-0,450439453125;202,589987488509;1,4068603515625E-09;-0,44903564453125;5;391;7,0260502398014E-08;-6,40853494405746E-08;100 nA
-0,400390625;203,090475487246;2,1697998046875E-09;-0,39910888671875;5;392;7,0260502398014E-08;-6,40853494405746E-08;100 nA
-0,350341796875;203,590963485982;2,55126953125E-09;-0,349273681640625;5;393;7,0260502398014E-08;-6,40853494405746E-08;100 nA
-0,30029296875;204,091451484719;2,557373046875E-09;-0,299346923828125;5;394;7,0260502398014E-08;-6,40853494405746E-08;100 nA
-0,250244140625;204,591939483455;2,5360107421875E-09;-0,2493896484375;5;395;7,0260502398014E-08;-6,40853494405746E-08;100 nA
-0,2001953125;205,092427482191;2,532958984375E-09;-0,199493408203125;5;396;7,0260502398014E-08;-6,40853494405746E-08;100 nA
-0,150146484375;205,592915480928;2,52685546875E-09;-0,149658203125;5;397;7,0260502398014E-08;-6,40853494405746E-08;100 nA
-0,10009765625;206,093403479664;2,716064453125E-09;-0,0997314453125;5;398;7,0260502398014E-08;-6,40853494405746E-08;100 nA
-0,050048828125;206,593891478401;3,5369873046875E-09;-0,04986572265625;5;399;7,0260502398014E-08;-6,40853494405746E-08;100 nA
0;207,094379477137;5,291748046875E-09;9,46044921874972E-05;5;400;7,0260502398014E-08;-6,40853494405746E-08;100 nA
0,050048828125;207,594867475873;5,072021484375E-09;0,050048828125;6;401;7,00390338897705E-08;-6,40807673335075E-08;100 nA
0,10009765625;208,09535547461;4,791259765625E-09;0,10003662109375;6;402;7,00390338897705E-08;-6,40807673335075E-08;100 nA
0,150146484375;208,595843473346;4,96826171875E-09;0,1500244140625;6;403;7,00390338897705E-08;-6,40807673335075E-08;100 nA
0,2001953125;209,096331472083;5,218505859375E-09;0,200042724609375;6;404;7,00390338897705E-08;-6,40807673335075E-08;100 nA
0,250244140625;209,596819470819;5,5633544921875E-09;0,25;6;405;7,00390338897705E-08;-6,40807673335075E-08;100 nA
0,30029296875;210,097307469555;5,682373046875E-09;0,300048828125;6;406;7,00390338897705E-08;-6,40807673335075E-08;100 nA
0,350341796875;210,597795468292;5,87158203125E-09;0,350128173828125;6;407;7,00390338897705E-08;-6,40807673335075E-08;100 nA
0,400390625;211,098283467028;6,219482421875E-09;0,400054931640625;6;408;7,00390338897705E-08;-6,40807673335075E-08;100 nA
0,450439453125;211,598771465764;6,427001953125E-09;0,450103759765625;6;409;7,00390338897705E-08;-6,40807673335075E-08;100 nA
0,50048828125;212,099259464501;6,3262939453125E-09;0,500091552734375;6;410;7,00390338897705E-08;-6,40807673335075E-08;100 nA
0,550537109375;212,599747463237;6,1920166015625E-09;0,55010986328125;6;411;7,00390338897705E-08;-6,40807673335075E-08;100 nA
0,6005859375;213,100235461974;5,89599609375E-09;0,600128173828125;6;412;7,00390338897705E-08;-6,40807673335075E-08;100 nA
0,650634765625;213,60072346071;5,5633544921875E-09;0,6500244140625;6;413;7,00390338897705E-08;-6,40807673335075E-08;100 nA
0,70068359375;214,101211459446;5,2337646484375E-09;0,699920654296875;6;414;7,00390338897705E-08;-6,40807673335075E-08;100 nA
0,750732421875;214,601699458183;4,937744140625E-09;0,7498779296875;6;415;7,00390338897705E-08;-6,40807673335075E-08;100 nA
0,80078125;215,102187456919;4,65087890625E-09;0,799560546875;6;416;7,00390338897705E-08;-6,40807673335075E-08;100 nA
0,850830078125;215,602675455656;4,4342041015625E-09;0,84991455078125;6;417;7,00390338897705E-08;-6,40807673335075E-08;100 nA
0,90087890625;216,103163454392;4,2572021484375E-09;0,89996337890625;6;418;7,00390338897705E-08;-6,40807673335075E-08;100 nA
0,950927734375;216,603651453128;4,1290283203125E-09;0,94970703125;6;419;7,00390338897705E-08;-6,40807673335075E-08;100 nA
1,0009765625;217,104139451865;4,1168212890625E-09;0,999755859375;6;420;7,00390338897705E-08;-6,40807673335075E-08;100 nA
0,950927734375;217,604627450601;2,0477294921875E-09;0,94970703125;6;421;7,00390338897705E-08;-6,40807673335075E-08;100 nA
0,90087890625;218,105115449338;1,055908203125E-09;0,89996337890625;6;422;7,00390338897705E-08;-6,40807673335075E-08;100 nA
0,850830078125;218,605603448074;5,096435546875E-10;0,84991455078125;6;423;7,00390338897705E-08;-6,40807673335075E-08;100 nA
0,80078125;219,10609144681;1,129150390625E-10;0,80047607421875;6;424;7,00390338897705E-08;-6,40807673335075E-08;100 nA
0,750732421875;219,606579445547;-2,01416015625E-10;0,7498779296875;6;425;7,00390338897705E-08;-6,40807673335075E-08;100 nA
0,70068359375;220,107067444283;-4,119873046875E-10;0,7000732421875;6;426;7,00390338897705E-08;-6,40807673335075E-08;100 nA
0,650634765625;220,607555443019;-6,561279296875E-10;0,650146484375;6;427;7,00390338897705E-08;-6,40807673335075E-08;100 nA
0,6005859375;221,108043441756;-9,27734375E-10;0,600189208984375;6;428;7,00390338897705E-08;-6,40807673335075E-08;100 nA
0,550537109375;221,608531440492;-1,20849609375E-09;0,55023193359375;6;429;7,00390338897705E-08;-6,40807673335075E-08;100 nA
0,50048828125;222,109019439229;-1,641845703125E-09;0,50018310546875;6;430;7,00390338897705E-08;-6,40807673335075E-08;100 nA
0,450439453125;222,609507437965;-2,1453857421875E-09;0,4501953125;6;431;7,00390338897705E-08;-6,40807673335075E-08;100 nA
0,400390625;223,109995436701;-2,6336669921875E-09;0,40020751953125;6;432;7,00390338897705E-08;-6,40807673335075E-08;100 nA
0,350341796875;223,610483435438;-3,204345703125E-09;0,35015869140625;6;433;7,00390338897705E-08;-6,40807673335075E-08;100 nA
0,30029296875;224,110971434174;-3,7109375E-09;0,300140380859375;6;434;7,00390338897705E-08;-6,40807673335075E-08;100 nA
0,250244140625;224,611459432911;-4,052734375E-09;0,250152587890625;6;435;7,00390338897705E-08;-6,40807673335075E-08;100 nA
0,2001953125;225,111947431647;-4,3548583984375E-09;0,2000732421875;6;436;7,00390338897705E-08;-6,40807673335075E-08;100 nA
0,150146484375;225,612435430383;-4,6783447265625E-09;0,150177001953125;6;437;7,00390338897705E-08;-6,40807673335075E-08;100 nA
0,10009765625;226,11292342912;-5,04150390625E-09;0,100128173828125;6;438;7,00390338897705E-08;-6,40807673335075E-08;100 nA
0,050048828125;226,613411427856;-5,535888671875E-09;0,050140380859375;6;439;7,00390338897705E-08;-6,40807673335075E-08;100 nA
0;227,113899426593;-7,18994140625E-09;0,000158691406249994;6;440;7,00390338897705E-08;-6,40807673335075E-08;100 nA
-0,050048828125;227,614387425329;-1,0992431640625E-08;-0,04974365234375;6;441;7,00390338897705E-08;-6,40807673335075E-08;100 nA
-0,10009765625;228,114875424065;-1,07147216796875E-08;-0,099639892578125;6;442;7,00390338897705E-08;-6,40807673335075E-08;100 nA
-0,150146484375;228,615363422802;-6,6314697265625E-09;-0,149566650390625;6;443;7,00390338897705E-08;-6,40807673335075E-08;100 nA
-0,2001953125;229,115851421538;-3,619384765625E-09;-0,199432373046875;6;444;7,00390338897705E-08;-6,40807673335075E-08;100 nA
-0,250244140625;229,616339420274;-2,520751953125E-09;-0,249359130859375;6;445;7,00390338897705E-08;-6,40807673335075E-08;100 nA
-0,30029296875;230,116827419011;-2,545166015625E-09;-0,299285888671875;6;446;7,00390338897705E-08;-6,40807673335075E-08;100 nA
-0,350341796875;230,617315417747;-2,7618408203125E-09;-0,34918212890625;6;447;7,00390338897705E-08;-6,40807673335075E-08;100 nA
-0,400390625;231,117803416484;-3,0517578125E-09;-0,399139404296875;6;448;7,00390338897705E-08;-6,40807673335075E-08;100 nA
-0,450439453125;231,61829141522;-3,2623291015625E-09;-0,448944091796875;6;449;7,00390338897705E-08;-6,40807673335075E-08;100 nA
-0,50048828125;232,118779413956;-3,18603515625E-09;-0,4989013671875;6;450;7,00390338897705E-08;-6,40807673335075E-08;100 nA
-0,550537109375;232,619267412693;-3,033447265625E-09;-0,548828125;6;451;7,00390338897705E-08;-6,40807673335075E-08;100 nA
-0,6005859375;233,119755411429;-2,9083251953125E-09;-0,598724365234375;6;452;7,00390338897705E-08;-6,40807673335075E-08;100 nA
-0,650634765625;233,620243410166;-2,77099609375E-09;-0,648712158203125;6;453;7,00390338897705E-08;-6,40807673335075E-08;100 nA
-0,70068359375;234,120731408902;-2,6947021484375E-09;-0,698638916015625;6;454;7,00390338897705E-08;-6,40807673335075E-08;100 nA
-0,750732421875;234,621219407638;-2,6580810546875E-09;-0,748626708984375;6;455;7,00390338897705E-08;-6,40807673335075E-08;100 nA
-0,80078125;235,121707406375;-2,5665283203125E-09;-0,7989501953125;6;456;7,00390338897705E-08;-6,40807673335075E-08;100 nA
-0,850830078125;235,622195405111;-2,55126953125E-09;-0,848388671875;6;457;7,00390338897705E-08;-6,40807673335075E-08;100 nA
-0,90087890625;236,122683403848;-2,5543212890625E-09;-0,89874267578125;6;458;7,00390338897705E-08;-6,40807673335075E-08;100 nA
-0,950927734375;236,623171402584;-2,5634765625E-09;-0,94879150390625;6;459;7,00390338897705E-08;-6,40807673335075E-08;100 nA
-1,0009765625;237,12365940132;-2,5634765625E-09;-0,9991455078125;6;460;7,00390338897705E-08;-6,40807673335075E-08;100 nA
-0,950927734375;237,624147400057;-1,5838623046875E-09;-0,94879150390625;6;461;7,00390338897705E-08;-6,40807673335075E-08;100 nA
-0,90087890625;238,124635398793;-1,0986328125E-09;-0,8990478515625;6;462;7,00390338897705E-08;-6,40807673335075E-08;100 nA
-0,850830078125;238,625123397529;-7,293701171875E-10;-0,848388671875;6;463;7,00390338897705E-08;-6,40807673335075E-08;100 nA
-0,80078125;239,125611396266;-4,8828125E-10;-0,7989501953125;6;464;7,00390338897705E-08;-6,40807673335075E-08;100 nA
-0,750732421875;239,626099395002;-2,655029296875E-10;-0,748626708984375;6;465;7,00390338897705E-08;-6,40807673335075E-08;100 nA
-0,70068359375;240,126587393739;-1,251220703125E-10;-0,6986083984375;6;466;7,00390338897705E-08;-6,40807673335075E-08;100 nA
-0,650634765625;240,627075392475;1,03759765625E-10;-0,648681640625;6;467;7,00390338897705E-08;-6,40807673335075E-08;100 nA
-0,6005859375;241,127563391211;3,84521484375E-10;-0,5987548828125;6;468;7,00390338897705E-08;-6,40807673335075E-08;100 nA
-0,550537109375;241,628051389948;6,103515625E-10;-0,548797607421875;6;469;7,00390338897705E-08;-6,40807673335075E-08;100 nA
-0,50048828125;242,128539388684;9,552001953125E-10;-0,4989013671875;6;470;7,00390338897705E-08;-6,40807673335075E-08;100 nA
-0,450439453125;242,629027387421;1,483154296875E-09;-0,449005126953125;6;471;7,00390338897705E-08;-6,40807673335075E-08;100 nA
-0,400390625;243,129515386157;2,20947265625E-09;-0,399139404296875;6;472;7,00390338897705E-08;-6,40807673335075E-08;100 nA
-0,350341796875;243,630003384893;2,6214599609375E-09;-0,349212646484375;6;473;7,00390338897705E-08;-6,40807673335075E-08;100 nA
-0,30029296875;244,13049138363;2,593994140625E-09;-0,299285888671875;6;474;7,00390338897705E-08;-6,40807673335075E-08;100 nA
-0,250244140625;244,630979382366;2,606201171875E-09;-0,249420166015625;6;475;7,00390338897705E-08;-6,40807673335075E-08;100 nA
-0,2001953125;245,131467381103;2,6092529296875E-09;-0,199493408203125;6;476;7,00390338897705E-08;-6,40807673335075E-08;100 nA
-0,150146484375;245,631955379839;2,60009765625E-09;-0,14959716796875;6;477;7,00390338897705E-08;-6,40807673335075E-08;100 nA
-0,10009765625;246,132443378575;2,8167724609375E-09;-0,099761962890625;6;478;7,00390338897705E-08;-6,40807673335075E-08;100 nA
-0,050048828125;246,632931377312;3,6468505859375E-09;-0,04986572265625;6;479;7,00390338897705E-08;-6,40807673335075E-08;100 nA
0;247,133419376048;5,4229736328125E-09;0,000103759765625003;6;480;7,00390338897705E-08;-6,40807673335075E-08;100 nA
0,050048828125;247,633907374784;5,1971435546875E-09;0,050140380859375;7;481;7,07507878541946E-08;-6,40043988823891E-08;100 nA
0,10009765625;248,134395373521;4,9072265625E-09;0,10003662109375;7;482;7,07507878541946E-08;-6,40043988823891E-08;100 nA
0,150146484375;248,634883372257;5,096435546875E-09;0,150054931640625;7;483;7,07507878541946E-08;-6,40043988823891E-08;100 nA
0,2001953125;249,135371370994;5,328369140625E-09;0,2000732421875;7;484;7,07507878541946E-08;-6,40043988823891E-08;100 nA
0,250244140625;249,63585936973;5,5938720703125E-09;0,25018310546875;7;485;7,07507878541946E-08;-6,40043988823891E-08;100 nA
0,30029296875;250,136347368466;5,87158203125E-09;0,300048828125;7;486;7,07507878541946E-08;-6,40043988823891E-08;100 nA
0,350341796875;250,636835367203;6,1187744140625E-09;0,35009765625;7;487;7,07507878541946E-08;-6,40043988823891E-08;100 nA
0,400390625;251,137323365939;6,3262939453125E-09;0,400115966796875;7;488;7,07507878541946E-08;-6,40043988823891E-08;100 nA
0,450439453125;251,637811364676;6,4483642578125E-09;0,4500732421875;7;489;7,07507878541946E-08;-6,40043988823891E-08;100 nA
0,50048828125;252,138299363412;6,4239501953125E-09;0,5001220703125;7;490;7,07507878541946E-08;-6,40043988823891E-08;100 nA
0,550537109375;252,638787362148;6,243896484375E-09;0,550140380859375;7;491;7,07507878541946E-08;-6,40043988823891E-08;100 nA
0,6005859375;253,139275360885;5,9844970703125E-09;0,600189208984375;7;492;7,07507878541946E-08;-6,40043988823891E-08;100 nA
0,650634765625;253,639763359621;5,62744140625E-09;0,650115966796875;7;493;7,07507878541946E-08;-6,40043988823891E-08;100 nA
0,70068359375;254,140251358358;5,2581787109375E-09;0,699951171875;7;494;7,07507878541946E-08;-6,40043988823891E-08;100 nA
0,750732421875;254,640739357094;4,9774169921875E-09;0,749908447265625;7;495;7,07507878541946E-08;-6,40043988823891E-08;100 nA
0,80078125;255,14122735583;4,669189453125E-09;0,79986572265625;7;496;7,07507878541946E-08;-6,40043988823891E-08;100 nA
0,850830078125;255,641715354567;4,4464111328125E-09;0,849609375;7;497;7,07507878541946E-08;-6,40043988823891E-08;100 nA
0,90087890625;256,142203353303;4,248046875E-09;0,89996337890625;7;498;7,07507878541946E-08;-6,40043988823891E-08;100 nA
0,950927734375;256,642691352039;4,1259765625E-09;0,95001220703125;7;499;7,07507878541946E-08;-6,40043988823891E-08;100 nA
1,0009765625;257,143179350776;4,0679931640625E-09;0,999755859375;7;500;7,07507878541946E-08;-6,40043988823891E-08;100 nA
0,950927734375;257,643667349512;1,995849609375E-09;0,94970703125;7;501;7,07507878541946E-08;-6,40043988823891E-08;100 nA
0,90087890625;258,144155348249;9,857177734375E-10;0,90057373046875;7;502;7,07507878541946E-08;-6,40043988823891E-08;100 nA
0,850830078125;258,644643346985;3,875732421875E-10;0,85052490234375;7;503;7,07507878541946E-08;-6,40043988823891E-08;100 nA
0,80078125;259,145131345721;9,1552734375E-12;0,79986572265625;7;504;7,07507878541946E-08;-6,40043988823891E-08;100 nA
0,750732421875;259,645619344458;-2,9296875E-10;0,7498779296875;7;505;7,07507878541946E-08;-6,40043988823891E-08;100 nA
0,70068359375;260,146107343194;-5,18798828125E-10;0,699981689453125;7;506;7,07507878541946E-08;-6,40043988823891E-08;100 nA
0,650634765625;260,646595341931;-7,354736328125E-10;0,650115966796875;7;507;7,07507878541946E-08;-6,40043988823891E-08;100 nA
0,6005859375;261,147083340667;-1,0345458984375E-09;0,60015869140625;7;508;7,07507878541946E-08;-6,40043988823891E-08;100 nA
0,550537109375;261,647571339403;-1,33056640625E-09;0,55010986328125;7;509;7,07507878541946E-08;-6,40043988823891E-08;100 nA
0,50048828125;262,14805933814;-1,788330078125E-09;0,50006103515625;7;510;7,07507878541946E-08;-6,40043988823891E-08;100 nA
0,450439453125;262,648547336876;-2,30712890625E-09;0,450103759765625;7;511;7,07507878541946E-08;-6,40043988823891E-08;100 nA
0,400390625;263,149035335613;-2,7862548828125E-09;0,400177001953125;7;512;7,07507878541946E-08;-6,40043988823891E-08;100 nA
0,350341796875;263,649523334349;-3,33251953125E-09;0,35015869140625;7;513;7,07507878541946E-08;-6,40043988823891E-08;100 nA
0,30029296875;264,150011333085;-3,8421630859375E-09;0,300140380859375;7;514;7,07507878541946E-08;-6,40043988823891E-08;100 nA
0,250244140625;264,650499331822;-4,1595458984375E-09;0,250091552734375;7;515;7,07507878541946E-08;-6,40043988823891E-08;100 nA
0,2001953125;265,150987330558;-4,4952392578125E-09;0,200103759765625;7;516;7,07507878541946E-08;-6,40043988823891E-08;100 nA
0,150146484375;265,651475329295;-4,7943115234375E-09;0,150177001953125;7;517;7,07507878541946E-08;-6,40043988823891E-08;100 nA
0,10009765625;266,151963328031;-5,1483154296875E-09;0,10009765625;7;518;7,07507878541946E-08;-6,40043988823891E-08;100 nA
0,050048828125;266,652451326767;-5,6549072265625E-09;0,050079345703125;7;519;7,07507878541946E-08;-6,40043988823891E-08;100 nA
0;267,152939325504;-7,23876953125E-09;0,000155639648437497;7;520;7,07507878541946E-08;-6,40043988823891E-08;100 nA
-0,050048828125;267,65342732424;-1,103515625E-08;-0,0497222900390625;7;521;7,07507878541946E-08;-6,40043988823891E-08;100 nA
-0,10009765625;268,153915322976;-1,07635498046875E-08;-0,09967041015625;7;522;7,07507878541946E-08;-6,40043988823891E-08;100 nA
-0,150146484375;268,654403321713;-6,6192626953125E-09;-0,14959716796875;7;523;7,07507878541946E-08;-6,40043988823891E-08;100 nA
-0,2001953125;269,154891320449;-3,57666015625E-09;-0,199493408203125;7;524;7,07507878541946E-08;-6,40043988823891E-08;100 nA
-0,250244140625;269,655379319186;-2,5238037109375E-09;-0,2493896484375;7;525;7,07507878541946E-08;-6,40043988823891E-08;100 nA
-0,30029296875;270,155867317922;-2,5482177734375E-09;-0,299224853515625;7;526;7,07507878541946E-08;-6,40043988823891E-08;100 nA
-0,350341796875;270,656355316658;-2,7618408203125E-09;-0,349273681640625;7;527;7,07507878541946E-08;-6,40043988823891E-08;100 nA
-0,400390625;271,156843315395;-3,0609130859375E-09;-0,399139404296875;7;528;7,07507878541946E-08;-6,40043988823891E-08;100 nA
-0,450439453125;271,657331314131;-3,2196044921875E-09;-0,448944091796875;7;529;7,07507878541946E-08;-6,40043988823891E-08;100 nA
-0,50048828125;272,157819312868;-3,131103515625E-09;-0,498870849609375;7;530;7,07507878541946E-08;-6,40043988823891E-08;100 nA
-0,550537109375;272,658307311604;-2,9541015625E-09;-0,54876708984375;7;531;7,07507878541946E-08;-6,40043988823891E-08;100 nA
-0,6005859375;273,15879531034;-2,7862548828125E-09;-0,59869384765625;7;532;7,07507878541946E-08;-6,40043988823891E-08;100 nA
-0,650634765625;273,659283309077;-2,6519775390625E-09;-0,64862060546875;7;533;7,07507878541946E-08;-6,40043988823891E-08;100 nA
-0,70068359375;274,159771307813;-2,545166015625E-09;-0,698577880859375;7;534;7,07507878541946E-08;-6,40043988823891E-08;100 nA
-0,750732421875;274,66025930655;-2,4749755859375E-09;-0,748565673828125;7;535;7,07507878541946E-08;-6,40043988823891E-08;100 nA
-0,80078125;275,160747305286;-2,44140625E-09;-0,79925537109375;7;536;7,07507878541946E-08;-6,40043988823891E-08;100 nA
-0,850830078125;275,661235304022;-2,45361328125E-09;-0,84869384765625;7;537;7,07507878541946E-08;-6,40043988823891E-08;100 nA
-0,90087890625;276,161723302759;-2,4261474609375E-09;-0,8984375;7;538;7,07507878541946E-08;-6,40043988823891E-08;100 nA
-0,950927734375;276,662211301495;-2,423095703125E-09;-0,94879150390625;7;539;7,07507878541946E-08;-6,40043988823891E-08;100 nA
-1,0009765625;277,162699300231;-2,435302734375E-09;-0,9991455078125;7;540;7,07507878541946E-08;-6,40043988823891E-08;100 nA
-0,950927734375;277,663187298968;-1,446533203125E-09;-0,94879150390625;7;541;7,07507878541946E-08;-6,40043988823891E-08;100 nA
-0,90087890625;278,163675297704;-9,735107421875E-10;-0,89874267578125;7;542;7,07507878541946E-08;-6,40043988823891E-08;100 nA
-0,850830078125;278,664163296441;-6,378173828125E-10;-0,84869384765625;7;543;7,07507878541946E-08;-6,40043988823891E-08;100 nA
-0,80078125;279,164651295177;-3,692626953125E-10;-0,79864501953125;7;544;7,07507878541946E-08;-6,40043988823891E-08;100 nA
-0,750732421875;279,665139293913;-1,64794921875E-10;-0,748626708984375;7;545;7,07507878541946E-08;-6,40043988823891E-08;100 nA
-0,70068359375;280,16562729265;4,2724609375E-11;-0,698638916015625;7;546;7,07507878541946E-08;-6,40043988823891E-08;100 nA
-0,650634765625;280,666115291386;2,0751953125E-10;-0,64862060546875;7;547;7,07507878541946E-08;-6,40043988823891E-08;100 nA
-0,6005859375;281,166603290123;4,791259765625E-10;-0,59869384765625;7;548;7,07507878541946E-08;-6,40043988823891E-08;100 nA
-0,550537109375;281,667091288859;6,988525390625E-10;-0,548828125;7;549;7,07507878541946E-08;-6,40043988823891E-08;100 nA
-0,50048828125;282,167579287595;9,613037109375E-10;-0,498931884765625;7;550;7,07507878541946E-08;-6,40043988823891E-08;100 nA
-0,450439453125;282,668067286332;1,50146484375E-09;-0,448944091796875;7;551;7,07507878541946E-08;-6,40043988823891E-08;100 nA
-0,400390625;283,168555285068;2,2491455078125E-09;-0,39910888671875;7;552;7,07507878541946E-08;-6,40043988823891E-08;100 nA
-0,350341796875;283,669043283805;2,6702880859375E-09;-0,3492431640625;7;553;7,07507878541946E-08;-6,40043988823891E-08;100 nA
-0,30029296875;284,169531282541;2,6580810546875E-09;-0,29931640625;7;554;7,07507878541946E-08;-6,40043988823891E-08;100 nA
-0,250244140625;284,670019281277;2,618408203125E-09;-0,2493896484375;7;555;7,07507878541946E-08;-6,40043988823891E-08;100 nA
-0,2001953125;285,170507280014;2,6153564453125E-09;-0,199432373046875;7;556;7,07507878541946E-08;-6,40043988823891E-08;100 nA
-0,150146484375;285,67099527875;2,618408203125E-09;-0,149658203125;7;557;7,07507878541946E-08;-6,40043988823891E-08;100 nA
-0,10009765625;286,171483277486;2,8106689453125E-09;-0,0997314453125;7;558;7,07507878541946E-08;-6,40043988823891E-08;100 nA
-0,050048828125;286,671971276223;3,594970703125E-09;-0,049774169921875;7;559;7,07507878541946E-08;-6,40043988823891E-08;100 nA
0;287,172459274959;5,2978515625E-09;8,23974609374944E-05;7;560;7,07507878541946E-08;-6,40043988823891E-08;100 nA
0,050048828125;287,672947273696;5,0323486328125E-09;0,050018310546875;8;561;6,94571062922478E-08;-6,34148344397545E-08;100 nA
0,10009765625;288,173435272432;4,7576904296875E-09;0,100067138671875;8;562;6,94571062922478E-08;-6,34148344397545E-08;100 nA
0,150146484375;288,673923271168;4,96826171875E-09;0,1500244140625;8;563;6,94571062922478E-08;-6,34148344397545E-08;100 nA
0,2001953125;289,174411269905;5,1788330078125E-09;0,199981689453125;8;564;6,94571062922478E-08;-6,34148344397545E-08;100 nA
0,250244140625;289,674899268641;5,450439453125E-09;0,25;8;565;6,94571062922478E-08;-6,34148344397545E-08;100 nA
0,30029296875;290,175387267378;5,6884765625E-09;0,300018310546875;8;566;6,94571062922478E-08;-6,34148344397545E-08;100 nA
0,350341796875;290,675875266114;5,987548828125E-09;0,350067138671875;8;567;6,94571062922478E-08;-6,34148344397545E-08;100 nA
0,400390625;291,17636326485;6,18896484375E-09;0,40008544921875;8;568;6,94571062922478E-08;-6,34148344397545E-08;100 nA
0,450439453125;291,676851263587;6,3232421875E-09;0,450103759765625;8;569;6,94571062922478E-08;-6,34148344397545E-08;100 nA
0,50048828125;292,177339262323;6,2957763671875E-09;0,500091552734375;8;570;6,94571062922478E-08;-6,34148344397545E-08;100 nA
0,550537109375;292,67782726106;6,1737060546875E-09;0,55010986328125;8;571;6,94571062922478E-08;-6,34148344397545E-08;100 nA
0,6005859375;293,178315259796;5,87158203125E-09;0,60009765625;8;572;6,94571062922478E-08;-6,34148344397545E-08;100 nA
0,650634765625;293,678803258532;5,5206298828125E-09;0,65008544921875;8;573;6,94571062922478E-08;-6,34148344397545E-08;100 nA
0,70068359375;294,179291257269;5,1910400390625E-09;0,699951171875;8;574;6,94571062922478E-08;-6,34148344397545E-08;100 nA
0,750732421875;294,679779256005;4,888916015625E-09;0,74993896484375;8;575;6,94571062922478E-08;-6,34148344397545E-08;100 nA
0,80078125;295,180267254741;4,6295166015625E-09;0,80047607421875;8;576;6,94571062922478E-08;-6,34148344397545E-08;100 nA
0,850830078125;295,680755253478;4,3792724609375E-09;0,84991455078125;8;577;6,94571062922478E-08;-6,34148344397545E-08;100 nA
0,90087890625;296,181243252214;4,2236328125E-09;0,9002685546875;8;578;6,94571062922478E-08;-6,34148344397545E-08;100 nA
0,950927734375;296,681731250951;4,08935546875E-09;0,94970703125;8;579;6,94571062922478E-08;-6,34148344397545E-08;100 nA
1,0009765625;297,182219249687;4,119873046875E-09;0,9991455078125;8;580;6,94571062922478E-08;-6,34148344397545E-08;100 nA
0,950927734375;297,682707248423;2,0751953125E-09;0,94970703125;8;581;6,94571062922478E-08;-6,34148344397545E-08;100 nA
0,90087890625;298,18319524716;1,0589599609375E-09;0,9002685546875;8;582;6,94571062922478E-08;-6,34148344397545E-08;100 nA
0,850830078125;298,683683245896;4,39453125E-10;0,8502197265625;8;583;6,94571062922478E-08;-6,34148344397545E-08;100 nA
0,80078125;299,184171244633;6,7138671875E-11;0,79986572265625;8;584;6,94571062922478E-08;-6,34148344397545E-08;100 nA
0,750732421875;299,684659243369;-1,617431640625E-10;0,74993896484375;8;585;6,94571062922478E-08;-6,34148344397545E-08;100 nA
0,70068359375;300,185147242105;-4,180908203125E-10;0,70001220703125;8;586;6,94571062922478E-08;-6,34148344397545E-08;100 nA
0,650634765625;300,685635240842;-6,195068359375E-10;0,650146484375;8;587;6,94571062922478E-08;-6,34148344397545E-08;100 nA
0,6005859375;301,186123239578;-8,9111328125E-10;0,60015869140625;8;588;6,94571062922478E-08;-6,34148344397545E-08;100 nA
0,550537109375;301,686611238315;-1,1993408203125E-09;0,5501708984375;8;589;6,94571062922478E-08;-6,34148344397545E-08;100 nA
0,50048828125;302,187099237051;-1,6815185546875E-09;0,50018310546875;8;590;6,94571062922478E-08;-6,34148344397545E-08;100 nA
0,450439453125;302,687587235787;-2,130126953125E-09;0,4501953125;8;591;6,94571062922478E-08;-6,34148344397545E-08;100 nA
0,400390625;303,188075234524;-2,64892578125E-09;0,40020751953125;8;592;6,94571062922478E-08;-6,34148344397545E-08;100 nA
0,350341796875;303,68856323326;-3,2257080078125E-09;0,350189208984375;8;593;6,94571062922478E-08;-6,34148344397545E-08;100 nA
0,30029296875;304,189051231996;-3,7506103515625E-09;0,3001708984375;8;594;6,94571062922478E-08;-6,34148344397545E-08;100 nA
0,250244140625;304,689539230733;-4,107666015625E-09;0,250152587890625;8;595;6,94571062922478E-08;-6,34148344397545E-08;100 nA
0,2001953125;305,190027229469;-4,43115234375E-09;0,200164794921875;8;596;6,94571062922478E-08;-6,34148344397545E-08;100 nA
0,150146484375;305,690515228206;-4,8187255859375E-09;0,150146484375;8;597;6,94571062922478E-08;-6,34148344397545E-08;100 nA
0,10009765625;306,191003226942;-5,1239013671875E-09;0,100128173828125;8;598;6,94571062922478E-08;-6,34148344397545E-08;100 nA
0,050048828125;306,691491225678;-5,6182861328125E-09;0,05010986328125;8;599;6,94571062922478E-08;-6,34148344397545E-08;100 nA
0;307,191979224415;-7,2540283203125E-09;0,000152587890625;8;600;6,94571062922478E-08;-6,34148344397545E-08;100 nA
-0,050048828125;307,692467223151;-1,10931396484375E-08;-0,049835205078125;8;601;6,94571062922478E-08;-6,34148344397545E-08;100 nA
-0,10009765625;308,192955221888;-1,0809326171875E-08;-0,099700927734375;8;602;6,94571062922478E-08;-6,34148344397545E-08;100 nA
-0,150146484375;308,693443220624;-6,591796875E-09;-0,149566650390625;8;603;6,94571062922478E-08;-6,34148344397545E-08;100 nA
-0,2001953125;309,19393121936;-3,570556640625E-09;-0,19952392578125;8;604;6,94571062922478E-08;-6,34148344397545E-08;100 nA
-0,250244140625;309,694419218097;-2,5726318359375E-09;-0,2493896484375;8;605;6,94571062922478E-08;-6,34148344397545E-08;100 nA
-0,30029296875;310,194907216833;-2,6397705078125E-09;-0,29925537109375;8;606;6,94571062922478E-08;-6,34148344397545E-08;100 nA
-0,350341796875;310,69539521557;-2,7862548828125E-09;-0,3492431640625;8;607;6,94571062922478E-08;-6,34148344397545E-08;100 nA
-0,400390625;311,195883214306;-3,0609130859375E-09;-0,399139404296875;8;608;6,94571062922478E-08;-6,34148344397545E-08;100 nA
-0,450439453125;311,696371213042;-3,2257080078125E-09;-0,448944091796875;8;609;6,94571062922478E-08;-6,34148344397545E-08;100 nA
-0,50048828125;312,196859211779;-3,1219482421875E-09;-0,4989013671875;8;610;6,94571062922478E-08;-6,34148344397545E-08;100 nA
-0,550537109375;312,697347210515;-2,9327392578125E-09;-0,54876708984375;8;611;6,94571062922478E-08;-6,34148344397545E-08;100 nA
-0,6005859375;313,197835209251;-2,789306640625E-09;-0,59869384765625;8;612;6,94571062922478E-08;-6,34148344397545E-08;100 nA
-0,650634765625;313,698323207988;-2,679443359375E-09;-0,648590087890625;8;613;6,94571062922478E-08;-6,34148344397545E-08;100 nA
-0,70068359375;314,198811206724;-2,6031494140625E-09;-0,698638916015625;8;614;6,94571062922478E-08;-6,34148344397545E-08;100 nA
-0,750732421875;314,699299205461;-2,5054931640625E-09;-0,748626708984375;8;615;6,94571062922478E-08;-6,34148344397545E-08;100 nA
-0,80078125;315,199787204197;-2,42919921875E-09;-0,79864501953125;8;616;6,94571062922478E-08;-6,34148344397545E-08;100 nA
-0,850830078125;315,700275202933;-2,398681640625E-09;-0,84869384765625;8;617;6,94571062922478E-08;-6,34148344397545E-08;100 nA
-0,90087890625;316,20076320167;-2,40478515625E-09;-0,8984375;8;618;6,94571062922478E-08;-6,34148344397545E-08;100 nA
-0,950927734375;316,701251200406;-2,4169921875E-09;-0,94879150390625;8;619;6,94571062922478E-08;-6,34148344397545E-08;100 nA
-1,0009765625;317,201739199143;-2,4139404296875E-09;-0,99884033203125;8;620;6,94571062922478E-08;-6,34148344397545E-08;100 nA
-0,950927734375;317,702227197879;-1,4739990234375E-09;-0,94818115234375;8;621;6,94571062922478E-08;-6,34148344397545E-08;100 nA
-0,90087890625;318,202715196615;-9,490966796875E-10;-0,89874267578125;8;622;6,94571062922478E-08;-6,34148344397545E-08;100 nA
-0,850830078125;318,703203195352;-6,28662109375E-10;-0,848388671875;8;623;6,94571062922478E-08;-6,34148344397545E-08;100 nA
-0,80078125;319,203691194088;-3,96728515625E-10;-0,7989501953125;8;624;6,94571062922478E-08;-6,34148344397545E-08;100 nA
-0,750732421875;319,704179192825;-1,312255859375E-10;-0,748626708984375;8;625;6,94571062922478E-08;-6,34148344397545E-08;100 nA
-0,70068359375;320,204667191561;0;-0,698577880859375;8;626;6,94571062922478E-08;-6,34148344397545E-08;100 nA
-0,650634765625;320,705155190297;2,197265625E-10;-0,648590087890625;8;627;6,94571062922478E-08;-6,34148344397545E-08;100 nA
-0,6005859375;321,205643189034;4,058837890625E-10;-0,598724365234375;8;628;6,94571062922478E-08;-6,34148344397545E-08;100 nA
-0,550537109375;321,70613118777;6,65283203125E-10;-0,548797607421875;8;629;6,94571062922478E-08;-6,34148344397545E-08;100 nA
-0,50048828125;322,206619186506;9,46044921875E-10;-0,4989013671875;8;630;6,94571062922478E-08;-6,34148344397545E-08;100 nA
-0,450439453125;322,707107185243;1,4404296875E-09;-0,448974609375;8;631;6,94571062922478E-08;-6,34148344397545E-08;100 nA
-0,400390625;323,207595183979;2,1942138671875E-09;-0,399139404296875;8;632;6,94571062922478E-08;-6,34148344397545E-08;100 nA
-0,350341796875;323,708083182716;2,62451171875E-09;-0,3492431640625;8;633;6,94571062922478E-08;-6,34148344397545E-08;100 nA
-0,30029296875;324,208571181452;2,5787353515625E-09;-0,29931640625;8;634;6,94571062922478E-08;-6,34148344397545E-08;100 nA
-0,250244140625;324,709059180188;2,557373046875E-09;-0,249420166015625;8;635;6,94571062922478E-08;-6,34148344397545E-08;100 nA
-0,2001953125;325,209547178925;2,545166015625E-09;-0,199554443359375;8;636;6,94571062922478E-08;-6,34148344397545E-08;100 nA
-0,150146484375;325,710035177661;2,557373046875E-09;-0,149627685546875;8;637;6,94571062922478E-08;-6,34148344397545E-08;100 nA
-0,10009765625;326,210523176398;2,7313232421875E-09;-0,099761962890625;8;638;6,94571062922478E-08;-6,34148344397545E-08;100 nA
-0,050048828125;326,711011175134;3,5064697265625E-09;-0,04986572265625;8;639;6,94571062922478E-08;-6,34148344397545E-08;100 nA
0;327,21149917387;5,206298828125E-09;0,000109863281249997;8;640;6,94571062922478E-08;-6,34148344397545E-08;100 nA
0,050048828125;327,711987172607;5,0079345703125E-09;0,04998779296875;9;641;6,9565549492836E-08;-6,32743164896965E-08;100 nA
0,10009765625;328,212475171343;4,742431640625E-09;0,10003662109375;9;642;6,9565549492836E-08;-6,32743164896965E-08;100 nA
0,150146484375;328,71296317008;4,9530029296875E-09;0,150054931640625;9;643;6,9565549492836E-08;-6,32743164896965E-08;100 nA
0,2001953125;329,213451168816;5,1971435546875E-09;0,200042724609375;9;644;6,9565549492836E-08;-6,32743164896965E-08;100 nA
0,250244140625;329,713939167552;5,40771484375E-09;0,25006103515625;9;645;6,9565549492836E-08;-6,32743164896965E-08;100 nA
0,30029296875;330,214427166289;5,7708740234375E-09;0,300079345703125;9;646;6,9565549492836E-08;-6,32743164896965E-08;100 nA
0,350341796875;330,714915165025;6,0272216796875E-09;0,350128173828125;9;647;6,9565549492836E-08;-6,32743164896965E-08;100 nA
0,400390625;331,215403163761;6,23779296875E-09;0,400115966796875;9;648;6,9565549492836E-08;-6,32743164896965E-08;100 nA
0,450439453125;331,715891162498;6,34765625E-09;0,450042724609375;9;649;6,9565549492836E-08;-6,32743164896965E-08;100 nA
0,50048828125;332,216379161234;6,34765625E-09;0,500091552734375;9;650;6,9565549492836E-08;-6,32743164896965E-08;100 nA
0,550537109375;332,716867159971;6,1553955078125E-09;0,5501708984375;9;651;6,9565549492836E-08;-6,32743164896965E-08;100 nA
0,6005859375;333,217355158707;5,8746337890625E-09;0,60009765625;9;652;6,9565549492836E-08;-6,32743164896965E-08;100 nA
0,650634765625;333,717843157443;5,5145263671875E-09;0,650054931640625;9;653;6,9565549492836E-08;-6,32743164896965E-08;100 nA
0,70068359375;334,21833115618;5,224609375E-09;0,700042724609375;9;654;6,9565549492836E-08;-6,32743164896965E-08;100 nA
0,750732421875;334,718819154916;4,931640625E-09;0,7498779296875;9;655;6,9565549492836E-08;-6,32743164896965E-08;100 nA
0,80078125;335,219307153653;4,669189453125E-09;0,79986572265625;9;656;6,9565549492836E-08;-6,32743164896965E-08;100 nA
0,850830078125;335,719795152389;4,425048828125E-09;0,84991455078125;9;657;6,9565549492836E-08;-6,32743164896965E-08;100 nA
0,90087890625;336,220283151125;4,2388916015625E-09;0,89996337890625;9;658;6,9565549492836E-08;-6,32743164896965E-08;100 nA
0,950927734375;336,720771149862;4,119873046875E-09;0,94970703125;9;659;6,9565549492836E-08;-6,32743164896965E-08;100 nA
1,0009765625;337,221259148598;4,11376953125E-09;0,9991455078125;9;660;6,9565549492836E-08;-6,32743164896965E-08;100 nA
0,950927734375;337,721747147335;2,03857421875E-09;0,95001220703125;9;661;6,9565549492836E-08;-6,32743164896965E-08;100 nA
0,90087890625;338,222235146071;1,055908203125E-09;0,89935302734375;9;662;6,9565549492836E-08;-6,32743164896965E-08;100 nA
0,850830078125;338,722723144807;4,608154296875E-10;0,84991455078125;9;663;6,9565549492836E-08;-6,32743164896965E-08;100 nA
0,80078125;339,223211143544;9,765625E-11;0,79986572265625;9;664;6,9565549492836E-08;-6,32743164896965E-08;100 nA
0,750732421875;339,72369914228;-1,373291015625E-10;0,749908447265625;9;665;6,9565549492836E-08;-6,32743164896965E-08;100 nA
0,70068359375;340,224187141017;-4,302978515625E-10;0,700042724609375;9;666;6,9565549492836E-08;-6,32743164896965E-08;100 nA
0,650634765625;340,724675139753;-6,2255859375E-10;0,650146484375;9;667;6,9565549492836E-08;-6,32743164896965E-08;100 nA
0,6005859375;341,225163138489;-9,002685546875E-10;0,600189208984375;9;668;6,9565549492836E-08;-6,32743164896965E-08;100 nA
0,550537109375;341,725651137226;-1,251220703125E-09;0,550140380859375;9;669;6,9565549492836E-08;-6,32743164896965E-08;100 nA
0,50048828125;342,226139135962;-1,6998291015625E-09;0,50018310546875;9;670;6,9565549492836E-08;-6,32743164896965E-08;100 nA
0,450439453125;342,726627134698;-2,1728515625E-09;0,450164794921875;9;671;6,9565549492836E-08;-6,32743164896965E-08;100 nA
0,400390625;343,227115133435;-2,6824951171875E-09;0,400146484375;9;672;6,9565549492836E-08;-6,32743164896965E-08;100 nA
0,350341796875;343,727603132171;-3,277587890625E-09;0,350189208984375;9;673;6,9565549492836E-08;-6,32743164896965E-08;100 nA
0,30029296875;344,228091130908;-3,8238525390625E-09;0,300048828125;9;674;6,9565549492836E-08;-6,32743164896965E-08;100 nA
0,250244140625;344,728579129644;-4,1656494140625E-09;0,250152587890625;9;675;6,9565549492836E-08;-6,32743164896965E-08;100 nA
0,2001953125;345,22906712838;-4,486083984375E-09;0,200042724609375;9;676;6,9565549492836E-08;-6,32743164896965E-08;100 nA
0,150146484375;345,729555127117;-4,7821044921875E-09;0,15008544921875;9;677;6,9565549492836E-08;-6,32743164896965E-08;100 nA
0,10009765625;346,230043125853;-5,1544189453125E-09;0,10009765625;9;678;6,9565549492836E-08;-6,32743164896965E-08;100 nA
0,050048828125;346,73053112459;-5,5999755859375E-09;0,05010986328125;9;679;6,9565549492836E-08;-6,32743164896965E-08;100 nA
0;347,231019123326;-7,2357177734375E-09;0,000131225585937506;9;680;6,9565549492836E-08;-6,32743164896965E-08;100 nA
-0,050048828125;347,731507122062;-1,10748291015625E-08;-0,049774169921875;9;681;6,9565549492836E-08;-6,32743164896965E-08;100 nA
-0,10009765625;348,231995120799;-1,07757568359375E-08;-0,09967041015625;9;682;6,9565549492836E-08;-6,32743164896965E-08;100 nA
-0,150146484375;348,732483119535;-6,5521240234375E-09;-0,14959716796875;9;683;6,9565549492836E-08;-6,32743164896965E-08;100 nA
-0,2001953125;349,232971118272;-3,45458984375E-09;-0,199493408203125;9;684;6,9565549492836E-08;-6,32743164896965E-08;100 nA
-0,250244140625;349,733459117008;-2,5146484375E-09;-0,2493896484375;9;685;6,9565549492836E-08;-6,32743164896965E-08;100 nA
-0,30029296875;350,233947115744;-2,545166015625E-09;-0,299285888671875;9;686;6,9565549492836E-08;-6,32743164896965E-08;100 nA
-0,350341796875;350,734435114481;-2,77099609375E-09;-0,3492431640625;9;687;6,9565549492836E-08;-6,32743164896965E-08;100 nA
-0,400390625;351,234923113217;-3,0548095703125E-09;-0,399078369140625;9;688;6,9565549492836E-08;-6,32743164896965E-08;100 nA
-0,450439453125;351,735411111953;-3,2135009765625E-09;-0,448974609375;9;689;6,9565549492836E-08;-6,32743164896965E-08;100 nA
-0,50048828125;352,23589911069;-3,1219482421875E-09;-0,498870849609375;9;690;6,9565549492836E-08;-6,32743164896965E-08;100 nA
-0,550537109375;352,736387109426;-2,9296875E-09;-0,548797607421875;9;691;6,9565549492836E-08;-6,32743164896965E-08;100 nA
-0,6005859375;353,236875108163;-2,777099609375E-09;-0,59869384765625;9;692;6,9565549492836E-08;-6,32743164896965E-08;100 nA
-0,650634765625;353,737363106899;-2,6336669921875E-09;-0,64862060546875;9;693;6,9565549492836E-08;-6,32743164896965E-08;100 nA
-0,70068359375;354,237851105635;-2,5177001953125E-09;-0,698638916015625;9;694;6,9565549492836E-08;-6,32743164896965E-08;100 nA
-0,750732421875;354,738339104372;-2,4688720703125E-09;-0,748626708984375;9;695;6,9565549492836E-08;-6,32743164896965E-08;100 nA
-0,80078125;355,238827103108;-2,4658203125E-09;-0,7989501953125;9;696;6,9565549492836E-08;-6,32743164896965E-08;100 nA
-0,850830078125;355,739315101845;-2,42919921875E-09;-0,84930419921875;9;697;6,9565549492836E-08;-6,32743164896965E-08;100 nA
-0,90087890625;356,239803100581;-2,374267578125E-09;-0,89874267578125;9;698;6,9565549492836E-08;-6,32743164896965E-08;100 nA
-0,950927734375;356,740291099317;-2,3468017578125E-09;-0,94879150390625;9;699;6,9565549492836E-08;-6,32743164896965E-08;100 nA
-1,0009765625;357,240779098054;-2,4200439453125E-09;-0,99945068359375;9;700;6,9565549492836E-08;-6,32743164896965E-08;100 nA
-0,950927734375;357,74126709679;-1,4404296875E-09;-0,94879150390625;9;701;6,9565549492836E-08;-6,32743164896965E-08;100 nA
-0,90087890625;358,241755095527;-9,613037109375E-10;-0,8984375;9;702;6,9565549492836E-08;-6,32743164896965E-08;100 nA
-0,850830078125;358,742243094263;-6,500244140625E-10;-0,848388671875;9;703;6,9565549492836E-08;-6,32743164896965E-08;100 nA
-0,80078125;359,242731092999;-3,41796875E-10;-0,7989501953125;9;704;6,9565549492836E-08;-6,32743164896965E-08;100 nA
-0,750732421875;359,743219091736;-1,678466796875E-10;-0,74859619140625;9;705;6,9565549492836E-08;-6,32743164896965E-08;100 nA
-0,70068359375;360,243707090472;9,1552734375E-12;-0,698638916015625;9;706;6,9565549492836E-08;-6,32743164896965E-08;100 nA
-0,650634765625;360,744195089208;2,197265625E-10;-0,648651123046875;9;707;6,9565549492836E-08;-6,32743164896965E-08;100 nA
-0,6005859375;361,244683087945;4,2724609375E-10;-0,598663330078125;9;708;6,9565549492836E-08;-6,32743164896965E-08;100 nA
-0,550537109375;361,745171086681;6,561279296875E-10;-0,548797607421875;9;709;6,9565549492836E-08;-6,32743164896965E-08;100 nA
-0,50048828125;362,245659085418;9,307861328125E-10;-0,498870849609375;9;710;6,9565549492836E-08;-6,32743164896965E-08;100 nA
-0,450439453125;362,746147084154;1,422119140625E-09;-0,448944091796875;9;711;6,9565549492836E-08;-6,32743164896965E-08;100 nA
-0,400390625;363,24663508289;2,1820068359375E-09;-0,399169921875;9;712;6,9565549492836E-08;-6,32743164896965E-08;100 nA
-0,350341796875;363,747123081627;2,6092529296875E-09;-0,3492431640625;9;713;6,9565549492836E-08;-6,32743164896965E-08;100 nA
-0,30029296875;364,247611080363;2,5634765625E-09;-0,299346923828125;9;714;6,9565549492836E-08;-6,32743164896965E-08;100 nA
-0,250244140625;364,7480990791;2,532958984375E-09;-0,2493896484375;9;715;6,9565549492836E-08;-6,32743164896965E-08;100 nA
-0,2001953125;365,248587077836;2,5421142578125E-09;-0,19952392578125;9;716;6,9565549492836E-08;-6,32743164896965E-08;100 nA
-0,150146484375;365,749075076572;2,557373046875E-09;-0,149627685546875;9;717;6,9565549492836E-08;-6,32743164896965E-08;100 nA
-0,10009765625;366,249563075309;2,72216796875E-09;-0,0997314453125;9;718;6,9565549492836E-08;-6,32743164896965E-08;100 nA
-0,050048828125;366,750051074045;3,485107421875E-09;-0,0498046875;9;719;6,9565549492836E-08;-6,32743164896965E-08;100 nA
0;367,250539072782;5,17578125E-09;0,000103759765625003;9;720;6,9565549492836E-08;-6,32743164896965E-08;100 nA
0,050048828125;367,751027071518;4,96826171875E-09;0,04998779296875;10;721;6,96969032287597E-08;-6,30956143140793E-08;100 nA
0,10009765625;368,251515070254;4,7332763671875E-09;0,10003662109375;10;722;6,96969032287597E-08;-6,30956143140793E-08;100 nA
0,150146484375;368,752003068991;4,925537109375E-09;0,150115966796875;10;723;6,96969032287597E-08;-6,30956143140793E-08;100 nA
0,2001953125;369,252491067727;5,16357421875E-09;0,2000732421875;10;724;6,96969032287597E-08;-6,30956143140793E-08;100 nA
0,250244140625;369,752979066463;5,419921875E-09;0,25006103515625;10;725;6,96969032287597E-08;-6,30956143140793E-08;100 nA
0,30029296875;370,2534670652;5,7037353515625E-09;0,300048828125;10;726;6,96969032287597E-08;-6,30956143140793E-08;100 nA
0,350341796875;370,753955063936;5,9417724609375E-09;0,350067138671875;10;727;6,96969032287597E-08;-6,30956143140793E-08;100 nA
0,400390625;371,254443062673;6,2103271484375E-09;0,40008544921875;10;728;6,96969032287597E-08;-6,30956143140793E-08;100 nA
0,450439453125;371,754931061409;6,35986328125E-09;0,450103759765625;10;729;6,96969032287597E-08;-6,30956143140793E-08;100 nA
0,50048828125;372,255419060145;6,31103515625E-09;0,5001220703125;10;730;6,96969032287597E-08;-6,30956143140793E-08;100 nA
0,550537109375;372,755907058882;6,146240234375E-09;0,550079345703125;10;731;6,96969032287597E-08;-6,30956143140793E-08;100 nA
0,6005859375;373,256395057618;5,8380126953125E-09;0,600128173828125;10;732;6,96969032287597E-08;-6,30956143140793E-08;100 nA
0,650634765625;373,756883056355;5,5206298828125E-09;0,65008544921875;10;733;6,96969032287597E-08;-6,30956143140793E-08;100 nA
0,70068359375;374,257371055091;5,145263671875E-09;0,699951171875;10;734;6,96969032287597E-08;-6,30956143140793E-08;100 nA
0,750732421875;374,757859053827;4,864501953125E-09;0,749847412109375;10;735;6,96969032287597E-08;-6,30956143140793E-08;100 nA
0,80078125;375,258347052564;4,57763671875E-09;0,8001708984375;10;736;6,96969032287597E-08;-6,30956143140793E-08;100 nA
0,850830078125;375,7588350513;4,39453125E-09;0,849609375;10;737;6,96969032287597E-08;-6,30956143140793E-08;100 nA
0,90087890625;376,259323050037;4,2327880859375E-09;0,89935302734375;10;738;6,96969032287597E-08;-6,30956143140793E-08;100 nA
0,950927734375;376,759811048773;4,150390625E-09;0,94970703125;10;739;6,96969032287597E-08;-6,30956143140793E-08;100 nA
1,0009765625;377,260299047509;4,11376953125E-09;0,999755859375;10;740;6,96969032287597E-08;-6,30956143140793E-08;100 nA
0,950927734375;377,760787046246;2,03857421875E-09;0,95001220703125;10;741;6,96969032287597E-08;-6,30956143140793E-08;100 nA
0,90087890625;378,261275044982;1,0162353515625E-09;0,899658203125;10;742;6,96969032287597E-08;-6,30956143140793E-08;100 nA
0,850830078125;378,761763043718;4,302978515625E-10;0,84991455078125;10;743;6,96969032287597E-08;-6,30956143140793E-08;100 nA
0,80078125;379,262251042455;7,9345703125E-11;0,8001708984375;10;744;6,96969032287597E-08;-6,30956143140793E-08;100 nA
0,750732421875;379,762739041191;-1,40380859375E-10;0,749969482421875;10;745;6,96969032287597E-08;-6,30956143140793E-08;100 nA
0,70068359375;380,263227039928;-4,180908203125E-10;0,70001220703125;10;746;6,96969032287597E-08;-6,30956143140793E-08;100 nA
0,650634765625;380,763715038664;-6,103515625E-10;0,650054931640625;10;747;6,96969032287597E-08;-6,30956143140793E-08;100 nA
0,6005859375;381,2642030374;-8,85009765625E-10;0,600189208984375;10;748;6,96969032287597E-08;-6,30956143140793E-08;100 nA
0,550537109375;381,764691036137;-1,2359619140625E-09;0,5501708984375;10;749;6,96969032287597E-08;-6,30956143140793E-08;100 nA
0,50048828125;382,265179034873;-1,66015625E-09;0,500152587890625;10;750;6,96969032287597E-08;-6,30956143140793E-08;100 nA
0,450439453125;382,76566703361;-2,081298828125E-09;0,4501953125;10;751;6,96969032287597E-08;-6,30956143140793E-08;100 nA
0,400390625;383,266155032346;-2,618408203125E-09;0,400146484375;10;752;6,96969032287597E-08;-6,30956143140793E-08;100 nA
0,350341796875;383,766643031082;-3,2257080078125E-09;0,3502197265625;10;753;6,96969032287597E-08;-6,30956143140793E-08;100 nA
0,30029296875;384,267131029819;-3,7017822265625E-09;0,300201416015625;10;754;6,96969032287597E-08;-6,30956143140793E-08;100 nA
0,250244140625;384,767619028555;-4,0618896484375E-09;0,250213623046875;10;755;6,96969032287597E-08;-6,30956143140793E-08;100 nA
0,2001953125;385,268107027292;-4,3975830078125E-09;0,200164794921875;10;756;6,96969032287597E-08;-6,30956143140793E-08;100 nA
0,150146484375;385,768595026028;-4,5562744140625E-09;0,150115966796875;10;757;6,96969032287597E-08;-6,30956143140793E-08;100 nA
0,10009765625;386,269083024764;-5,029296875E-09;0,100128173828125;10;758;6,96969032287597E-08;-6,30956143140793E-08;100 nA
0,050048828125;386,769571023501;-5,560302734375E-09;0,050079345703125;10;759;6,96969032287597E-08;-6,30956143140793E-08;100 nA
0;387,270059022237;-7,1044921875E-09;0,000158691406249994;10;760;6,96969032287597E-08;-6,30956143140793E-08;100 nA
-0,050048828125;387,770547020973;-1,10076904296875E-08;-0,0497100830078125;10;761;6,96969032287597E-08;-6,30956143140793E-08;100 nA
-0,10009765625;388,27103501971;-1,077880859375E-08;-0,099700927734375;10;762;6,96969032287597E-08;-6,30956143140793E-08;100 nA
-0,150146484375;388,771523018446;-6,48193359375E-09;-0,149566650390625;10;763;6,96969032287597E-08;-6,30956143140793E-08;100 nA
-0,2001953125;389,272011017183;-3,466796875E-09;-0,199493408203125;10;764;6,96969032287597E-08;-6,30956143140793E-08;100 nA
-0,250244140625;389,772499015919;-2,55126953125E-09;-0,249359130859375;10;765;6,96969032287597E-08;-6,30956143140793E-08;100 nA
-0,30029296875;390,272987014655;-2,587890625E-09;-0,299346923828125;10;766;6,96969032287597E-08;-6,30956143140793E-08;100 nA
-0,350341796875;390,773475013392;-2,8472900390625E-09;-0,3492431640625;10;767;6,96969032287597E-08;-6,30956143140793E-08;100 nA
-0,400390625;391,273963012128;-3,1524658203125E-09;-0,399139404296875;10;768;6,96969032287597E-08;-6,30956143140793E-08;100 nA
-0,450439453125;391,774451010865;-3,271484375E-09;-0,448974609375;10;769;6,96969032287597E-08;-6,30956143140793E-08;100 nA
-0,50048828125;392,274939009601;-3,1707763671875E-09;-0,4989013671875;10;770;6,96969032287597E-08;-6,30956143140793E-08;100 nA
-0,550537109375;392,775427008337;-2,972412109375E-09;-0,548858642578125;10;771;6,96969032287597E-08;-6,30956143140793E-08;100 nA
-0,6005859375;393,275915007074;-2,8228759765625E-09;-0,598724365234375;10;772;6,96969032287597E-08;-6,30956143140793E-08;100 nA
-0,650634765625;393,77640300581;-2,752685546875E-09;-0,648651123046875;10;773;6,96969032287597E-08;-6,30956143140793E-08;100 nA
-0,70068359375;394,276891004547;-2,5787353515625E-09;-0,6986083984375;10;774;6,96969032287597E-08;-6,30956143140793E-08;100 nA
-0,750732421875;394,777379003283;-2,5482177734375E-09;-0,7486572265625;10;775;6,96969032287597E-08;-6,30956143140793E-08;100 nA
-0,80078125;395,277867002019;-2,484130859375E-09;-0,79833984375;10;776;6,96969032287597E-08;-6,30956143140793E-08;100 nA
-0,850830078125;395,778355000756;-2,447509765625E-09;-0,84869384765625;10;777;6,96969032287597E-08;-6,30956143140793E-08;100 nA
-0,90087890625;396,278842999492;-2,3956298828125E-09;-0,8990478515625;10;778;6,96969032287597E-08;-6,30956143140793E-08;100 nA
-0,950927734375;396,779330998228;-2,4139404296875E-09;-0,94879150390625;10;779;6,96969032287597E-08;-6,30956143140793E-08;100 nA
-1,0009765625;397,279818996965;-2,4444580078125E-09;-0,99853515625;10;780;6,96969032287597E-08;-6,30956143140793E-08;100 nA
-0,950927734375;397,780306995701;-1,4892578125E-09;-0,9490966796875;10;781;6,96969032287597E-08;-6,30956143140793E-08;100 nA
-0,90087890625;398,280794994438;-9,8876953125E-10;-0,8984375;10;782;6,96969032287597E-08;-6,30956143140793E-08;100 nA
-0,850830078125;398,781282993174;-6,103515625E-10;-0,8489990234375;10;783;6,96969032287597E-08;-6,30956143140793E-08;100 nA
-0,80078125;399,28177099191;-3,47900390625E-10;-0,7989501953125;10;784;6,96969032287597E-08;-6,30956143140793E-08;100 nA
-0,750732421875;399,782258990647;-1,617431640625E-10;-0,748565673828125;10;785;6,96969032287597E-08;-6,30956143140793E-08;100 nA
-0,70068359375;400,282746989383;-6,103515625E-12;-0,6986083984375;10;786;6,96969032287597E-08;-6,30956143140793E-08;100 nA
-0,650634765625;400,78323498812;2,105712890625E-10;-0,648590087890625;10;787;6,96969032287597E-08;-6,30956143140793E-08;100 nA
-0,6005859375;401,283722986856;4,57763671875E-10;-0,598724365234375;10;788;6,96969032287597E-08;-6,30956143140793E-08;100 nA
-0,550537109375;401,784210985592;6,439208984375E-10;-0,548736572265625;10;789;6,96969032287597E-08;-6,30956143140793E-08;100 nA
-0,50048828125;402,284698984329;9,70458984375E-10;-0,4989013671875;10;790;6,96969032287597E-08;-6,30956143140793E-08;100 nA
-0,450439453125;402,785186983065;1,4801025390625E-09;-0,448944091796875;10;791;6,96969032287597E-08;-6,30956143140793E-08;100 nA
-0,400390625;403,285674981802;2,2216796875E-09;-0,399078369140625;10;792;6,96969032287597E-08;-6,30956143140793E-08;100 nA
-0,350341796875;403,786162980538;2,6947021484375E-09;-0,349151611328125;10;793;6,96969032287597E-08;-6,30956143140793E-08;100 nA
-0,30029296875;404,286650979274;2,685546875E-09;-0,29925537109375;10;794;6,96969032287597E-08;-6,30956143140793E-08;100 nA
-0,250244140625;404,787138978011;2,630615234375E-09;-0,249420166015625;10;795;6,96969032287597E-08;-6,30956143140793E-08;100 nA
-0,2001953125;405,287626976747;2,6763916015625E-09;-0,199493408203125;10;796;6,96969032287597E-08;-6,30956143140793E-08;100 nA
-0,150146484375;405,788114975484;2,64892578125E-09;-0,14959716796875;10;797;6,96969032287597E-08;-6,30956143140793E-08;100 nA
-0,10009765625;406,28860297422;2,81982421875E-09;-0,099639892578125;10;798;6,96969032287597E-08;-6,30956143140793E-08;100 nA
-0,050048828125;406,789090972956;3,55224609375E-09;-0,0498046875;10;799;6,96969032287597E-08;-6,30956143140793E-08;100 nA
0;407,289578971693;5,279541015625E-09;9,46044921874972E-05;10;800;6,96969032287597E-08;-6,30956143140793E-08;100 nA
