Potential applied (V);Time (s);WE(1).Current (A);WE(1).Potential (V);Scan;Index;Q+;Q-;Current range
0,050048828125;7,3798789813676;3,30810546875E-09;0,050140380859375;1;1;9,65434685349464E-08;-1,17167532444E-07;100 nA
0,10009765625;7,88036698010399;3,887939453125E-09;0,10009765625;1;2;9,65434685349464E-08;-1,17167532444E-07;100 nA
0,150146484375;8,38085497884038;4,11376953125E-09;0,150054931640625;1;3;9,65434685349464E-08;-1,17167532444E-07;100 nA
0,2001953125;8,88134297757676;4,5684814453125E-09;0,200042724609375;1;4;9,65434685349464E-08;-1,17167532444E-07;100 nA
0,250244140625;9,38183097631315;5,279541015625E-09;0,25018310546875;1;5;9,65434685349464E-08;-1,17167532444E-07;100 nA
0,30029296875;9,88231897504954;5,9051513671875E-09;0,300048828125;1;6;9,65434685349464E-08;-1,17167532444E-07;100 nA
0,350341796875;10,3828069737859;6,658935546875E-09;0,35009765625;1;7;9,65434685349464E-08;-1,17167532444E-07;100 nA
0,400390625;10,8832949725223;7,415771484375E-09;0,40008544921875;1;8;9,65434685349464E-08;-1,17167532444E-07;100 nA
0,450439453125;11,3837829712587;6,7626953125E-09;0,45013427734375;1;9;9,65434685349464E-08;-1,17167532444E-07;100 nA
0,50048828125;11,8842709699951;8,148193359375E-09;0,50006103515625;1;10;9,65434685349464E-08;-1,17167532444E-07;100 nA
0,550537109375;12,3847589687315;8,2733154296875E-09;0,550079345703125;1;11;9,65434685349464E-08;-1,17167532444E-07;100 nA
0,6005859375;12,8852469674679;8,26416015625E-09;0,60015869140625;1;12;9,65434685349464E-08;-1,17167532444E-07;100 nA
0,650634765625;13,3857349662043;7,9864501953125E-09;0,650054931640625;1;13;9,65434685349464E-08;-1,17167532444E-07;100 nA
0,70068359375;13,8862229649407;7,7239990234375E-09;0,699981689453125;1;14;9,65434685349464E-08;-1,17167532444E-07;100 nA
0,750732421875;14,386710963677;7,4371337890625E-09;0,749908447265625;1;15;9,65434685349464E-08;-1,17167532444E-07;100 nA
0,80078125;14,8871989624134;7,2113037109375E-09;0,79986572265625;1;16;9,65434685349464E-08;-1,17167532444E-07;100 nA
0,850830078125;15,3876869611498;7,03125E-09;0,849609375;1;17;9,65434685349464E-08;-1,17167532444E-07;100 nA
0,90087890625;15,8881749598862;6,87255859375E-09;0,899658203125;1;18;9,65434685349464E-08;-1,17167532444E-07;100 nA
0,950927734375;16,3886629586226;6,768798828125E-09;0,95001220703125;1;19;9,65434685349464E-08;-1,17167532444E-07;100 nA
1,0009765625;16,889150957359;6,7230224609375E-09;0,99945068359375;1;20;9,65434685349464E-08;-1,17167532444E-07;100 nA
0,950927734375;17,3896389560954;3,668212890625E-09;0,94940185546875;1;21;9,65434685349464E-08;-1,17167532444E-07;100 nA
0,90087890625;17,8901269548318;2,1270751953125E-09;0,899658203125;1;22;9,65434685349464E-08;-1,17167532444E-07;100 nA
0,850830078125;18,3906149535682;1,1688232421875E-09;0,849609375;1;23;9,65434685349464E-08;-1,17167532444E-07;100 nA
0,80078125;18,8911029523046;4,33349609375E-10;0,8001708984375;1;24;9,65434685349464E-08;-1,17167532444E-07;100 nA
0,750732421875;19,3915909510409;-1,434326171875E-10;0,749908447265625;1;25;9,65434685349464E-08;-1,17167532444E-07;100 nA
0,70068359375;19,8920789497773;-7,659912109375E-10;0,70001220703125;1;26;9,65434685349464E-08;-1,17167532444E-07;100 nA
0,650634765625;20,3925669485137;-1,4801025390625E-09;0,650115966796875;1;27;9,65434685349464E-08;-1,17167532444E-07;100 nA
0,6005859375;20,8930549472501;-2,197265625E-09;0,600128173828125;1;28;9,65434685349464E-08;-1,17167532444E-07;100 nA
0,550537109375;21,3935429459865;-2,9693603515625E-09;0,5501708984375;1;29;9,65434685349464E-08;-1,17167532444E-07;100 nA
0,50048828125;21,8940309447229;-3,753662109375E-09;0,500091552734375;1;30;9,65434685349464E-08;-1,17167532444E-07;100 nA
0,450439453125;22,3945189434593;-4,4525146484375E-09;0,4501953125;1;31;9,65434685349464E-08;-1,17167532444E-07;100 nA
0,400390625;22,8950069421957;-5,0872802734375E-09;0,400177001953125;1;32;9,65434685349464E-08;-1,17167532444E-07;100 nA
0,350341796875;23,3954949409321;-5,6976318359375E-09;0,350189208984375;1;33;9,65434685349464E-08;-1,17167532444E-07;100 nA
0,30029296875;23,8959829396684;-6,182861328125E-09;0,300140380859375;1;34;9,65434685349464E-08;-1,17167532444E-07;100 nA
0,250244140625;24,3964709384048;-6,4971923828125E-09;0,2501220703125;1;35;9,65434685349464E-08;-1,17167532444E-07;100 nA
0,2001953125;24,8969589371412;-6,8023681640625E-09;0,20013427734375;1;36;9,65434685349464E-08;-1,17167532444E-07;100 nA
0,150146484375;25,3974469358776;-7,1136474609375E-09;0,150146484375;1;37;9,65434685349464E-08;-1,17167532444E-07;100 nA
0,10009765625;25,897934934614;-7,586669921875E-09;0,10015869140625;1;38;9,65434685349464E-08;-1,17167532444E-07;100 nA
0,050048828125;26,3984229333504;-8,514404296875E-09;0,050140380859375;1;39;9,65434685349464E-08;-1,17167532444E-07;100 nA
0;26,8989109320868;-1,04583740234375E-08;0,000164794921875003;1;40;9,65434685349464E-08;-1,17167532444E-07;100 nA
-0,050048828125;27,3993989308232;-1,35406494140625E-08;-0,049713134765625;1;41;9,65434685349464E-08;-1,17167532444E-07;100 nA
-0,10009765625;27,8998869295596;-1,6259765625E-08;-0,0997314453125;1;42;9,65434685349464E-08;-1,17167532444E-07;100 nA
-0,150146484375;28,4003749282959;-1,65771484375E-08;-0,149566650390625;1;43;9,65434685349464E-08;-1,17167532444E-07;100 nA
-0,2001953125;28,9008629270323;-1,29425048828125E-08;-0,199432373046875;1;44;9,65434685349464E-08;-1,17167532444E-07;100 nA
-0,250244140625;29,4013509257687;-6,4483642578125E-09;-0,249359130859375;1;45;9,65434685349464E-08;-1,17167532444E-07;100 nA
-0,30029296875;29,9018389245051;-5,2398681640625E-09;-0,299285888671875;1;46;9,65434685349464E-08;-1,17167532444E-07;100 nA
-0,350341796875;30,4023269232415;-5,377197265625E-09;-0,34918212890625;1;47;9,65434685349464E-08;-1,17167532444E-07;100 nA
-0,400390625;30,9028149219779;-5,6365966796875E-09;-0,39910888671875;1;48;9,65434685349464E-08;-1,17167532444E-07;100 nA
-0,450439453125;31,4033029207143;-5,7342529296875E-09;-0,448974609375;1;49;9,65434685349464E-08;-1,17167532444E-07;100 nA
-0,50048828125;31,9037909194507;-5,7586669921875E-09;-0,498870849609375;1;50;9,65434685349464E-08;-1,17167532444E-07;100 nA
-0,550537109375;32,4042789181871;-5,7861328125E-09;-0,548797607421875;1;51;9,65434685349464E-08;-1,17167532444E-07;100 nA
-0,6005859375;32,9047669169235;-5,828857421875E-09;-0,5986328125;1;52;9,65434685349464E-08;-1,17167532444E-07;100 nA
-0,650634765625;33,4052549156598;-5,7952880859375E-09;-0,64862060546875;1;53;9,65434685349464E-08;-1,17167532444E-07;100 nA
-0,70068359375;33,9057429143962;-5,706787109375E-09;-0,698638916015625;1;54;9,65434685349464E-08;-1,17167532444E-07;100 nA
-0,750732421875;34,4062309131326;-5,5328369140625E-09;-0,74859619140625;1;55;9,65434685349464E-08;-1,17167532444E-07;100 nA
-0,80078125;34,906718911869;-5,377197265625E-09;-0,7989501953125;1;56;9,65434685349464E-08;-1,17167532444E-07;100 nA
-0,850830078125;35,4072069106054;-5,279541015625E-09;-0,848388671875;1;57;9,65434685349464E-08;-1,17167532444E-07;100 nA
-0,90087890625;35,9076949093418;-5,1849365234375E-09;-0,8984375;1;58;9,65434685349464E-08;-1,17167532444E-07;100 nA
-0,950927734375;36,4081829080782;-5,1361083984375E-09;-0,948486328125;1;59;9,65434685349464E-08;-1,17167532444E-07;100 nA
-1,0009765625;36,9086709068146;-5,169677734375E-09;-0,99884033203125;1;60;9,65434685349464E-08;-1,17167532444E-07;100 nA
-0,950927734375;37,409158905551;-2,862548828125E-09;-0,94879150390625;1;61;9,65434685349464E-08;-1,17167532444E-07;100 nA
-0,90087890625;37,9096469042873;-1,7059326171875E-09;-0,89874267578125;1;62;9,65434685349464E-08;-1,17167532444E-07;100 nA
-0,850830078125;38,4101349030237;-9,82666015625E-10;-0,848388671875;1;63;9,65434685349464E-08;-1,17167532444E-07;100 nA
-0,80078125;38,9106229017601;-4,638671875E-10;-0,79864501953125;1;64;9,65434685349464E-08;-1,17167532444E-07;100 nA
-0,750732421875;39,4111109004965;-7,62939453125E-11;-0,74859619140625;1;65;9,65434685349464E-08;-1,17167532444E-07;100 nA
-0,70068359375;39,9115988992329;2,8076171875E-10;-0,698577880859375;1;66;9,65434685349464E-08;-1,17167532444E-07;100 nA
-0,650634765625;40,4120868979693;6,927490234375E-10;-0,648681640625;1;67;9,65434685349464E-08;-1,17167532444E-07;100 nA
-0,6005859375;40,9125748967057;1,1383056640625E-09;-0,59869384765625;1;68;9,65434685349464E-08;-1,17167532444E-07;100 nA
-0,550537109375;41,4130628954421;1,5899658203125E-09;-0,548797607421875;1;69;9,65434685349464E-08;-1,17167532444E-07;100 nA
-0,50048828125;41,9135508941785;2,0904541015625E-09;-0,4989013671875;1;70;9,65434685349464E-08;-1,17167532444E-07;100 nA
-0,450439453125;42,4140388929148;2,72216796875E-09;-0,448944091796875;1;71;9,65434685349464E-08;-1,17167532444E-07;100 nA
-0,400390625;42,9145268916512;3,485107421875E-09;-0,399169921875;1;72;9,65434685349464E-08;-1,17167532444E-07;100 nA
-0,350341796875;43,4150148903876;4,1595458984375E-09;-0,349212646484375;1;73;9,65434685349464E-08;-1,17167532444E-07;100 nA
-0,30029296875;43,915502889124;4,449462890625E-09;-0,29931640625;1;74;9,65434685349464E-08;-1,17167532444E-07;100 nA
-0,250244140625;44,4159908878604;4,583740234375E-09;-0,24945068359375;1;75;9,65434685349464E-08;-1,17167532444E-07;100 nA
-0,2001953125;44,9164788865968;4,6875E-09;-0,199554443359375;1;76;9,65434685349464E-08;-1,17167532444E-07;100 nA
-0,150146484375;45,4169668853332;4,8431396484375E-09;-0,149627685546875;1;77;9,65434685349464E-08;-1,17167532444E-07;100 nA
-0,10009765625;45,9174548840696;5,2734375E-09;-0,099761962890625;1;78;9,65434685349464E-08;-1,17167532444E-07;100 nA
-0,050048828125;46,417942882806;6,4849853515625E-09;-0,049835205078125;1;79;9,65434685349464E-08;-1,17167532444E-07;100 nA
0;46,9184308815423;8,67919921875E-09;9,1552734375E-05;1;80;9,65434685349464E-08;-1,17167532444E-07;100 nA
0,050048828125;47,4189188802787;1,13494873046875E-08;0,050018310546875;2;81;1,19418874382973E-07;-1,16784162819386E-07;100 nA
0,10009765625;47,9194068790151;1,041259765625E-08;0,100006103515625;2;82;1,19418874382973E-07;-1,16784162819386E-07;100 nA
0,150146484375;48,4198948777515;9,1217041015625E-09;0,149993896484375;2;83;1,19418874382973E-07;-1,16784162819386E-07;100 nA
0,2001953125;48,9203828764879;8,6456298828125E-09;0,199981689453125;2;84;1,19418874382973E-07;-1,16784162819386E-07;100 nA
0,250244140625;49,4208708752243;8,7371826171875E-09;0,25006103515625;2;85;1,19418874382973E-07;-1,16784162819386E-07;100 nA
0,30029296875;49,9213588739607;8,9141845703125E-09;0,300018310546875;2;86;1,19418874382973E-07;-1,16784162819386E-07;100 nA
0,350341796875;50,4218468726971;9,0911865234375E-09;0,350067138671875;2;87;1,19418874382973E-07;-1,16784162819386E-07;100 nA
0,400390625;50,9223348714335;9,2559814453125E-09;0,40008544921875;2;88;1,19418874382973E-07;-1,16784162819386E-07;100 nA
0,450439453125;51,4228228701699;9,33837890625E-09;0,4500732421875;2;89;1,19418874382973E-07;-1,16784162819386E-07;100 nA
0,50048828125;51,9233108689062;9,356689453125E-09;0,5001220703125;2;90;1,19418874382973E-07;-1,16784162819386E-07;100 nA
0,550537109375;52,4237988676426;9,2620849609375E-09;0,550048828125;2;91;1,19418874382973E-07;-1,16784162819386E-07;100 nA
0,6005859375;52,924286866379;9,051513671875E-09;0,60009765625;2;92;1,19418874382973E-07;-1,16784162819386E-07;100 nA
0,650634765625;53,4247748651154;8,65478515625E-09;0,650054931640625;2;93;1,19418874382973E-07;-1,16784162819386E-07;100 nA
0,70068359375;53,9252628638518;8,2916259765625E-09;0,699920654296875;2;94;1,19418874382973E-07;-1,16784162819386E-07;100 nA
0,750732421875;54,4257508625882;7,9833984375E-09;0,749847412109375;2;95;1,19418874382973E-07;-1,16784162819386E-07;100 nA
0,80078125;54,9262388613246;7,672119140625E-09;0,8001708984375;2;96;1,19418874382973E-07;-1,16784162819386E-07;100 nA
0,850830078125;55,426726860061;7,4462890625E-09;0,84991455078125;2;97;1,19418874382973E-07;-1,16784162819386E-07;100 nA
0,90087890625;55,9272148587974;7,275390625E-09;0,89935302734375;2;98;1,19418874382973E-07;-1,16784162819386E-07;100 nA
0,950927734375;56,4277028575337;7,1746826171875E-09;0,94970703125;2;99;1,19418874382973E-07;-1,16784162819386E-07;100 nA
1,0009765625;56,9281908562701;7,1258544921875E-09;0,999755859375;2;100;1,19418874382973E-07;-1,16784162819386E-07;100 nA
0,950927734375;57,4286788550065;4,0252685546875E-09;0,94970703125;2;101;1,19418874382973E-07;-1,16784162819386E-07;100 nA
0,90087890625;57,9291668537429;2,42919921875E-09;0,89996337890625;2;102;1,19418874382973E-07;-1,16784162819386E-07;100 nA
0,850830078125;58,4296548524793;1,416015625E-09;0,84991455078125;2;103;1,19418874382973E-07;-1,16784162819386E-07;100 nA
0,80078125;58,9301428512157;6,927490234375E-10;0,79925537109375;2;104;1,19418874382973E-07;-1,16784162819386E-07;100 nA
0,750732421875;59,4306308499521;9,765625E-11;0,74993896484375;2;105;1,19418874382973E-07;-1,16784162819386E-07;100 nA
0,70068359375;59,9311188486885;-5,31005859375E-10;0,700042724609375;2;106;1,19418874382973E-07;-1,16784162819386E-07;100 nA
0,650634765625;60,4316068474249;-1,2542724609375E-09;0,65008544921875;2;107;1,19418874382973E-07;-1,16784162819386E-07;100 nA
0,6005859375;60,9320948461612;-2,0263671875E-09;0,600189208984375;2;108;1,19418874382973E-07;-1,16784162819386E-07;100 nA
0,550537109375;61,4325828448976;-2,8533935546875E-09;0,550201416015625;2;109;1,19418874382973E-07;-1,16784162819386E-07;100 nA
0,50048828125;61,933070843634;-3,582763671875E-09;0,50018310546875;2;110;1,19418874382973E-07;-1,16784162819386E-07;100 nA
0,450439453125;62,4335588423704;-4,3243408203125E-09;0,4501953125;2;111;1,19418874382973E-07;-1,16784162819386E-07;100 nA
0,400390625;62,9340468411068;-4,949951171875E-09;0,400177001953125;2;112;1,19418874382973E-07;-1,16784162819386E-07;100 nA
0,350341796875;63,4345348398432;-5,5816650390625E-09;0,35015869140625;2;113;1,19418874382973E-07;-1,16784162819386E-07;100 nA
0,30029296875;63,9350228385796;-6,0516357421875E-09;0,300048828125;2;114;1,19418874382973E-07;-1,16784162819386E-07;100 nA
0,250244140625;64,435510837316;-6,3385009765625E-09;0,250152587890625;2;115;1,19418874382973E-07;-1,16784162819386E-07;100 nA
0,2001953125;64,9359988360524;-6,756591796875E-09;0,20013427734375;2;116;1,19418874382973E-07;-1,16784162819386E-07;100 nA
0,150146484375;65,4364868347888;-7,135009765625E-09;0,150115966796875;2;117;1,19418874382973E-07;-1,16784162819386E-07;100 nA
0,10009765625;65,9369748335251;-7,6263427734375E-09;0,100128173828125;2;118;1,19418874382973E-07;-1,16784162819386E-07;100 nA
0,050048828125;66,4374628322615;-8,6334228515625E-09;0,05010986328125;2;119;1,19418874382973E-07;-1,16784162819386E-07;100 nA
0;66,9379508309979;-1,0687255859375E-08;0,000146484375000006;2;120;1,19418874382973E-07;-1,16784162819386E-07;100 nA
-0,050048828125;67,4384388297343;-1,4013671875E-08;-0,04970703125;2;121;1,19418874382973E-07;-1,16784162819386E-07;100 nA
-0,10009765625;67,9389268284707;-1,72332763671875E-08;-0,09967041015625;2;122;1,19418874382973E-07;-1,16784162819386E-07;100 nA
-0,150146484375;68,4394148272071;-1,72332763671875E-08;-0,1495361328125;2;123;1,19418874382973E-07;-1,16784162819386E-07;100 nA
-0,2001953125;68,9399028259435;-1,304931640625E-08;-0,199432373046875;2;124;1,19418874382973E-07;-1,16784162819386E-07;100 nA
-0,250244140625;69,4403908246799;-6,5216064453125E-09;-0,249359130859375;2;125;1,19418874382973E-07;-1,16784162819386E-07;100 nA
-0,30029296875;69,9408788234163;-5,487060546875E-09;-0,29925537109375;2;126;1,19418874382973E-07;-1,16784162819386E-07;100 nA
-0,350341796875;70,4413668221526;-5,5877685546875E-09;-0,349212646484375;2;127;1,19418874382973E-07;-1,16784162819386E-07;100 nA
-0,400390625;70,941854820889;-5,7952880859375E-09;-0,39910888671875;2;128;1,19418874382973E-07;-1,16784162819386E-07;100 nA
-0,450439453125;71,4423428196254;-5,8990478515625E-09;-0,449005126953125;2;129;1,19418874382973E-07;-1,16784162819386E-07;100 nA
-0,50048828125;71,9428308183618;-5,84716796875E-09;-0,498809814453125;2;130;1,19418874382973E-07;-1,16784162819386E-07;100 nA
-0,550537109375;72,4433188170982;-5,8349609375E-09;-0,548828125;2;131;1,19418874382973E-07;-1,16784162819386E-07;100 nA
-0,6005859375;72,9438068158346;-5,7281494140625E-09;-0,598724365234375;2;132;1,19418874382973E-07;-1,16784162819386E-07;100 nA
-0,650634765625;73,444294814571;-5,6304931640625E-09;-0,64862060546875;2;133;1,19418874382973E-07;-1,16784162819386E-07;100 nA
-0,70068359375;73,9447828133074;-5,46875E-09;-0,698638916015625;2;134;1,19418874382973E-07;-1,16784162819386E-07;100 nA
-0,750732421875;74,4452708120438;-5,3253173828125E-09;-0,748626708984375;2;135;1,19418874382973E-07;-1,16784162819386E-07;100 nA
-0,80078125;74,9457588107801;-5,1025390625E-09;-0,7989501953125;2;136;1,19418874382973E-07;-1,16784162819386E-07;100 nA
-0,850830078125;75,4462468095165;-4,9560546875E-09;-0,849609375;2;137;1,19418874382973E-07;-1,16784162819386E-07;100 nA
-0,90087890625;75,9467348082529;-4,8675537109375E-09;-0,89874267578125;2;138;1,19418874382973E-07;-1,16784162819386E-07;100 nA
-0,950927734375;76,4472228069893;-4,8553466796875E-09;-0,9490966796875;2;139;1,19418874382973E-07;-1,16784162819386E-07;100 nA
-1,0009765625;76,9477108057257;-4,888916015625E-09;-0,99884033203125;2;140;1,19418874382973E-07;-1,16784162819386E-07;100 nA
-0,950927734375;77,4481988044621;-2,69775390625E-09;-0,94879150390625;2;141;1,19418874382973E-07;-1,16784162819386E-07;100 nA
-0,90087890625;77,9486868031985;-1,6143798828125E-09;-0,8984375;2;142;1,19418874382973E-07;-1,16784162819386E-07;100 nA
-0,850830078125;78,4491748019349;-9,3994140625E-10;-0,8489990234375;2;143;1,19418874382973E-07;-1,16784162819386E-07;100 nA
-0,80078125;78,9496628006713;-4,08935546875E-10;-0,79864501953125;2;144;1,19418874382973E-07;-1,16784162819386E-07;100 nA
-0,750732421875;79,4501507994077;-2,13623046875E-11;-0,74871826171875;2;145;1,19418874382973E-07;-1,16784162819386E-07;100 nA
-0,70068359375;79,950638798144;3,143310546875E-10;-0,698638916015625;2;146;1,19418874382973E-07;-1,16784162819386E-07;100 nA
-0,650634765625;80,4511267968804;7,232666015625E-10;-0,64862060546875;2;147;1,19418874382973E-07;-1,16784162819386E-07;100 nA
-0,6005859375;80,9516147956168;1,1810302734375E-09;-0,59869384765625;2;148;1,19418874382973E-07;-1,16784162819386E-07;100 nA
-0,550537109375;81,4521027943532;1,6143798828125E-09;-0,548797607421875;2;149;1,19418874382973E-07;-1,16784162819386E-07;100 nA
-0,50048828125;81,9525907930896;2,1240234375E-09;-0,4989013671875;2;150;1,19418874382973E-07;-1,16784162819386E-07;100 nA
-0,450439453125;82,453078791826;2,752685546875E-09;-0,449005126953125;2;151;1,19418874382973E-07;-1,16784162819386E-07;100 nA
-0,400390625;82,9535667905624;3,57666015625E-09;-0,399139404296875;2;152;1,19418874382973E-07;-1,16784162819386E-07;100 nA
-0,350341796875;83,4540547892988;4,2022705078125E-09;-0,3492431640625;2;153;1,19418874382973E-07;-1,16784162819386E-07;100 nA
-0,30029296875;83,9545427880352;4,4891357421875E-09;-0,299346923828125;2;154;1,19418874382973E-07;-1,16784162819386E-07;100 nA
-0,250244140625;84,4550307867715;4,632568359375E-09;-0,249420166015625;2;155;1,19418874382973E-07;-1,16784162819386E-07;100 nA
-0,2001953125;84,9555187855079;4,730224609375E-09;-0,199493408203125;2;156;1,19418874382973E-07;-1,16784162819386E-07;100 nA
-0,150146484375;85,4560067842443;4,8492431640625E-09;-0,149627685546875;2;157;1,19418874382973E-07;-1,16784162819386E-07;100 nA
-0,10009765625;85,9564947829807;5,2978515625E-09;-0,099761962890625;2;158;1,19418874382973E-07;-1,16784162819386E-07;100 nA
-0,050048828125;86,4569827817171;6,5673828125E-09;-0,049835205078125;2;159;1,19418874382973E-07;-1,16784162819386E-07;100 nA
0;86,9574707804535;8,72802734375E-09;9,46044921874972E-05;2;160;1,19418874382973E-07;-1,16784162819386E-07;100 nA
0,050048828125;87,4579587791899;1,14410400390625E-08;0,050048828125;3;161;1,1985570192337E-07;-1,16678774356842E-07;100 nA
0,10009765625;87,9584467779263;1,064453125E-08;0,100006103515625;3;162;1,1985570192337E-07;-1,16678774356842E-07;100 nA
0,150146484375;88,4589347766627;9,2315673828125E-09;0,1500244140625;3;163;1,1985570192337E-07;-1,16678774356842E-07;100 nA
0,2001953125;88,959422775399;8,7249755859375E-09;0,200042724609375;3;164;1,1985570192337E-07;-1,16678774356842E-07;100 nA
0,250244140625;89,4599107741354;8,8348388671875E-09;0,25;3;165;1,1985570192337E-07;-1,16678774356842E-07;100 nA
0,30029296875;89,9603987728718;9,0087890625E-09;0,300079345703125;3;166;1,1985570192337E-07;-1,16678774356842E-07;100 nA
0,350341796875;90,4608867716082;9,185791015625E-09;0,350067138671875;3;167;1,1985570192337E-07;-1,16678774356842E-07;100 nA
0,400390625;90,9613747703446;9,2559814453125E-09;0,400115966796875;3;168;1,1985570192337E-07;-1,16678774356842E-07;100 nA
0,450439453125;91,461862769081;9,405517578125E-09;0,450042724609375;3;169;1,1985570192337E-07;-1,16678774356842E-07;100 nA
0,50048828125;91,9623507678174;9,417724609375E-09;0,500152587890625;3;170;1,1985570192337E-07;-1,16678774356842E-07;100 nA
0,550537109375;92,4628387665538;9,33837890625E-09;0,550079345703125;3;171;1,1985570192337E-07;-1,16678774356842E-07;100 nA
0,6005859375;92,9633267652902;9,112548828125E-09;0,60009765625;3;172;1,1985570192337E-07;-1,16678774356842E-07;100 nA
0,650634765625;93,4638147640266;8,770751953125E-09;0,6500244140625;3;173;1,1985570192337E-07;-1,16678774356842E-07;100 nA
0,70068359375;93,9643027627629;8,3892822265625E-09;0,699981689453125;3;174;1,1985570192337E-07;-1,16678774356842E-07;100 nA
0,750732421875;94,4647907614993;8,026123046875E-09;0,7498779296875;3;175;1,1985570192337E-07;-1,16678774356842E-07;100 nA
0,80078125;94,9652787602357;7,763671875E-09;0,80047607421875;3;176;1,1985570192337E-07;-1,16678774356842E-07;100 nA
0,850830078125;95,4657667589721;7,5439453125E-09;0,84991455078125;3;177;1,1985570192337E-07;-1,16678774356842E-07;100 nA
0,90087890625;95,9662547577085;7,3516845703125E-09;0,89996337890625;3;178;1,1985570192337E-07;-1,16678774356842E-07;100 nA
0,950927734375;96,4667427564449;7,23876953125E-09;0,95001220703125;3;179;1,1985570192337E-07;-1,16678774356842E-07;100 nA
1,0009765625;96,9672307551813;7,2113037109375E-09;0,999755859375;3;180;1,1985570192337E-07;-1,16678774356842E-07;100 nA
0,950927734375;97,4677187539177;4,083251953125E-09;0,95001220703125;3;181;1,1985570192337E-07;-1,16678774356842E-07;100 nA
0,90087890625;97,9682067526541;2,4749755859375E-09;0,89996337890625;3;182;1,1985570192337E-07;-1,16678774356842E-07;100 nA
0,850830078125;98,4686947513904;1,458740234375E-09;0,849609375;3;183;1,1985570192337E-07;-1,16678774356842E-07;100 nA
0,80078125;98,9691827501268;7,26318359375E-10;0,79986572265625;3;184;1,1985570192337E-07;-1,16678774356842E-07;100 nA
0,750732421875;99,4696707488632;6,7138671875E-11;0,74993896484375;3;185;1,1985570192337E-07;-1,16678774356842E-07;100 nA
0,70068359375;99,9701587475996;-5,706787109375E-10;0,699981689453125;3;186;1,1985570192337E-07;-1,16678774356842E-07;100 nA
0,650634765625;100,470646746336;-1,2542724609375E-09;0,650146484375;3;187;1,1985570192337E-07;-1,16678774356842E-07;100 nA
0,6005859375;100,971134745072;-2,0355224609375E-09;0,600189208984375;3;188;1,1985570192337E-07;-1,16678774356842E-07;100 nA
0,550537109375;101,471622743809;-2,9052734375E-09;0,550140380859375;3;189;1,1985570192337E-07;-1,16678774356842E-07;100 nA
0,50048828125;101,972110742545;-3,680419921875E-09;0,500152587890625;3;190;1,1985570192337E-07;-1,16678774356842E-07;100 nA
0,450439453125;102,472598741282;-4,4158935546875E-09;0,450103759765625;3;191;1,1985570192337E-07;-1,16678774356842E-07;100 nA
0,400390625;102,973086740018;-5,096435546875E-09;0,400177001953125;3;192;1,1985570192337E-07;-1,16678774356842E-07;100 nA
0,350341796875;103,473574738754;-5,6884765625E-09;0,350128173828125;3;193;1,1985570192337E-07;-1,16678774356842E-07;100 nA
0,30029296875;103,974062737491;-6,1553955078125E-09;0,30010986328125;3;194;1,1985570192337E-07;-1,16678774356842E-07;100 nA
0,250244140625;104,474550736227;-6,4910888671875E-09;0,2501220703125;3;195;1,1985570192337E-07;-1,16678774356842E-07;100 nA
0,2001953125;104,975038734964;-6,903076171875E-09;0,20013427734375;3;196;1,1985570192337E-07;-1,16678774356842E-07;100 nA
0,150146484375;105,4755267337;-7,2174072265625E-09;0,150115966796875;3;197;1,1985570192337E-07;-1,16678774356842E-07;100 nA
0,10009765625;105,976014732436;-7,733154296875E-09;0,100128173828125;3;198;1,1985570192337E-07;-1,16678774356842E-07;100 nA
0,050048828125;106,476502731173;-8,7310791015625E-09;0,05010986328125;3;199;1,1985570192337E-07;-1,16678774356842E-07;100 nA
0;106,976990729909;-1,083984375E-08;0,000149536132812503;3;200;1,1985570192337E-07;-1,16678774356842E-07;100 nA
-0,050048828125;107,477478728645;-1,41571044921875E-08;-0,049774169921875;3;201;1,1985570192337E-07;-1,16678774356842E-07;100 nA
-0,10009765625;107,977966727382;-1,73370361328125E-08;-0,099639892578125;3;202;1,1985570192337E-07;-1,16678774356842E-07;100 nA
-0,150146484375;108,478454726118;-1,73095703125E-08;-0,1495361328125;3;203;1,1985570192337E-07;-1,16678774356842E-07;100 nA
-0,2001953125;108,978942724855;-1,3092041015625E-08;-0,199432373046875;3;204;1,1985570192337E-07;-1,16678774356842E-07;100 nA
-0,250244140625;109,479430723591;-6,475830078125E-09;-0,249481201171875;3;205;1,1985570192337E-07;-1,16678774356842E-07;100 nA
-0,30029296875;109,979918722327;-5,4290771484375E-09;-0,299285888671875;3;206;1,1985570192337E-07;-1,16678774356842E-07;100 nA
-0,350341796875;110,480406721064;-5,517578125E-09;-0,349151611328125;3;207;1,1985570192337E-07;-1,16678774356842E-07;100 nA
-0,400390625;110,9808947198;-5,7403564453125E-09;-0,399078369140625;3;208;1,1985570192337E-07;-1,16678774356842E-07;100 nA
-0,450439453125;111,481382718537;-5,8013916015625E-09;-0,449005126953125;3;209;1,1985570192337E-07;-1,16678774356842E-07;100 nA
-0,50048828125;111,981870717273;-5,718994140625E-09;-0,498809814453125;3;210;1,1985570192337E-07;-1,16678774356842E-07;100 nA
-0,550537109375;112,482358716009;-5,633544921875E-09;-0,548797607421875;3;211;1,1985570192337E-07;-1,16678774356842E-07;100 nA
-0,6005859375;112,982846714746;-5,6121826171875E-09;-0,5986328125;3;212;1,1985570192337E-07;-1,16678774356842E-07;100 nA
-0,650634765625;113,483334713482;-5,517578125E-09;-0,648651123046875;3;213;1,1985570192337E-07;-1,16678774356842E-07;100 nA
-0,70068359375;113,983822712219;-5,3680419921875E-09;-0,698577880859375;3;214;1,1985570192337E-07;-1,16678774356842E-07;100 nA
-0,750732421875;114,484310710955;-5,145263671875E-09;-0,7486572265625;3;215;1,1985570192337E-07;-1,16678774356842E-07;100 nA
-0,80078125;114,984798709691;-4,98046875E-09;-0,79864501953125;3;216;1,1985570192337E-07;-1,16678774356842E-07;100 nA
-0,850830078125;115,485286708428;-4,833984375E-09;-0,8489990234375;3;217;1,1985570192337E-07;-1,16678774356842E-07;100 nA
-0,90087890625;115,985774707164;-4,7515869140625E-09;-0,8990478515625;3;218;1,1985570192337E-07;-1,16678774356842E-07;100 nA
-0,950927734375;116,4862627059;-4,730224609375E-09;-0,94879150390625;3;219;1,1985570192337E-07;-1,16678774356842E-07;100 nA
-1,0009765625;116,986750704637;-4,7210693359375E-09;-0,99945068359375;3;220;1,1985570192337E-07;-1,16678774356842E-07;100 nA
-0,950927734375;117,487238703373;-2,6275634765625E-09;-0,9490966796875;3;221;1,1985570192337E-07;-1,16678774356842E-07;100 nA
-0,90087890625;117,98772670211;-1,5350341796875E-09;-0,8990478515625;3;222;1,1985570192337E-07;-1,16678774356842E-07;100 nA
-0,850830078125;118,488214700846;-9,063720703125E-10;-0,84869384765625;3;223;1,1985570192337E-07;-1,16678774356842E-07;100 nA
-0,80078125;118,988702699582;-4,2724609375E-10;-0,7989501953125;3;224;1,1985570192337E-07;-1,16678774356842E-07;100 nA
-0,750732421875;119,489190698319;-4,2724609375E-11;-0,74859619140625;3;225;1,1985570192337E-07;-1,16678774356842E-07;100 nA
-0,70068359375;119,989678697055;3,0517578125E-10;-0,698638916015625;3;226;1,1985570192337E-07;-1,16678774356842E-07;100 nA
-0,650634765625;120,490166695792;7,049560546875E-10;-0,648681640625;3;227;1,1985570192337E-07;-1,16678774356842E-07;100 nA
-0,6005859375;120,990654694528;1,123046875E-09;-0,59869384765625;3;228;1,1985570192337E-07;-1,16678774356842E-07;100 nA
-0,550537109375;121,491142693264;1,59912109375E-09;-0,548828125;3;229;1,1985570192337E-07;-1,16678774356842E-07;100 nA
-0,50048828125;121,991630692001;2,0782470703125E-09;-0,498931884765625;3;230;1,1985570192337E-07;-1,16678774356842E-07;100 nA
-0,450439453125;122,492118690737;2,655029296875E-09;-0,44903564453125;3;231;1,1985570192337E-07;-1,16678774356842E-07;100 nA
-0,400390625;122,992606689474;3,4027099609375E-09;-0,399200439453125;3;232;1,1985570192337E-07;-1,16678774356842E-07;100 nA
-0,350341796875;123,49309468821;4,107666015625E-09;-0,349212646484375;3;233;1,1985570192337E-07;-1,16678774356842E-07;100 nA
-0,30029296875;123,993582686946;4,4158935546875E-09;-0,299346923828125;3;234;1,1985570192337E-07;-1,16678774356842E-07;100 nA
-0,250244140625;124,494070685683;4,5379638671875E-09;-0,24945068359375;3;235;1,1985570192337E-07;-1,16678774356842E-07;100 nA
-0,2001953125;124,994558684419;4,6478271484375E-09;-0,19952392578125;3;236;1,1985570192337E-07;-1,16678774356842E-07;100 nA
-0,150146484375;125,495046683155;4,72412109375E-09;-0,14959716796875;3;237;1,1985570192337E-07;-1,16678774356842E-07;100 nA
-0,10009765625;125,995534681892;5,2398681640625E-09;-0,0997314453125;3;238;1,1985570192337E-07;-1,16678774356842E-07;100 nA
-0,050048828125;126,496022680628;6,50634765625E-09;-0,04986572265625;3;239;1,1985570192337E-07;-1,16678774356842E-07;100 nA
0;126,996510679365;8,721923828125E-09;9,1552734375E-05;3;240;1,1985570192337E-07;-1,16678774356842E-07;100 nA
0,050048828125;127,496998678101;1,15142822265625E-08;0,050079345703125;4;241;1,20857656002045E-07;-1,1685136705637E-07;100 nA
0,10009765625;127,997486676837;1,075439453125E-08;0,100067138671875;4;242;1,20857656002045E-07;-1,1685136705637E-07;100 nA
0,150146484375;128,497974675574;9,21630859375E-09;0,1500244140625;4;243;1,20857656002045E-07;-1,1685136705637E-07;100 nA
0,2001953125;128,99846267431;8,82568359375E-09;0,200042724609375;4;244;1,20857656002045E-07;-1,1685136705637E-07;100 nA
0,250244140625;129,498950673047;8,9324951171875E-09;0,25006103515625;4;245;1,20857656002045E-07;-1,1685136705637E-07;100 nA
0,30029296875;129,999438671783;9,088134765625E-09;0,30010986328125;4;246;1,20857656002045E-07;-1,1685136705637E-07;100 nA
0,350341796875;130,499926670519;9,2315673828125E-09;0,35015869140625;4;247;1,20857656002045E-07;-1,1685136705637E-07;100 nA
0,400390625;131,000414669256;9,326171875E-09;0,400115966796875;4;248;1,20857656002045E-07;-1,1685136705637E-07;100 nA
0,450439453125;131,500902667992;9,4268798828125E-09;0,450042724609375;4;249;1,20857656002045E-07;-1,1685136705637E-07;100 nA
0,50048828125;132,001390666729;9,423828125E-09;0,50006103515625;4;250;1,20857656002045E-07;-1,1685136705637E-07;100 nA
0,550537109375;132,501878665465;9,344482421875E-09;0,550140380859375;4;251;1,20857656002045E-07;-1,1685136705637E-07;100 nA
0,6005859375;133,002366664201;9,100341796875E-09;0,600067138671875;4;252;1,20857656002045E-07;-1,1685136705637E-07;100 nA
0,650634765625;133,502854662938;8,7615966796875E-09;0,650115966796875;4;253;1,20857656002045E-07;-1,1685136705637E-07;100 nA
0,70068359375;134,003342661674;8,4259033203125E-09;0,699951171875;4;254;1,20857656002045E-07;-1,1685136705637E-07;100 nA
0,750732421875;134,50383066041;8,0780029296875E-09;0,749847412109375;4;255;1,20857656002045E-07;-1,1685136705637E-07;100 nA
0,80078125;135,004318659147;7,794189453125E-09;0,8001708984375;4;256;1,20857656002045E-07;-1,1685136705637E-07;100 nA
0,850830078125;135,504806657883;7,5439453125E-09;0,84991455078125;4;257;1,20857656002045E-07;-1,1685136705637E-07;100 nA
0,90087890625;136,00529465662;7,366943359375E-09;0,899658203125;4;258;1,20857656002045E-07;-1,1685136705637E-07;100 nA
0,950927734375;136,505782655356;7,257080078125E-09;0,95001220703125;4;259;1,20857656002045E-07;-1,1685136705637E-07;100 nA
1,0009765625;137,006270654092;7,21435546875E-09;0,9991455078125;4;260;1,20857656002045E-07;-1,1685136705637E-07;100 nA
0,950927734375;137,506758652829;4,0863037109375E-09;0,94970703125;4;261;1,20857656002045E-07;-1,1685136705637E-07;100 nA
0,90087890625;138,007246651565;2,484130859375E-09;0,89935302734375;4;262;1,20857656002045E-07;-1,1685136705637E-07;100 nA
0,850830078125;138,507734650302;1,470947265625E-09;0,85052490234375;4;263;1,20857656002045E-07;-1,1685136705637E-07;100 nA
0,80078125;139,008222649038;7,110595703125E-10;0,79986572265625;4;264;1,20857656002045E-07;-1,1685136705637E-07;100 nA
0,750732421875;139,508710647774;9,1552734375E-11;0,7498779296875;4;265;1,20857656002045E-07;-1,1685136705637E-07;100 nA
0,70068359375;140,009198646511;-5,37109375E-10;0,700042724609375;4;266;1,20857656002045E-07;-1,1685136705637E-07;100 nA
0,650634765625;140,509686645247;-1,2237548828125E-09;0,650115966796875;4;267;1,20857656002045E-07;-1,1685136705637E-07;100 nA
0,6005859375;141,010174643984;-2,01416015625E-09;0,60015869140625;4;268;1,20857656002045E-07;-1,1685136705637E-07;100 nA
0,550537109375;141,51066264272;-2,7862548828125E-09;0,550201416015625;4;269;1,20857656002045E-07;-1,1685136705637E-07;100 nA
0,50048828125;142,011150641456;-3,61328125E-09;0,500213623046875;4;270;1,20857656002045E-07;-1,1685136705637E-07;100 nA
0,450439453125;142,511638640193;-4,345703125E-09;0,4501953125;4;271;1,20857656002045E-07;-1,1685136705637E-07;100 nA
0,400390625;143,012126638929;-4,9652099609375E-09;0,400146484375;4;272;1,20857656002045E-07;-1,1685136705637E-07;100 nA
0,350341796875;143,512614637665;-5,5938720703125E-09;0,350189208984375;4;273;1,20857656002045E-07;-1,1685136705637E-07;100 nA
0,30029296875;144,013102636402;-6,04248046875E-09;0,300140380859375;4;274;1,20857656002045E-07;-1,1685136705637E-07;100 nA
0,250244140625;144,513590635138;-6,38427734375E-09;0,25018310546875;4;275;1,20857656002045E-07;-1,1685136705637E-07;100 nA
0,2001953125;145,014078633875;-6,7626953125E-09;0,20013427734375;4;276;1,20857656002045E-07;-1,1685136705637E-07;100 nA
0,150146484375;145,514566632611;-7,147216796875E-09;0,150115966796875;4;277;1,20857656002045E-07;-1,1685136705637E-07;100 nA
0,10009765625;146,015054631347;-7,6812744140625E-09;0,10015869140625;4;278;1,20857656002045E-07;-1,1685136705637E-07;100 nA
0,050048828125;146,515542630084;-8,673095703125E-09;0,05010986328125;4;279;1,20857656002045E-07;-1,1685136705637E-07;100 nA
0;147,01603062882;-1,07574462890625E-08;0,000149536132812503;4;280;1,20857656002045E-07;-1,1685136705637E-07;100 nA
-0,050048828125;147,516518627557;-1,417236328125E-08;-0,0497161865234375;4;281;1,20857656002045E-07;-1,1685136705637E-07;100 nA
-0,10009765625;148,017006626293;-1,744384765625E-08;-0,099639892578125;4;282;1,20857656002045E-07;-1,1685136705637E-07;100 nA
-0,150146484375;148,517494625029;-1,73858642578125E-08;-0,149566650390625;4;283;1,20857656002045E-07;-1,1685136705637E-07;100 nA
-0,2001953125;149,017982623766;-1,31500244140625E-08;-0,199493408203125;4;284;1,20857656002045E-07;-1,1685136705637E-07;100 nA
-0,250244140625;149,518470622502;-6,5521240234375E-09;-0,249420166015625;4;285;1,20857656002045E-07;-1,1685136705637E-07;100 nA
-0,30029296875;150,018958621239;-5,4901123046875E-09;-0,29925537109375;4;286;1,20857656002045E-07;-1,1685136705637E-07;100 nA
-0,350341796875;150,519446619975;-5,5816650390625E-09;-0,349273681640625;4;287;1,20857656002045E-07;-1,1685136705637E-07;100 nA
-0,400390625;151,019934618711;-5,804443359375E-09;-0,399169921875;4;288;1,20857656002045E-07;-1,1685136705637E-07;100 nA
-0,450439453125;151,520422617448;-5,8624267578125E-09;-0,448944091796875;4;289;1,20857656002045E-07;-1,1685136705637E-07;100 nA
-0,50048828125;152,020910616184;-5,8074951171875E-09;-0,498870849609375;4;290;1,20857656002045E-07;-1,1685136705637E-07;100 nA
-0,550537109375;152,52139861492;-5,7952880859375E-09;-0,548858642578125;4;291;1,20857656002045E-07;-1,1685136705637E-07;100 nA
-0,6005859375;153,021886613657;-5,712890625E-09;-0,598724365234375;4;292;1,20857656002045E-07;-1,1685136705637E-07;100 nA
-0,650634765625;153,522374612393;-5,5816650390625E-09;-0,648651123046875;4;293;1,20857656002045E-07;-1,1685136705637E-07;100 nA
-0,70068359375;154,02286261113;-5,419921875E-09;-0,6986083984375;4;294;1,20857656002045E-07;-1,1685136705637E-07;100 nA
-0,750732421875;154,523350609866;-5,23681640625E-09;-0,7486572265625;4;295;1,20857656002045E-07;-1,1685136705637E-07;100 nA
-0,80078125;155,023838608602;-5,04150390625E-09;-0,79864501953125;4;296;1,20857656002045E-07;-1,1685136705637E-07;100 nA
-0,850830078125;155,524326607339;-4,901123046875E-09;-0,84869384765625;4;297;1,20857656002045E-07;-1,1685136705637E-07;100 nA
-0,90087890625;156,024814606075;-4,803466796875E-09;-0,8984375;4;298;1,20857656002045E-07;-1,1685136705637E-07;100 nA
-0,950927734375;156,525302604812;-4,8095703125E-09;-0,9490966796875;4;299;1,20857656002045E-07;-1,1685136705637E-07;100 nA
-1,0009765625;157,025790603548;-4,827880859375E-09;-0,99853515625;4;300;1,20857656002045E-07;-1,1685136705637E-07;100 nA
-0,950927734375;157,526278602284;-2,630615234375E-09;-0,94879150390625;4;301;1,20857656002045E-07;-1,1685136705637E-07;100 nA
-0,90087890625;158,026766601021;-1,544189453125E-09;-0,89935302734375;4;302;1,20857656002045E-07;-1,1685136705637E-07;100 nA
-0,850830078125;158,527254599757;-9,09423828125E-10;-0,848388671875;4;303;1,20857656002045E-07;-1,1685136705637E-07;100 nA
-0,80078125;159,027742598494;-4,2724609375E-10;-0,79864501953125;4;304;1,20857656002045E-07;-1,1685136705637E-07;100 nA
-0,750732421875;159,52823059723;-5,4931640625E-11;-0,748687744140625;4;305;1,20857656002045E-07;-1,1685136705637E-07;100 nA
-0,70068359375;160,028718595966;3,326416015625E-10;-0,6986083984375;4;306;1,20857656002045E-07;-1,1685136705637E-07;100 nA
-0,650634765625;160,529206594703;7,293701171875E-10;-0,648681640625;4;307;1,20857656002045E-07;-1,1685136705637E-07;100 nA
-0,6005859375;161,029694593439;1,1627197265625E-09;-0,598785400390625;4;308;1,20857656002045E-07;-1,1685136705637E-07;100 nA
-0,550537109375;161,530182592175;1,629638671875E-09;-0,54876708984375;4;309;1,20857656002045E-07;-1,1685136705637E-07;100 nA
-0,50048828125;162,030670590912;2,117919921875E-09;-0,4989013671875;4;310;1,20857656002045E-07;-1,1685136705637E-07;100 nA
-0,450439453125;162,531158589648;2,734375E-09;-0,44903564453125;4;311;1,20857656002045E-07;-1,1685136705637E-07;100 nA
-0,400390625;163,031646588385;3,5064697265625E-09;-0,399078369140625;4;312;1,20857656002045E-07;-1,1685136705637E-07;100 nA
-0,350341796875;163,532134587121;4,180908203125E-09;-0,349212646484375;4;313;1,20857656002045E-07;-1,1685136705637E-07;100 nA
-0,30029296875;164,032622585857;4,4525146484375E-09;-0,299285888671875;4;314;1,20857656002045E-07;-1,1685136705637E-07;100 nA
-0,250244140625;164,533110584594;4,6295166015625E-09;-0,2493896484375;4;315;1,20857656002045E-07;-1,1685136705637E-07;100 nA
-0,2001953125;165,03359858333;4,754638671875E-09;-0,199462890625;4;316;1,20857656002045E-07;-1,1685136705637E-07;100 nA
-0,150146484375;165,534086582067;4,8858642578125E-09;-0,149658203125;4;317;1,20857656002045E-07;-1,1685136705637E-07;100 nA
-0,10009765625;166,034574580803;5,3802490234375E-09;-0,099761962890625;4;318;1,20857656002045E-07;-1,1685136705637E-07;100 nA
-0,050048828125;166,535062579539;6,6650390625E-09;-0,04986572265625;4;319;1,20857656002045E-07;-1,1685136705637E-07;100 nA
0;167,035550578276;8,8470458984375E-09;0,000119018554687503;4;320;1,20857656002045E-07;-1,1685136705637E-07;100 nA
0,050048828125;167,536038577012;1,16424560546875E-08;0,050018310546875;5;321;1,212028414011E-07;-1,1688344180584E-07;100 nA
0,10009765625;168,036526575749;1,08856201171875E-08;0,10003662109375;5;322;1,212028414011E-07;-1,1688344180584E-07;100 nA
0,150146484375;168,537014574485;9,3292236328125E-09;0,149993896484375;5;323;1,212028414011E-07;-1,1688344180584E-07;100 nA
0,2001953125;169,037502573221;8,8653564453125E-09;0,200042724609375;5;324;1,212028414011E-07;-1,1688344180584E-07;100 nA
0,250244140625;169,537990571958;8,966064453125E-09;0,250091552734375;5;325;1,212028414011E-07;-1,1688344180584E-07;100 nA
0,30029296875;170,038478570694;9,161376953125E-09;0,300079345703125;5;326;1,212028414011E-07;-1,1688344180584E-07;100 nA
0,350341796875;170,538966569431;9,295654296875E-09;0,350128173828125;5;327;1,212028414011E-07;-1,1688344180584E-07;100 nA
0,400390625;171,039454568167;9,41162109375E-09;0,400115966796875;5;328;1,212028414011E-07;-1,1688344180584E-07;100 nA
0,450439453125;171,539942566903;9,47265625E-09;0,45013427734375;5;329;1,212028414011E-07;-1,1688344180584E-07;100 nA
0,50048828125;172,04043056564;9,4940185546875E-09;0,500091552734375;5;330;1,212028414011E-07;-1,1688344180584E-07;100 nA
0,550537109375;172,540918564376;9,393310546875E-09;0,550140380859375;5;331;1,212028414011E-07;-1,1688344180584E-07;100 nA
0,6005859375;173,041406563112;9,1522216796875E-09;0,60009765625;5;332;1,212028414011E-07;-1,1688344180584E-07;100 nA
0,650634765625;173,541894561849;8,8226318359375E-09;0,650054931640625;5;333;1,212028414011E-07;-1,1688344180584E-07;100 nA
0,70068359375;174,042382560585;8,4228515625E-09;0,699951171875;5;334;1,212028414011E-07;-1,1688344180584E-07;100 nA
0,750732421875;174,542870559322;8,087158203125E-09;0,7498779296875;5;335;1,212028414011E-07;-1,1688344180584E-07;100 nA
0,80078125;175,043358558058;7,7728271484375E-09;0,79986572265625;5;336;1,212028414011E-07;-1,1688344180584E-07;100 nA
0,850830078125;175,543846556794;7,50732421875E-09;0,85052490234375;5;337;1,212028414011E-07;-1,1688344180584E-07;100 nA
0,90087890625;176,044334555531;7,3211669921875E-09;0,89996337890625;5;338;1,212028414011E-07;-1,1688344180584E-07;100 nA
0,950927734375;176,544822554267;7,23876953125E-09;0,9503173828125;5;339;1,212028414011E-07;-1,1688344180584E-07;100 nA
1,0009765625;177,045310553004;7,1868896484375E-09;0,999755859375;5;340;1,212028414011E-07;-1,1688344180584E-07;100 nA
0,950927734375;177,54579855174;4,058837890625E-09;0,95001220703125;5;341;1,212028414011E-07;-1,1688344180584E-07;100 nA
0,90087890625;178,046286550476;2,4658203125E-09;0,89935302734375;5;342;1,212028414011E-07;-1,1688344180584E-07;100 nA
0,850830078125;178,546774549213;1,4495849609375E-09;0,85052490234375;5;343;1,212028414011E-07;-1,1688344180584E-07;100 nA
0,80078125;179,047262547949;6,683349609375E-10;0,799560546875;5;344;1,212028414011E-07;-1,1688344180584E-07;100 nA
0,750732421875;179,547750546686;2,74658203125E-11;0,7498779296875;5;345;1,212028414011E-07;-1,1688344180584E-07;100 nA
0,70068359375;180,048238545422;-6,011962890625E-10;0,699981689453125;5;346;1,212028414011E-07;-1,1688344180584E-07;100 nA
0,650634765625;180,548726544158;-1,2969970703125E-09;0,650115966796875;5;347;1,212028414011E-07;-1,1688344180584E-07;100 nA
0,6005859375;181,049214542895;-2,081298828125E-09;0,60015869140625;5;348;1,212028414011E-07;-1,1688344180584E-07;100 nA
0,550537109375;181,549702541631;-2,91748046875E-09;0,550201416015625;5;349;1,212028414011E-07;-1,1688344180584E-07;100 nA
0,50048828125;182,050190540367;-3,6590576171875E-09;0,50018310546875;5;350;1,212028414011E-07;-1,1688344180584E-07;100 nA
0,450439453125;182,550678539104;-4,3670654296875E-09;0,45013427734375;5;351;1,212028414011E-07;-1,1688344180584E-07;100 nA
0,400390625;183,05116653784;-5,04150390625E-09;0,400238037109375;5;352;1,212028414011E-07;-1,1688344180584E-07;100 nA
0,350341796875;183,551654536577;-5,6671142578125E-09;0,35015869140625;5;353;1,212028414011E-07;-1,1688344180584E-07;100 nA
0,30029296875;184,052142535313;-6,1370849609375E-09;0,30010986328125;5;354;1,212028414011E-07;-1,1688344180584E-07;100 nA
0,250244140625;184,552630534049;-6,5032958984375E-09;0,2501220703125;5;355;1,212028414011E-07;-1,1688344180584E-07;100 nA
0,2001953125;185,053118532786;-6,8939208984375E-09;0,2000732421875;5;356;1,212028414011E-07;-1,1688344180584E-07;100 nA
0,150146484375;185,553606531522;-7,2235107421875E-09;0,15008544921875;5;357;1,212028414011E-07;-1,1688344180584E-07;100 nA
0,10009765625;186,054094530259;-7,7301025390625E-09;0,100067138671875;5;358;1,212028414011E-07;-1,1688344180584E-07;100 nA
0,050048828125;186,554582528995;-8,7310791015625E-09;0,050140380859375;5;359;1,212028414011E-07;-1,1688344180584E-07;100 nA
0;187,055070527731;-1,083984375E-08;0,000152587890625;5;360;1,212028414011E-07;-1,1688344180584E-07;100 nA
-0,050048828125;187,555558526468;-1,42608642578125E-08;-0,049700927734375;5;361;1,212028414011E-07;-1,1688344180584E-07;100 nA
-0,10009765625;188,056046525204;-1,7510986328125E-08;-0,099639892578125;5;362;1,212028414011E-07;-1,1688344180584E-07;100 nA
-0,150146484375;188,556534523941;-1,74530029296875E-08;-0,149566650390625;5;363;1,212028414011E-07;-1,1688344180584E-07;100 nA
-0,2001953125;189,057022522677;-1,31072998046875E-08;-0,19940185546875;5;364;1,212028414011E-07;-1,1688344180584E-07;100 nA
-0,250244140625;189,557510521413;-6,5032958984375E-09;-0,2493896484375;5;365;1,212028414011E-07;-1,1688344180584E-07;100 nA
-0,30029296875;190,05799852015;-5,4840087890625E-09;-0,299285888671875;5;366;1,212028414011E-07;-1,1688344180584E-07;100 nA
-0,350341796875;190,558486518886;-5,5694580078125E-09;-0,349212646484375;5;367;1,212028414011E-07;-1,1688344180584E-07;100 nA
-0,400390625;191,058974517622;-5,780029296875E-09;-0,399078369140625;5;368;1,212028414011E-07;-1,1688344180584E-07;100 nA
-0,450439453125;191,559462516359;-5,8868408203125E-09;-0,44903564453125;5;369;1,212028414011E-07;-1,1688344180584E-07;100 nA
-0,50048828125;192,059950515095;-5,82275390625E-09;-0,4989013671875;5;370;1,212028414011E-07;-1,1688344180584E-07;100 nA
-0,550537109375;192,560438513832;-5,6915283203125E-09;-0,54876708984375;5;371;1,212028414011E-07;-1,1688344180584E-07;100 nA
-0,6005859375;193,060926512568;-5,6121826171875E-09;-0,598663330078125;5;372;1,212028414011E-07;-1,1688344180584E-07;100 nA
-0,650634765625;193,561414511304;-5,50537109375E-09;-0,648651123046875;5;373;1,212028414011E-07;-1,1688344180584E-07;100 nA
-0,70068359375;194,061902510041;-5,3314208984375E-09;-0,698638916015625;5;374;1,212028414011E-07;-1,1688344180584E-07;100 nA
-0,750732421875;194,562390508777;-5,1483154296875E-09;-0,7486572265625;5;375;1,212028414011E-07;-1,1688344180584E-07;100 nA
-0,80078125;195,062878507514;-4,9530029296875E-09;-0,79864501953125;5;376;1,212028414011E-07;-1,1688344180584E-07;100 nA
-0,850830078125;195,56336650625;-4,8187255859375E-09;-0,84869384765625;5;377;1,212028414011E-07;-1,1688344180584E-07;100 nA
-0,90087890625;196,063854504986;-4,705810546875E-09;-0,8984375;5;378;1,212028414011E-07;-1,1688344180584E-07;100 nA
-0,950927734375;196,564342503723;-4,693603515625E-09;-0,948486328125;5;379;1,212028414011E-07;-1,1688344180584E-07;100 nA
-1,0009765625;197,064830502459;-4,705810546875E-09;-0,99945068359375;5;380;1,212028414011E-07;-1,1688344180584E-07;100 nA
-0,950927734375;197,565318501196;-2,5482177734375E-09;-0,9490966796875;5;381;1,212028414011E-07;-1,1688344180584E-07;100 nA
-0,90087890625;198,065806499932;-1,4617919921875E-09;-0,89874267578125;5;382;1,212028414011E-07;-1,1688344180584E-07;100 nA
-0,850830078125;198,566294498668;-8,36181640625E-10;-0,8489990234375;5;383;1,212028414011E-07;-1,1688344180584E-07;100 nA
-0,80078125;199,066782497405;-4,241943359375E-10;-0,7989501953125;5;384;1,212028414011E-07;-1,1688344180584E-07;100 nA
-0,750732421875;199,567270496141;-3,35693359375E-11;-0,7486572265625;5;385;1,212028414011E-07;-1,1688344180584E-07;100 nA
-0,70068359375;200,067758494877;3,387451171875E-10;-0,69866943359375;5;386;1,212028414011E-07;-1,1688344180584E-07;100 nA
-0,650634765625;200,568246493614;7,568359375E-10;-0,64862060546875;5;387;1,212028414011E-07;-1,1688344180584E-07;100 nA
-0,6005859375;201,06873449235;1,1810302734375E-09;-0,59869384765625;5;388;1,212028414011E-07;-1,1688344180584E-07;100 nA
-0,550537109375;201,569222491087;1,6510009765625E-09;-0,548797607421875;5;389;1,212028414011E-07;-1,1688344180584E-07;100 nA
-0,50048828125;202,069710489823;2,1453857421875E-09;-0,49884033203125;5;390;1,212028414011E-07;-1,1688344180584E-07;100 nA
-0,450439453125;202,570198488559;2,752685546875E-09;-0,449005126953125;5;391;1,212028414011E-07;-1,1688344180584E-07;100 nA
-0,400390625;203,070686487296;3,5400390625E-09;-0,399078369140625;5;392;1,212028414011E-07;-1,1688344180584E-07;100 nA
-0,350341796875;203,571174486032;4,2724609375E-09;-0,349212646484375;5;393;1,212028414011E-07;-1,1688344180584E-07;100 nA
-0,30029296875;204,071662484769;4,4921875E-09;-0,299285888671875;5;394;1,212028414011E-07;-1,1688344180584E-07;100 nA
-0,250244140625;204,572150483505;4,632568359375E-09;-0,24945068359375;5;395;1,212028414011E-07;-1,1688344180584E-07;100 nA
-0,2001953125;205,072638482241;4,7271728515625E-09;-0,199493408203125;5;396;1,212028414011E-07;-1,1688344180584E-07;100 nA
-0,150146484375;205,573126480978;4,852294921875E-09;-0,14959716796875;5;397;1,212028414011E-07;-1,1688344180584E-07;100 nA
-0,10009765625;206,073614479714;5,33447265625E-09;-0,0997314453125;5;398;1,212028414011E-07;-1,1688344180584E-07;100 nA
-0,050048828125;206,574102478451;6,597900390625E-09;-0,0498046875;5;399;1,212028414011E-07;-1,1688344180584E-07;100 nA
0;207,074590477187;8,795166015625E-09;8,85009765625028E-05;5;400;1,212028414011E-07;-1,1688344180584E-07;100 nA
0,050048828125;207,575078475923;1,162109375E-08;0,050048828125;6;401;1,19223371148109E-07;-1,15792900323868E-07;100 nA
0,10009765625;208,07556647466;1,08795166015625E-08;0,100067138671875;6;402;1,19223371148109E-07;-1,15792900323868E-07;100 nA
0,150146484375;208,576054473396;9,2620849609375E-09;0,15008544921875;6;403;1,19223371148109E-07;-1,15792900323868E-07;100 nA
0,2001953125;209,076542472132;8,837890625E-09;0,200103759765625;6;404;1,19223371148109E-07;-1,15792900323868E-07;100 nA
0,250244140625;209,577030470869;8,9508056640625E-09;0,250030517578125;6;405;1,19223371148109E-07;-1,15792900323868E-07;100 nA
0,30029296875;210,077518469605;9,088134765625E-09;0,30010986328125;6;406;1,19223371148109E-07;-1,15792900323868E-07;100 nA
0,350341796875;210,578006468342;9,1888427734375E-09;0,350067138671875;6;407;1,19223371148109E-07;-1,15792900323868E-07;100 nA
0,400390625;211,078494467078;9,259033203125E-09;0,40008544921875;6;408;1,19223371148109E-07;-1,15792900323868E-07;100 nA
0,450439453125;211,578982465814;9,307861328125E-09;0,4500732421875;6;409;1,19223371148109E-07;-1,15792900323868E-07;100 nA
0,50048828125;212,079470464551;9,2987060546875E-09;0,500030517578125;6;410;1,19223371148109E-07;-1,15792900323868E-07;100 nA
0,550537109375;212,579958463287;9,210205078125E-09;0,550048828125;6;411;1,19223371148109E-07;-1,15792900323868E-07;100 nA
0,6005859375;213,080446462024;9,0057373046875E-09;0,600067138671875;6;412;1,19223371148109E-07;-1,15792900323868E-07;100 nA
0,650634765625;213,58093446076;8,6761474609375E-09;0,649993896484375;6;413;1,19223371148109E-07;-1,15792900323868E-07;100 nA
0,70068359375;214,081422459496;8,294677734375E-09;0,699920654296875;6;414;1,19223371148109E-07;-1,15792900323868E-07;100 nA
0,750732421875;214,581910458233;7,904052734375E-09;0,74981689453125;6;415;1,19223371148109E-07;-1,15792900323868E-07;100 nA
0,80078125;215,082398456969;7,6385498046875E-09;0,799560546875;6;416;1,19223371148109E-07;-1,15792900323868E-07;100 nA
0,850830078125;215,582886455706;7,38525390625E-09;0,849609375;6;417;1,19223371148109E-07;-1,15792900323868E-07;100 nA
0,90087890625;216,083374454442;7,1807861328125E-09;0,899658203125;6;418;1,19223371148109E-07;-1,15792900323868E-07;100 nA
0,950927734375;216,583862453178;7,0953369140625E-09;0,94940185546875;6;419;1,19223371148109E-07;-1,15792900323868E-07;100 nA
1,0009765625;217,084350451915;7,0648193359375E-09;0,999755859375;6;420;1,19223371148109E-07;-1,15792900323868E-07;100 nA
0,950927734375;217,584838450651;3,9642333984375E-09;0,94970703125;6;421;1,19223371148109E-07;-1,15792900323868E-07;100 nA
0,90087890625;218,085326449387;2,3406982421875E-09;0,89996337890625;6;422;1,19223371148109E-07;-1,15792900323868E-07;100 nA
0,850830078125;218,585814448124;1,3397216796875E-09;0,8502197265625;6;423;1,19223371148109E-07;-1,15792900323868E-07;100 nA
0,80078125;219,08630244686;5,9814453125E-10;0,8001708984375;6;424;1,19223371148109E-07;-1,15792900323868E-07;100 nA
0,750732421875;219,586790445597;-2,44140625E-11;0,749908447265625;6;425;1,19223371148109E-07;-1,15792900323868E-07;100 nA
0,70068359375;220,087278444333;-6,65283203125E-10;0,70001220703125;6;426;1,19223371148109E-07;-1,15792900323868E-07;100 nA
0,650634765625;220,587766443069;-1,324462890625E-09;0,65008544921875;6;427;1,19223371148109E-07;-1,15792900323868E-07;100 nA
0,6005859375;221,088254441806;-2,1484375E-09;0,600067138671875;6;428;1,19223371148109E-07;-1,15792900323868E-07;100 nA
0,550537109375;221,588742440542;-2,9693603515625E-09;0,55010986328125;6;429;1,19223371148109E-07;-1,15792900323868E-07;100 nA
0,50048828125;222,089230439279;-3,7139892578125E-09;0,500152587890625;6;430;1,19223371148109E-07;-1,15792900323868E-07;100 nA
0,450439453125;222,589718438015;-4,3792724609375E-09;0,450225830078125;6;431;1,19223371148109E-07;-1,15792900323868E-07;100 nA
0,400390625;223,090206436751;-5,0140380859375E-09;0,400238037109375;6;432;1,19223371148109E-07;-1,15792900323868E-07;100 nA
0,350341796875;223,590694435488;-5,6121826171875E-09;0,35015869140625;6;433;1,19223371148109E-07;-1,15792900323868E-07;100 nA
0,30029296875;224,091182434224;-6,09130859375E-09;0,30010986328125;6;434;1,19223371148109E-07;-1,15792900323868E-07;100 nA
0,250244140625;224,591670432961;-6,4300537109375E-09;0,2501220703125;6;435;1,19223371148109E-07;-1,15792900323868E-07;100 nA
0,2001953125;225,092158431697;-6,787109375E-09;0,2000732421875;6;436;1,19223371148109E-07;-1,15792900323868E-07;100 nA
0,150146484375;225,592646430433;-7,1624755859375E-09;0,150115966796875;6;437;1,19223371148109E-07;-1,15792900323868E-07;100 nA
0,10009765625;226,09313442917;-7,65380859375E-09;0,100128173828125;6;438;1,19223371148109E-07;-1,15792900323868E-07;100 nA
0,050048828125;226,593622427906;-8,642578125E-09;0,0501708984375;6;439;1,19223371148109E-07;-1,15792900323868E-07;100 nA
0;227,094110426642;-1,07635498046875E-08;0,000143432617187494;6;440;1,19223371148109E-07;-1,15792900323868E-07;100 nA
-0,050048828125;227,594598425379;-1,41754150390625E-08;-0,0496917724609375;6;441;1,19223371148109E-07;-1,15792900323868E-07;100 nA
-0,10009765625;228,095086424115;-1,746826171875E-08;-0,099639892578125;6;442;1,19223371148109E-07;-1,15792900323868E-07;100 nA
-0,150146484375;228,595574422852;-1,73553466796875E-08;-0,14959716796875;6;443;1,19223371148109E-07;-1,15792900323868E-07;100 nA
-0,2001953125;229,096062421588;-1,29974365234375E-08;-0,199432373046875;6;444;1,19223371148109E-07;-1,15792900323868E-07;100 nA
-0,250244140625;229,596550420324;-6,3690185546875E-09;-0,249359130859375;6;445;1,19223371148109E-07;-1,15792900323868E-07;100 nA
-0,30029296875;230,097038419061;-5,3497314453125E-09;-0,29925537109375;6;446;1,19223371148109E-07;-1,15792900323868E-07;100 nA
-0,350341796875;230,597526417797;-5,4290771484375E-09;-0,349212646484375;6;447;1,19223371148109E-07;-1,15792900323868E-07;100 nA
-0,400390625;231,098014416534;-5,6396484375E-09;-0,399078369140625;6;448;1,19223371148109E-07;-1,15792900323868E-07;100 nA
-0,450439453125;231,59850241527;-5,7586669921875E-09;-0,448974609375;6;449;1,19223371148109E-07;-1,15792900323868E-07;100 nA
-0,50048828125;232,098990414006;-5,718994140625E-09;-0,498870849609375;6;450;1,19223371148109E-07;-1,15792900323868E-07;100 nA
-0,550537109375;232,599478412743;-5,6488037109375E-09;-0,54876708984375;6;451;1,19223371148109E-07;-1,15792900323868E-07;100 nA
-0,6005859375;233,099966411479;-5,57861328125E-09;-0,5986328125;6;452;1,19223371148109E-07;-1,15792900323868E-07;100 nA
-0,650634765625;233,600454410216;-5,419921875E-09;-0,648590087890625;6;453;1,19223371148109E-07;-1,15792900323868E-07;100 nA
-0,70068359375;234,100942408952;-5,2276611328125E-09;-0,698638916015625;6;454;1,19223371148109E-07;-1,15792900323868E-07;100 nA
-0,750732421875;234,601430407688;-5,072021484375E-09;-0,74859619140625;6;455;1,19223371148109E-07;-1,15792900323868E-07;100 nA
-0,80078125;235,101918406425;-4,8736572265625E-09;-0,79864501953125;6;456;1,19223371148109E-07;-1,15792900323868E-07;100 nA
-0,850830078125;235,602406405161;-4,730224609375E-09;-0,84869384765625;6;457;1,19223371148109E-07;-1,15792900323868E-07;100 nA
-0,90087890625;236,102894403897;-4,6356201171875E-09;-0,8990478515625;6;458;1,19223371148109E-07;-1,15792900323868E-07;100 nA
-0,950927734375;236,603382402634;-4,6142578125E-09;-0,948486328125;6;459;1,19223371148109E-07;-1,15792900323868E-07;100 nA
-1,0009765625;237,10387040137;-4,58984375E-09;-0,99884033203125;6;460;1,19223371148109E-07;-1,15792900323868E-07;100 nA
-0,950927734375;237,604358400107;-2,5115966796875E-09;-0,948486328125;6;461;1,19223371148109E-07;-1,15792900323868E-07;100 nA
-0,90087890625;238,104846398843;-1,513671875E-09;-0,8990478515625;6;462;1,19223371148109E-07;-1,15792900323868E-07;100 nA
-0,850830078125;238,605334397579;-8,575439453125E-10;-0,84869384765625;6;463;1,19223371148109E-07;-1,15792900323868E-07;100 nA
-0,80078125;239,105822396316;-4,21142578125E-10;-0,79864501953125;6;464;1,19223371148109E-07;-1,15792900323868E-07;100 nA
-0,750732421875;239,606310395052;-2,13623046875E-11;-0,748626708984375;6;465;1,19223371148109E-07;-1,15792900323868E-07;100 nA
-0,70068359375;240,106798393789;3,47900390625E-10;-0,6986083984375;6;466;1,19223371148109E-07;-1,15792900323868E-07;100 nA
-0,650634765625;240,607286392525;7,080078125E-10;-0,648651123046875;6;467;1,19223371148109E-07;-1,15792900323868E-07;100 nA
-0,6005859375;241,107774391261;1,129150390625E-09;-0,5987548828125;6;468;1,19223371148109E-07;-1,15792900323868E-07;100 nA
-0,550537109375;241,608262389998;1,5869140625E-09;-0,548797607421875;6;469;1,19223371148109E-07;-1,15792900323868E-07;100 nA
-0,50048828125;242,108750388734;2,0843505859375E-09;-0,4989013671875;6;470;1,19223371148109E-07;-1,15792900323868E-07;100 nA
-0,450439453125;242,609238387471;2,6885986328125E-09;-0,448974609375;6;471;1,19223371148109E-07;-1,15792900323868E-07;100 nA
-0,400390625;243,109726386207;3,4454345703125E-09;-0,399169921875;6;472;1,19223371148109E-07;-1,15792900323868E-07;100 nA
-0,350341796875;243,610214384943;4,0863037109375E-09;-0,349212646484375;6;473;1,19223371148109E-07;-1,15792900323868E-07;100 nA
-0,30029296875;244,11070238368;4,38232421875E-09;-0,29931640625;6;474;1,19223371148109E-07;-1,15792900323868E-07;100 nA
-0,250244140625;244,611190382416;4,547119140625E-09;-0,2493896484375;6;475;1,19223371148109E-07;-1,15792900323868E-07;100 nA
-0,2001953125;245,111678381153;4,65087890625E-09;-0,199554443359375;6;476;1,19223371148109E-07;-1,15792900323868E-07;100 nA
-0,150146484375;245,612166379889;4,7576904296875E-09;-0,149627685546875;6;477;1,19223371148109E-07;-1,15792900323868E-07;100 nA
-0,10009765625;246,112654378625;5,206298828125E-09;-0,099761962890625;6;478;1,19223371148109E-07;-1,15792900323868E-07;100 nA
-0,050048828125;246,613142377362;6,4971923828125E-09;-0,04986572265625;6;479;1,19223371148109E-07;-1,15792900323868E-07;100 nA
0;247,113630376098;8,70361328125E-09;9,46044921874972E-05;6;480;1,19223371148109E-07;-1,15792900323868E-07;100 nA
0,050048828125;247,614118374834;1,1553955078125E-08;0,050048828125;7;481;1,20498724281788E-07;-1,16070881485939E-07;100 nA
0,10009765625;248,114606373571;1,082763671875E-08;0,100006103515625;7;482;1,20498724281788E-07;-1,16070881485939E-07;100 nA
0,150146484375;248,615094372307;9,197998046875E-09;0,149993896484375;7;483;1,20498724281788E-07;-1,16070881485939E-07;100 nA
0,2001953125;249,115582371044;8,8623046875E-09;0,2000732421875;7;484;1,20498724281788E-07;-1,16070881485939E-07;100 nA
0,250244140625;249,61607036978;8,9263916015625E-09;0,25006103515625;7;485;1,20498724281788E-07;-1,16070881485939E-07;100 nA
0,30029296875;250,116558368516;9,0850830078125E-09;0,300048828125;7;486;1,20498724281788E-07;-1,16070881485939E-07;100 nA
0,350341796875;250,617046367253;9,1949462890625E-09;0,350067138671875;7;487;1,20498724281788E-07;-1,16070881485939E-07;100 nA
0,400390625;251,117534365989;9,31396484375E-09;0,400115966796875;7;488;1,20498724281788E-07;-1,16070881485939E-07;100 nA
0,450439453125;251,618022364726;9,3902587890625E-09;0,4500732421875;7;489;1,20498724281788E-07;-1,16070881485939E-07;100 nA
0,50048828125;252,118510363462;9,405517578125E-09;0,500030517578125;7;490;1,20498724281788E-07;-1,16070881485939E-07;100 nA
0,550537109375;252,618998362198;9,283447265625E-09;0,550079345703125;7;491;1,20498724281788E-07;-1,16070881485939E-07;100 nA
0,6005859375;253,119486360935;9,08203125E-09;0,60009765625;7;492;1,20498724281788E-07;-1,16070881485939E-07;100 nA
0,650634765625;253,619974359671;8,7860107421875E-09;0,650054931640625;7;493;1,20498724281788E-07;-1,16070881485939E-07;100 nA
0,70068359375;254,120462358408;8,4228515625E-09;0,699951171875;7;494;1,20498724281788E-07;-1,16070881485939E-07;100 nA
0,750732421875;254,620950357144;8,050537109375E-09;0,7498779296875;7;495;1,20498724281788E-07;-1,16070881485939E-07;100 nA
0,80078125;255,12143835588;7,72705078125E-09;0,8001708984375;7;496;1,20498724281788E-07;-1,16070881485939E-07;100 nA
0,850830078125;255,621926354617;7,501220703125E-09;0,84991455078125;7;497;1,20498724281788E-07;-1,16070881485939E-07;100 nA
0,90087890625;256,122414353353;7,3333740234375E-09;0,899658203125;7;498;1,20498724281788E-07;-1,16070881485939E-07;100 nA
0,950927734375;256,622902352089;7,2479248046875E-09;0,94970703125;7;499;1,20498724281788E-07;-1,16070881485939E-07;100 nA
1,0009765625;257,123390350826;7,1990966796875E-09;1,00067138671875;7;500;1,20498724281788E-07;-1,16070881485939E-07;100 nA
0,950927734375;257,623878349562;4,0740966796875E-09;0,94970703125;7;501;1,20498724281788E-07;-1,16070881485939E-07;100 nA
0,90087890625;258,124366348299;2,4627685546875E-09;0,899658203125;7;502;1,20498724281788E-07;-1,16070881485939E-07;100 nA
0,850830078125;258,624854347035;1,4617919921875E-09;0,8502197265625;7;503;1,20498724281788E-07;-1,16070881485939E-07;100 nA
0,80078125;259,125342345771;7,232666015625E-10;0,8001708984375;7;504;1,20498724281788E-07;-1,16070881485939E-07;100 nA
0,750732421875;259,625830344508;4,8828125E-11;0,74993896484375;7;505;1,20498724281788E-07;-1,16070881485939E-07;100 nA
0,70068359375;260,126318343244;-5,767822265625E-10;0,70001220703125;7;506;1,20498724281788E-07;-1,16070881485939E-07;100 nA
0,650634765625;260,626806341981;-1,25732421875E-09;0,650146484375;7;507;1,20498724281788E-07;-1,16070881485939E-07;100 nA
0,6005859375;261,127294340717;-2,01416015625E-09;0,600189208984375;7;508;1,20498724281788E-07;-1,16070881485939E-07;100 nA
0,550537109375;261,627782339453;-2,850341796875E-09;0,5501708984375;7;509;1,20498724281788E-07;-1,16070881485939E-07;100 nA
0,50048828125;262,12827033819;-3,6529541015625E-09;0,500213623046875;7;510;1,20498724281788E-07;-1,16070881485939E-07;100 nA
0,450439453125;262,628758336926;-4,3731689453125E-09;0,450164794921875;7;511;1,20498724281788E-07;-1,16070881485939E-07;100 nA
0,400390625;263,129246335663;-5,010986328125E-09;0,400146484375;7;512;1,20498724281788E-07;-1,16070881485939E-07;100 nA
0,350341796875;263,629734334399;-5,6640625E-09;0,35015869140625;7;513;1,20498724281788E-07;-1,16070881485939E-07;100 nA
0,30029296875;264,130222333135;-6,1553955078125E-09;0,30010986328125;7;514;1,20498724281788E-07;-1,16070881485939E-07;100 nA
0,250244140625;264,630710331872;-6,4971923828125E-09;0,250152587890625;7;515;1,20498724281788E-07;-1,16070881485939E-07;100 nA
0,2001953125;265,131198330608;-6,842041015625E-09;0,200103759765625;7;516;1,20498724281788E-07;-1,16070881485939E-07;100 nA
0,150146484375;265,631686329344;-7,2265625E-09;0,150115966796875;7;517;1,20498724281788E-07;-1,16070881485939E-07;100 nA
0,10009765625;266,132174328081;-7,720947265625E-09;0,100128173828125;7;518;1,20498724281788E-07;-1,16070881485939E-07;100 nA
0,050048828125;266,632662326817;-8,7646484375E-09;0,05010986328125;7;519;1,20498724281788E-07;-1,16070881485939E-07;100 nA
0;267,133150325554;-1,0809326171875E-08;0,000158691406249994;7;520;1,20498724281788E-07;-1,16070881485939E-07;100 nA
-0,050048828125;267,63363832429;-1,4251708984375E-08;-0,04974365234375;7;521;1,20498724281788E-07;-1,16070881485939E-07;100 nA
-0,10009765625;268,134126323026;-1,754150390625E-08;-0,099609375;7;522;1,20498724281788E-07;-1,16070881485939E-07;100 nA
-0,150146484375;268,634614321763;-1,73980712890625E-08;-0,149566650390625;7;523;1,20498724281788E-07;-1,16070881485939E-07;100 nA
-0,2001953125;269,135102320499;-1,3006591796875E-08;-0,19940185546875;7;524;1,20498724281788E-07;-1,16070881485939E-07;100 nA
-0,250244140625;269,635590319236;-6,4544677734375E-09;-0,249420166015625;7;525;1,20498724281788E-07;-1,16070881485939E-07;100 nA
-0,30029296875;270,136078317972;-5,4168701171875E-09;-0,29931640625;7;526;1,20498724281788E-07;-1,16070881485939E-07;100 nA
-0,350341796875;270,636566316708;-5,5206298828125E-09;-0,349212646484375;7;527;1,20498724281788E-07;-1,16070881485939E-07;100 nA
-0,400390625;271,137054315445;-5,7159423828125E-09;-0,399078369140625;7;528;1,20498724281788E-07;-1,16070881485939E-07;100 nA
-0,450439453125;271,637542314181;-5,79833984375E-09;-0,448974609375;7;529;1,20498724281788E-07;-1,16070881485939E-07;100 nA
-0,50048828125;272,138030312918;-5,7373046875E-09;-0,498870849609375;7;530;1,20498724281788E-07;-1,16070881485939E-07;100 nA
-0,550537109375;272,638518311654;-5,6549072265625E-09;-0,548797607421875;7;531;1,20498724281788E-07;-1,16070881485939E-07;100 nA
-0,6005859375;273,13900631039;-5,5694580078125E-09;-0,598724365234375;7;532;1,20498724281788E-07;-1,16070881485939E-07;100 nA
-0,650634765625;273,639494309127;-5,46875E-09;-0,64862060546875;7;533;1,20498724281788E-07;-1,16070881485939E-07;100 nA
-0,70068359375;274,139982307863;-5,291748046875E-09;-0,698638916015625;7;534;1,20498724281788E-07;-1,16070881485939E-07;100 nA
-0,750732421875;274,640470306599;-5,0506591796875E-09;-0,748626708984375;7;535;1,20498724281788E-07;-1,16070881485939E-07;100 nA
-0,80078125;275,140958305336;-4,8248291015625E-09;-0,79833984375;7;536;1,20498724281788E-07;-1,16070881485939E-07;100 nA
-0,850830078125;275,641446304072;-4,6966552734375E-09;-0,8489990234375;7;537;1,20498724281788E-07;-1,16070881485939E-07;100 nA
-0,90087890625;276,141934302809;-4,6539306640625E-09;-0,89874267578125;7;538;1,20498724281788E-07;-1,16070881485939E-07;100 nA
-0,950927734375;276,642422301545;-4,60205078125E-09;-0,9490966796875;7;539;1,20498724281788E-07;-1,16070881485939E-07;100 nA
-1,0009765625;277,142910300281;-4,638671875E-09;-0,9991455078125;7;540;1,20498724281788E-07;-1,16070881485939E-07;100 nA
-0,950927734375;277,643398299018;-2,4932861328125E-09;-0,9490966796875;7;541;1,20498724281788E-07;-1,16070881485939E-07;100 nA
-0,90087890625;278,143886297754;-1,4862060546875E-09;-0,8990478515625;7;542;1,20498724281788E-07;-1,16070881485939E-07;100 nA
-0,850830078125;278,644374296491;-8,331298828125E-10;-0,84869384765625;7;543;1,20498724281788E-07;-1,16070881485939E-07;100 nA
-0,80078125;279,144862295227;-3,936767578125E-10;-0,79864501953125;7;544;1,20498724281788E-07;-1,16070881485939E-07;100 nA
-0,750732421875;279,645350293963;6,103515625E-12;-0,748626708984375;7;545;1,20498724281788E-07;-1,16070881485939E-07;100 nA
-0,70068359375;280,1458382927;3,41796875E-10;-0,698638916015625;7;546;1,20498724281788E-07;-1,16070881485939E-07;100 nA
-0,650634765625;280,646326291436;7,99560546875E-10;-0,648590087890625;7;547;1,20498724281788E-07;-1,16070881485939E-07;100 nA
-0,6005859375;281,146814290173;1,2054443359375E-09;-0,598663330078125;7;548;1,20498724281788E-07;-1,16070881485939E-07;100 nA
-0,550537109375;281,647302288909;1,6265869140625E-09;-0,548858642578125;7;549;1,20498724281788E-07;-1,16070881485939E-07;100 nA
-0,50048828125;282,147790287645;2,1270751953125E-09;-0,4989013671875;7;550;1,20498724281788E-07;-1,16070881485939E-07;100 nA
-0,450439453125;282,648278286382;2,7435302734375E-09;-0,448974609375;7;551;1,20498724281788E-07;-1,16070881485939E-07;100 nA
-0,400390625;283,148766285118;3,4912109375E-09;-0,399139404296875;7;552;1,20498724281788E-07;-1,16070881485939E-07;100 nA
-0,350341796875;283,649254283854;4,180908203125E-09;-0,3492431640625;7;553;1,20498724281788E-07;-1,16070881485939E-07;100 nA
-0,30029296875;284,149742282591;4,461669921875E-09;-0,29931640625;7;554;1,20498724281788E-07;-1,16070881485939E-07;100 nA
-0,250244140625;284,650230281327;4,595947265625E-09;-0,249420166015625;7;555;1,20498724281788E-07;-1,16070881485939E-07;100 nA
-0,2001953125;285,150718280064;4,669189453125E-09;-0,199493408203125;7;556;1,20498724281788E-07;-1,16070881485939E-07;100 nA
-0,150146484375;285,6512062788;4,82177734375E-09;-0,149566650390625;7;557;1,20498724281788E-07;-1,16070881485939E-07;100 nA
-0,10009765625;286,151694277536;5,2947998046875E-09;-0,0997314453125;7;558;1,20498724281788E-07;-1,16070881485939E-07;100 nA
-0,050048828125;286,652182276273;6,54296875E-09;-0,049896240234375;7;559;1,20498724281788E-07;-1,16070881485939E-07;100 nA
0;287,152670275009;8,69140625E-09;9,46044921874972E-05;7;560;1,20498724281788E-07;-1,16070881485939E-07;100 nA
0,050048828125;287,653158273746;1,15081787109375E-08;0,050048828125;8;561;1,18878185749054E-07;-1,15241520106792E-07;100 nA
0,10009765625;288,153646272482;1,08245849609375E-08;0,100006103515625;8;562;1,18878185749054E-07;-1,15241520106792E-07;100 nA
0,150146484375;288,654134271218;9,19189453125E-09;0,150054931640625;8;563;1,18878185749054E-07;-1,15241520106792E-07;100 nA
0,2001953125;289,154622269955;8,740234375E-09;0,20001220703125;8;564;1,18878185749054E-07;-1,15241520106792E-07;100 nA
0,250244140625;289,655110268691;8,8836669921875E-09;0,250030517578125;8;565;1,18878185749054E-07;-1,15241520106792E-07;100 nA
0,30029296875;290,155598267428;8,99658203125E-09;0,300018310546875;8;566;1,18878185749054E-07;-1,15241520106792E-07;100 nA
0,350341796875;290,656086266164;9,0972900390625E-09;0,350128173828125;8;567;1,18878185749054E-07;-1,15241520106792E-07;100 nA
0,400390625;291,1565742649;9,222412109375E-09;0,400054931640625;8;568;1,18878185749054E-07;-1,15241520106792E-07;100 nA
0,450439453125;291,657062263637;9,3048095703125E-09;0,450042724609375;8;569;1,18878185749054E-07;-1,15241520106792E-07;100 nA
0,50048828125;292,157550262373;9,320068359375E-09;0,500091552734375;8;570;1,18878185749054E-07;-1,15241520106792E-07;100 nA
0,550537109375;292,658038261109;9,2254638671875E-09;0,550079345703125;8;571;1,18878185749054E-07;-1,15241520106792E-07;100 nA
0,6005859375;293,158526259846;8,9996337890625E-09;0,60009765625;8;572;1,18878185749054E-07;-1,15241520106792E-07;100 nA
0,650634765625;293,659014258582;8,648681640625E-09;0,649993896484375;8;573;1,18878185749054E-07;-1,15241520106792E-07;100 nA
0,70068359375;294,159502257319;8,233642578125E-09;0,69989013671875;8;574;1,18878185749054E-07;-1,15241520106792E-07;100 nA
0,750732421875;294,659990256055;7,92236328125E-09;0,749786376953125;8;575;1,18878185749054E-07;-1,15241520106792E-07;100 nA
0,80078125;295,160478254791;7,659912109375E-09;0,799560546875;8;576;1,18878185749054E-07;-1,15241520106792E-07;100 nA
0,850830078125;295,660966253528;7,4249267578125E-09;0,84991455078125;8;577;1,18878185749054E-07;-1,15241520106792E-07;100 nA
0,90087890625;296,161454252264;7,257080078125E-09;0,89935302734375;8;578;1,18878185749054E-07;-1,15241520106792E-07;100 nA
0,950927734375;296,661942251001;7,1533203125E-09;0,94940185546875;8;579;1,18878185749054E-07;-1,15241520106792E-07;100 nA
1,0009765625;297,162430249737;7,1258544921875E-09;0,99945068359375;8;580;1,18878185749054E-07;-1,15241520106792E-07;100 nA
0,950927734375;297,662918248473;4,0130615234375E-09;0,9503173828125;8;581;1,18878185749054E-07;-1,15241520106792E-07;100 nA
0,90087890625;298,16340624721;2,42919921875E-09;0,89996337890625;8;582;1,18878185749054E-07;-1,15241520106792E-07;100 nA
0,850830078125;298,663894245946;1,4251708984375E-09;0,8502197265625;8;583;1,18878185749054E-07;-1,15241520106792E-07;100 nA
0,80078125;299,164382244683;6,7138671875E-10;0,8001708984375;8;584;1,18878185749054E-07;-1,15241520106792E-07;100 nA
0,750732421875;299,664870243419;3,96728515625E-11;0,7498779296875;8;585;1,18878185749054E-07;-1,15241520106792E-07;100 nA
0,70068359375;300,165358242155;-5,859375E-10;0,70001220703125;8;586;1,18878185749054E-07;-1,15241520106792E-07;100 nA
0,650634765625;300,665846240892;-1,275634765625E-09;0,65008544921875;8;587;1,18878185749054E-07;-1,15241520106792E-07;100 nA
0,6005859375;301,166334239628;-2,05078125E-09;0,60015869140625;8;588;1,18878185749054E-07;-1,15241520106792E-07;100 nA
0,550537109375;301,666822238364;-2,8533935546875E-09;0,550140380859375;8;589;1,18878185749054E-07;-1,15241520106792E-07;100 nA
0,50048828125;302,167310237101;-3,61328125E-09;0,500213623046875;8;590;1,18878185749054E-07;-1,15241520106792E-07;100 nA
0,450439453125;302,667798235837;-4,2938232421875E-09;0,450164794921875;8;591;1,18878185749054E-07;-1,15241520106792E-07;100 nA
0,400390625;303,168286234574;-4,91943359375E-09;0,40020751953125;8;592;1,18878185749054E-07;-1,15241520106792E-07;100 nA
0,350341796875;303,66877423331;-5,5328369140625E-09;0,3502197265625;8;593;1,18878185749054E-07;-1,15241520106792E-07;100 nA
0,30029296875;304,169262232046;-6,01806640625E-09;0,300140380859375;8;594;1,18878185749054E-07;-1,15241520106792E-07;100 nA
0,250244140625;304,669750230783;-6,396484375E-09;0,250152587890625;8;595;1,18878185749054E-07;-1,15241520106792E-07;100 nA
0,2001953125;305,170238229519;-6,756591796875E-09;0,200164794921875;8;596;1,18878185749054E-07;-1,15241520106792E-07;100 nA
0,150146484375;305,670726228256;-7,1258544921875E-09;0,150146484375;8;597;1,18878185749054E-07;-1,15241520106792E-07;100 nA
0,10009765625;306,171214226992;-7,5897216796875E-09;0,100128173828125;8;598;1,18878185749054E-07;-1,15241520106792E-07;100 nA
0,050048828125;306,671702225728;-8,5723876953125E-09;0,0501708984375;8;599;1,18878185749054E-07;-1,15241520106792E-07;100 nA
0;307,172190224465;-1,0699462890625E-08;0,000149536132812503;8;600;1,18878185749054E-07;-1,15241520106792E-07;100 nA
-0,050048828125;307,672678223201;-1,414794921875E-08;-0,049700927734375;8;601;1,18878185749054E-07;-1,15241520106792E-07;100 nA
-0,10009765625;308,173166221938;-1,744384765625E-08;-0,099639892578125;8;602;1,18878185749054E-07;-1,15241520106792E-07;100 nA
-0,150146484375;308,673654220674;-1,72943115234375E-08;-0,149566650390625;8;603;1,18878185749054E-07;-1,15241520106792E-07;100 nA
-0,2001953125;309,17414221941;-1,285400390625E-08;-0,199432373046875;8;604;1,18878185749054E-07;-1,15241520106792E-07;100 nA
-0,250244140625;309,674630218147;-6,3018798828125E-09;-0,249359130859375;8;605;1,18878185749054E-07;-1,15241520106792E-07;100 nA
-0,30029296875;310,175118216883;-5,3680419921875E-09;-0,29925537109375;8;606;1,18878185749054E-07;-1,15241520106792E-07;100 nA
-0,350341796875;310,67560621562;-5,4168701171875E-09;-0,3492431640625;8;607;1,18878185749054E-07;-1,15241520106792E-07;100 nA
-0,400390625;311,176094214356;-5,633544921875E-09;-0,399078369140625;8;608;1,18878185749054E-07;-1,15241520106792E-07;100 nA
-0,450439453125;311,676582213092;-5,7586669921875E-09;-0,44903564453125;8;609;1,18878185749054E-07;-1,15241520106792E-07;100 nA
-0,50048828125;312,177070211829;-5,6793212890625E-09;-0,4989013671875;8;610;1,18878185749054E-07;-1,15241520106792E-07;100 nA
-0,550537109375;312,677558210565;-5,5999755859375E-09;-0,54876708984375;8;611;1,18878185749054E-07;-1,15241520106792E-07;100 nA
-0,6005859375;313,178046209301;-5,535888671875E-09;-0,5986328125;8;612;1,18878185749054E-07;-1,15241520106792E-07;100 nA
-0,650634765625;313,678534208038;-5,4046630859375E-09;-0,64862060546875;8;613;1,18878185749054E-07;-1,15241520106792E-07;100 nA
-0,70068359375;314,179022206774;-5,2337646484375E-09;-0,698577880859375;8;614;1,18878185749054E-07;-1,15241520106792E-07;100 nA
-0,750732421875;314,679510205511;-5,029296875E-09;-0,74859619140625;8;615;1,18878185749054E-07;-1,15241520106792E-07;100 nA
-0,80078125;315,179998204247;-4,8797607421875E-09;-0,79833984375;8;616;1,18878185749054E-07;-1,15241520106792E-07;100 nA
-0,850830078125;315,680486202983;-4,7454833984375E-09;-0,8489990234375;8;617;1,18878185749054E-07;-1,15241520106792E-07;100 nA
-0,90087890625;316,18097420172;-4,65087890625E-09;-0,89874267578125;8;618;1,18878185749054E-07;-1,15241520106792E-07;100 nA
-0,950927734375;316,681462200456;-4,595947265625E-09;-0,9490966796875;8;619;1,18878185749054E-07;-1,15241520106792E-07;100 nA
-1,0009765625;317,181950199193;-4,65087890625E-09;-0,99853515625;8;620;1,18878185749054E-07;-1,15241520106792E-07;100 nA
-0,950927734375;317,682438197929;-2,5665283203125E-09;-0,94879150390625;8;621;1,18878185749054E-07;-1,15241520106792E-07;100 nA
-0,90087890625;318,182926196665;-1,55029296875E-09;-0,8984375;8;622;1,18878185749054E-07;-1,15241520106792E-07;100 nA
-0,850830078125;318,683414195402;-9,70458984375E-10;-0,84869384765625;8;623;1,18878185749054E-07;-1,15241520106792E-07;100 nA
-0,80078125;319,183902194138;-5,31005859375E-10;-0,79864501953125;8;624;1,18878185749054E-07;-1,15241520106792E-07;100 nA
-0,750732421875;319,684390192875;-1,312255859375E-10;-0,748687744140625;8;625;1,18878185749054E-07;-1,15241520106792E-07;100 nA
-0,70068359375;320,184878191611;2,50244140625E-10;-0,698638916015625;8;626;1,18878185749054E-07;-1,15241520106792E-07;100 nA
-0,650634765625;320,685366190347;6,378173828125E-10;-0,648681640625;8;627;1,18878185749054E-07;-1,15241520106792E-07;100 nA
-0,6005859375;321,185854189084;1,0650634765625E-09;-0,598724365234375;8;628;1,18878185749054E-07;-1,15241520106792E-07;100 nA
-0,550537109375;321,68634218782;1,531982421875E-09;-0,548797607421875;8;629;1,18878185749054E-07;-1,15241520106792E-07;100 nA
-0,50048828125;322,186830186556;2,01416015625E-09;-0,4989013671875;8;630;1,18878185749054E-07;-1,15241520106792E-07;100 nA
-0,450439453125;322,687318185293;2,5634765625E-09;-0,44903564453125;8;631;1,18878185749054E-07;-1,15241520106792E-07;100 nA
-0,400390625;323,187806184029;3,3782958984375E-09;-0,399169921875;8;632;1,18878185749054E-07;-1,15241520106792E-07;100 nA
-0,350341796875;323,688294182766;4,0924072265625E-09;-0,349273681640625;8;633;1,18878185749054E-07;-1,15241520106792E-07;100 nA
-0,30029296875;324,188782181502;4,3731689453125E-09;-0,299407958984375;8;634;1,18878185749054E-07;-1,15241520106792E-07;100 nA
-0,250244140625;324,689270180238;4,5135498046875E-09;-0,249420166015625;8;635;1,18878185749054E-07;-1,15241520106792E-07;100 nA
-0,2001953125;325,189758178975;4,6234130859375E-09;-0,19952392578125;8;636;1,18878185749054E-07;-1,15241520106792E-07;100 nA
-0,150146484375;325,690246177711;4,7637939453125E-09;-0,149658203125;8;637;1,18878185749054E-07;-1,15241520106792E-07;100 nA
-0,10009765625;326,190734176448;5,224609375E-09;-0,0997314453125;8;638;1,18878185749054E-07;-1,15241520106792E-07;100 nA
-0,050048828125;326,691222175184;6,5155029296875E-09;-0,049835205078125;8;639;1,18878185749054E-07;-1,15241520106792E-07;100 nA
0;327,19171017392;8,6578369140625E-09;9,46044921874972E-05;8;640;1,18878185749054E-07;-1,15241520106792E-07;100 nA
0,050048828125;327,692198172657;1,15081787109375E-08;0,050018310546875;9;641;1,19860284030437E-07;-1,1579442769289E-07;100 nA
0,10009765625;328,192686171393;1,08306884765625E-08;0,100006103515625;9;642;1,19860284030437E-07;-1,1579442769289E-07;100 nA
0,150146484375;328,69317417013;9,21630859375E-09;0,150054931640625;9;643;1,19860284030437E-07;-1,1579442769289E-07;100 nA
0,2001953125;329,193662168866;8,8348388671875E-09;0,2000732421875;9;644;1,19860284030437E-07;-1,1579442769289E-07;100 nA
0,250244140625;329,694150167602;8,905029296875E-09;0,2501220703125;9;645;1,19860284030437E-07;-1,1579442769289E-07;100 nA
0,30029296875;330,194638166339;9,0606689453125E-09;0,300079345703125;9;646;1,19860284030437E-07;-1,1579442769289E-07;100 nA
0,350341796875;330,695126165075;9,1827392578125E-09;0,350067138671875;9;647;1,19860284030437E-07;-1,1579442769289E-07;100 nA
0,400390625;331,195614163811;9,27734375E-09;0,400146484375;9;648;1,19860284030437E-07;-1,1579442769289E-07;100 nA
0,450439453125;331,696102162548;9,3719482421875E-09;0,450103759765625;9;649;1,19860284030437E-07;-1,1579442769289E-07;100 nA
0,50048828125;332,196590161284;9,3963623046875E-09;0,500091552734375;9;650;1,19860284030437E-07;-1,1579442769289E-07;100 nA
0,550537109375;332,697078160021;9,283447265625E-09;0,55010986328125;9;651;1,19860284030437E-07;-1,1579442769289E-07;100 nA
0,6005859375;333,197566158757;9,06982421875E-09;0,600067138671875;9;652;1,19860284030437E-07;-1,1579442769289E-07;100 nA
0,650634765625;333,698054157493;8,70361328125E-09;0,65008544921875;9;653;1,19860284030437E-07;-1,1579442769289E-07;100 nA
0,70068359375;334,19854215623;8,31298828125E-09;0,699920654296875;9;654;1,19860284030437E-07;-1,1579442769289E-07;100 nA
0,750732421875;334,699030154966;7,965087890625E-09;0,74981689453125;9;655;1,19860284030437E-07;-1,1579442769289E-07;100 nA
0,80078125;335,199518153703;7,70263671875E-09;0,79986572265625;9;656;1,19860284030437E-07;-1,1579442769289E-07;100 nA
0,850830078125;335,700006152439;7,4859619140625E-09;0,849609375;9;657;1,19860284030437E-07;-1,1579442769289E-07;100 nA
0,90087890625;336,200494151175;7,3516845703125E-09;0,89996337890625;9;658;1,19860284030437E-07;-1,1579442769289E-07;100 nA
0,950927734375;336,700982149912;7,208251953125E-09;0,94970703125;9;659;1,19860284030437E-07;-1,1579442769289E-07;100 nA
1,0009765625;337,201470148648;7,1685791015625E-09;0,999755859375;9;660;1,19860284030437E-07;-1,1579442769289E-07;100 nA
0,950927734375;337,701958147385;4,0496826171875E-09;0,94970703125;9;661;1,19860284030437E-07;-1,1579442769289E-07;100 nA
0,90087890625;338,202446146121;2,4383544921875E-09;0,9002685546875;9;662;1,19860284030437E-07;-1,1579442769289E-07;100 nA
0,850830078125;338,702934144857;1,422119140625E-09;0,84991455078125;9;663;1,19860284030437E-07;-1,1579442769289E-07;100 nA
0,80078125;339,203422143594;7,14111328125E-10;0,80047607421875;9;664;1,19860284030437E-07;-1,1579442769289E-07;100 nA
0,750732421875;339,70391014233;9,46044921875E-11;0,749908447265625;9;665;1,19860284030437E-07;-1,1579442769289E-07;100 nA
0,70068359375;340,204398141066;-5,462646484375E-10;0,699981689453125;9;666;1,19860284030437E-07;-1,1579442769289E-07;100 nA
0,650634765625;340,704886139803;-1,23291015625E-09;0,650115966796875;9;667;1,19860284030437E-07;-1,1579442769289E-07;100 nA
0,6005859375;341,205374138539;-1,98974609375E-09;0,600189208984375;9;668;1,19860284030437E-07;-1,1579442769289E-07;100 nA
0,550537109375;341,705862137276;-2,8167724609375E-09;0,550201416015625;9;669;1,19860284030437E-07;-1,1579442769289E-07;100 nA
0,50048828125;342,206350136012;-3,6041259765625E-09;0,500213623046875;9;670;1,19860284030437E-07;-1,1579442769289E-07;100 nA
0,450439453125;342,706838134748;-4,3365478515625E-09;0,4501953125;9;671;1,19860284030437E-07;-1,1579442769289E-07;100 nA
0,400390625;343,207326133485;-4,913330078125E-09;0,400177001953125;9;672;1,19860284030437E-07;-1,1579442769289E-07;100 nA
0,350341796875;343,707814132221;-5,523681640625E-09;0,350189208984375;9;673;1,19860284030437E-07;-1,1579442769289E-07;100 nA
0,30029296875;344,208302130958;-6,0150146484375E-09;0,300140380859375;9;674;1,19860284030437E-07;-1,1579442769289E-07;100 nA
0,250244140625;344,708790129694;-6,402587890625E-09;0,250152587890625;9;675;1,19860284030437E-07;-1,1579442769289E-07;100 nA
0,2001953125;345,20927812843;-6,7230224609375E-09;0,20013427734375;9;676;1,19860284030437E-07;-1,1579442769289E-07;100 nA
0,150146484375;345,709766127167;-7,1014404296875E-09;0,150115966796875;9;677;1,19860284030437E-07;-1,1579442769289E-07;100 nA
0,10009765625;346,210254125903;-7,6202392578125E-09;0,100128173828125;9;678;1,19860284030437E-07;-1,1579442769289E-07;100 nA
0,050048828125;346,71074212464;-8,59375E-09;0,0501708984375;9;679;1,19860284030437E-07;-1,1579442769289E-07;100 nA
0;347,211230123376;-1,0693359375E-08;0,000155639648437497;9;680;1,19860284030437E-07;-1,1579442769289E-07;100 nA
-0,050048828125;347,711718122112;-1,417236328125E-08;-0,04971923828125;9;681;1,19860284030437E-07;-1,1579442769289E-07;100 nA
-0,10009765625;348,212206120849;-1,7498779296875E-08;-0,099639892578125;9;682;1,19860284030437E-07;-1,1579442769289E-07;100 nA
-0,150146484375;348,712694119585;-1,73248291015625E-08;-0,1495361328125;9;683;1,19860284030437E-07;-1,1579442769289E-07;100 nA
-0,2001953125;349,213182118321;-1,28631591796875E-08;-0,199462890625;9;684;1,19860284030437E-07;-1,1579442769289E-07;100 nA
-0,250244140625;349,713670117058;-6,34765625E-09;-0,2493896484375;9;685;1,19860284030437E-07;-1,1579442769289E-07;100 nA
-0,30029296875;350,214158115794;-5,419921875E-09;-0,299285888671875;9;686;1,19860284030437E-07;-1,1579442769289E-07;100 nA
-0,350341796875;350,714646114531;-5,5023193359375E-09;-0,349212646484375;9;687;1,19860284030437E-07;-1,1579442769289E-07;100 nA
-0,400390625;351,215134113267;-5,7037353515625E-09;-0,39910888671875;9;688;1,19860284030437E-07;-1,1579442769289E-07;100 nA
-0,450439453125;351,715622112003;-5,8197021484375E-09;-0,449005126953125;9;689;1,19860284030437E-07;-1,1579442769289E-07;100 nA
-0,50048828125;352,21611011074;-5,7708740234375E-09;-0,4989013671875;9;690;1,19860284030437E-07;-1,1579442769289E-07;100 nA
-0,550537109375;352,716598109476;-5,7037353515625E-09;-0,548736572265625;9;691;1,19860284030437E-07;-1,1579442769289E-07;100 nA
-0,6005859375;353,217086108213;-5,645751953125E-09;-0,598724365234375;9;692;1,19860284030437E-07;-1,1579442769289E-07;100 nA
-0,650634765625;353,717574106949;-5,523681640625E-09;-0,648681640625;9;693;1,19860284030437E-07;-1,1579442769289E-07;100 nA
-0,70068359375;354,218062105685;-5,322265625E-09;-0,69866943359375;9;694;1,19860284030437E-07;-1,1579442769289E-07;100 nA
-0,750732421875;354,718550104422;-5,1177978515625E-09;-0,7486572265625;9;695;1,19860284030437E-07;-1,1579442769289E-07;100 nA
-0,80078125;355,219038103158;-4,9652099609375E-09;-0,7989501953125;9;696;1,19860284030437E-07;-1,1579442769289E-07;100 nA
-0,850830078125;355,719526101895;-4,779052734375E-09;-0,8489990234375;9;697;1,19860284030437E-07;-1,1579442769289E-07;100 nA
-0,90087890625;356,220014100631;-4,67529296875E-09;-0,8990478515625;9;698;1,19860284030437E-07;-1,1579442769289E-07;100 nA
-0,950927734375;356,720502099367;-4,67529296875E-09;-0,9490966796875;9;699;1,19860284030437E-07;-1,1579442769289E-07;100 nA
-1,0009765625;357,220990098104;-4,7027587890625E-09;-0,99884033203125;9;700;1,19860284030437E-07;-1,1579442769289E-07;100 nA
-0,950927734375;357,72147809684;-2,6031494140625E-09;-0,94879150390625;9;701;1,19860284030437E-07;-1,1579442769289E-07;100 nA
-0,90087890625;358,221966095576;-1,5655517578125E-09;-0,89874267578125;9;702;1,19860284030437E-07;-1,1579442769289E-07;100 nA
-0,850830078125;358,722454094313;-9,552001953125E-10;-0,8489990234375;9;703;1,19860284030437E-07;-1,1579442769289E-07;100 nA
-0,80078125;359,222942093049;-4,82177734375E-10;-0,79833984375;9;704;1,19860284030437E-07;-1,1579442769289E-07;100 nA
-0,750732421875;359,723430091786;-1,0986328125E-10;-0,748626708984375;9;705;1,19860284030437E-07;-1,1579442769289E-07;100 nA
-0,70068359375;360,223918090522;2,655029296875E-10;-0,69866943359375;9;706;1,19860284030437E-07;-1,1579442769289E-07;100 nA
-0,650634765625;360,724406089258;6,256103515625E-10;-0,648681640625;9;707;1,19860284030437E-07;-1,1579442769289E-07;100 nA
-0,6005859375;361,224894087995;1,0406494140625E-09;-0,598724365234375;9;708;1,19860284030437E-07;-1,1579442769289E-07;100 nA
-0,550537109375;361,725382086731;1,556396484375E-09;-0,548858642578125;9;709;1,19860284030437E-07;-1,1579442769289E-07;100 nA
-0,50048828125;362,225870085468;2,069091796875E-09;-0,498870849609375;9;710;1,19860284030437E-07;-1,1579442769289E-07;100 nA
-0,450439453125;362,726358084204;2,667236328125E-09;-0,44903564453125;9;711;1,19860284030437E-07;-1,1579442769289E-07;100 nA
-0,400390625;363,22684608294;3,4515380859375E-09;-0,39910888671875;9;712;1,19860284030437E-07;-1,1579442769289E-07;100 nA
-0,350341796875;363,727334081677;4,156494140625E-09;-0,349273681640625;9;713;1,19860284030437E-07;-1,1579442769289E-07;100 nA
-0,30029296875;364,227822080413;4,4342041015625E-09;-0,299346923828125;9;714;1,19860284030437E-07;-1,1579442769289E-07;100 nA
-0,250244140625;364,72831007915;4,5806884765625E-09;-0,2493896484375;9;715;1,19860284030437E-07;-1,1579442769289E-07;100 nA
-0,2001953125;365,228798077886;4,705810546875E-09;-0,19952392578125;9;716;1,19860284030437E-07;-1,1579442769289E-07;100 nA
-0,150146484375;365,729286076622;4,815673828125E-09;-0,149627685546875;9;717;1,19860284030437E-07;-1,1579442769289E-07;100 nA
-0,10009765625;366,229774075359;5,28564453125E-09;-0,099761962890625;9;718;1,19860284030437E-07;-1,1579442769289E-07;100 nA
-0,050048828125;366,730262074095;6,536865234375E-09;-0,049835205078125;9;719;1,19860284030437E-07;-1,1579442769289E-07;100 nA
0;367,230750072831;8,740234375E-09;9,46044921874972E-05;9;720;1,19860284030437E-07;-1,1579442769289E-07;100 nA
0,050048828125;367,731238071568;1,160888671875E-08;0,050048828125;10;721;1,20223797857761E-07;-1,15453824400902E-07;100 nA
0,10009765625;368,231726070304;1,0943603515625E-08;0,10003662109375;10;722;1,20223797857761E-07;-1,15453824400902E-07;100 nA
0,150146484375;368,732214069041;9,271240234375E-09;0,15008544921875;10;723;1,20223797857761E-07;-1,15453824400902E-07;100 nA
0,2001953125;369,232702067777;8,9080810546875E-09;0,20001220703125;10;724;1,20223797857761E-07;-1,15453824400902E-07;100 nA
0,250244140625;369,733190066513;8,935546875E-09;0,250091552734375;10;725;1,20223797857761E-07;-1,15453824400902E-07;100 nA
0,30029296875;370,23367806525;8,9447021484375E-09;0,300048828125;10;726;1,20223797857761E-07;-1,15453824400902E-07;100 nA
0,350341796875;370,734166063986;9,2132568359375E-09;0,35009765625;10;727;1,20223797857761E-07;-1,15453824400902E-07;100 nA
0,400390625;371,234654062723;9,2742919921875E-09;0,400146484375;10;728;1,20223797857761E-07;-1,15453824400902E-07;100 nA
0,450439453125;371,735142061459;9,515380859375E-09;0,4500732421875;10;729;1,20223797857761E-07;-1,15453824400902E-07;100 nA
0,50048828125;372,235630060195;1,0003662109375E-08;0,5001220703125;10;730;1,20223797857761E-07;-1,15453824400902E-07;100 nA
0,550537109375;372,736118058932;9,3017578125E-09;0,550079345703125;10;731;1,20223797857761E-07;-1,15453824400902E-07;100 nA
0,6005859375;373,236606057668;9,09423828125E-09;0,60009765625;10;732;1,20223797857761E-07;-1,15453824400902E-07;100 nA
0,650634765625;373,737094056405;8,7493896484375E-09;0,650054931640625;10;733;1,20223797857761E-07;-1,15453824400902E-07;100 nA
0,70068359375;374,237582055141;8,3526611328125E-09;0,699981689453125;10;734;1,20223797857761E-07;-1,15453824400902E-07;100 nA
0,750732421875;374,738070053877;8,02001953125E-09;0,7498779296875;10;735;1,20223797857761E-07;-1,15453824400902E-07;100 nA
0,80078125;375,238558052614;7,6690673828125E-09;0,8001708984375;10;736;1,20223797857761E-07;-1,15453824400902E-07;100 nA
0,850830078125;375,73904605135;7,4249267578125E-09;0,849609375;10;737;1,20223797857761E-07;-1,15453824400902E-07;100 nA
0,90087890625;376,239534050086;7,2662353515625E-09;0,89996337890625;10;738;1,20223797857761E-07;-1,15453824400902E-07;100 nA
0,950927734375;376,740022048823;7,1533203125E-09;0,94970703125;10;739;1,20223797857761E-07;-1,15453824400902E-07;100 nA
1,0009765625;377,240510047559;7,110595703125E-09;0,99945068359375;10;740;1,20223797857761E-07;-1,15453824400902E-07;100 nA
0,950927734375;377,740998046296;3,997802734375E-09;0,94970703125;10;741;1,20223797857761E-07;-1,15453824400902E-07;100 nA
0,90087890625;378,241486045032;2,3895263671875E-09;0,899658203125;10;742;1,20223797857761E-07;-1,15453824400902E-07;100 nA
0,850830078125;378,741974043768;1,3885498046875E-09;0,84991455078125;10;743;1,20223797857761E-07;-1,15453824400902E-07;100 nA
0,80078125;379,242462042505;6,40869140625E-10;0,79986572265625;10;744;1,20223797857761E-07;-1,15453824400902E-07;100 nA
0,750732421875;379,742950041241;2,74658203125E-11;0,7498779296875;10;745;1,20223797857761E-07;-1,15453824400902E-07;100 nA
0,70068359375;380,243438039978;-6,072998046875E-10;0,70001220703125;10;746;1,20223797857761E-07;-1,15453824400902E-07;100 nA
0,650634765625;380,743926038714;-1,3153076171875E-09;0,65008544921875;10;747;1,20223797857761E-07;-1,15453824400902E-07;100 nA
0,6005859375;381,24441403745;-2,1331787109375E-09;0,600128173828125;10;748;1,20223797857761E-07;-1,15453824400902E-07;100 nA
0,550537109375;381,744902036187;-2,9571533203125E-09;0,550048828125;10;749;1,20223797857761E-07;-1,15453824400902E-07;100 nA
0,50048828125;382,245390034923;-3,7139892578125E-09;0,50006103515625;10;750;1,20223797857761E-07;-1,15453824400902E-07;100 nA
0,450439453125;382,74587803366;-4,4342041015625E-09;0,450164794921875;10;751;1,20223797857761E-07;-1,15453824400902E-07;100 nA
0,400390625;383,246366032396;-5,0506591796875E-09;0,400115966796875;10;752;1,20223797857761E-07;-1,15453824400902E-07;100 nA
0,350341796875;383,746854031132;-5,670166015625E-09;0,35009765625;10;753;1,20223797857761E-07;-1,15453824400902E-07;100 nA
0,30029296875;384,247342029869;-6,1737060546875E-09;0,300048828125;10;754;1,20223797857761E-07;-1,15453824400902E-07;100 nA
0,250244140625;384,747830028605;-6,4727783203125E-09;0,25006103515625;10;755;1,20223797857761E-07;-1,15453824400902E-07;100 nA
0,2001953125;385,248318027342;-6,8328857421875E-09;0,200103759765625;10;756;1,20223797857761E-07;-1,15453824400902E-07;100 nA
0,150146484375;385,748806026078;-7,1990966796875E-09;0,15008544921875;10;757;1,20223797857761E-07;-1,15453824400902E-07;100 nA
0,10009765625;386,249294024814;-7,6995849609375E-09;0,10009765625;10;758;1,20223797857761E-07;-1,15453824400902E-07;100 nA
0,050048828125;386,749782023551;-8,685302734375E-09;0,05010986328125;10;759;1,20223797857761E-07;-1,15453824400902E-07;100 nA
0;387,250270022287;-1,0772705078125E-08;0,000146484375000006;10;760;1,20223797857761E-07;-1,15453824400902E-07;100 nA
-0,050048828125;387,750758021023;-1,42120361328125E-08;-0,0498046875;10;761;1,20223797857761E-07;-1,15453824400902E-07;100 nA
-0,10009765625;388,25124601976;-1,754150390625E-08;-0,099700927734375;10;762;1,20223797857761E-07;-1,15453824400902E-07;100 nA
-0,150146484375;388,751734018496;-1,73370361328125E-08;-0,149566650390625;10;763;1,20223797857761E-07;-1,15453824400902E-07;100 nA
-0,2001953125;389,252222017233;-1,2811279296875E-08;-0,199462890625;10;764;1,20223797857761E-07;-1,15453824400902E-07;100 nA
-0,250244140625;389,752710015969;-6,298828125E-09;-0,249359130859375;10;765;1,20223797857761E-07;-1,15453824400902E-07;100 nA
-0,30029296875;390,253198014705;-5,3985595703125E-09;-0,29925537109375;10;766;1,20223797857761E-07;-1,15453824400902E-07;100 nA
-0,350341796875;390,753686013442;-5,5023193359375E-09;-0,349212646484375;10;767;1,20223797857761E-07;-1,15453824400902E-07;100 nA
-0,400390625;391,254174012178;-5,6915283203125E-09;-0,39910888671875;10;768;1,20223797857761E-07;-1,15453824400902E-07;100 nA
-0,450439453125;391,754662010915;-5,7769775390625E-09;-0,449005126953125;10;769;1,20223797857761E-07;-1,15453824400902E-07;100 nA
-0,50048828125;392,255150009651;-5,6915283203125E-09;-0,498870849609375;10;770;1,20223797857761E-07;-1,15453824400902E-07;100 nA
-0,550537109375;392,755638008387;-5,56640625E-09;-0,548828125;10;771;1,20223797857761E-07;-1,15453824400902E-07;100 nA
-0,6005859375;393,256126007124;-5,4534912109375E-09;-0,598663330078125;10;772;1,20223797857761E-07;-1,15453824400902E-07;100 nA
-0,650634765625;393,75661400586;-5,352783203125E-09;-0,64862060546875;10;773;1,20223797857761E-07;-1,15453824400902E-07;100 nA
-0,70068359375;394,257102004597;-5,224609375E-09;-0,6986083984375;10;774;1,20223797857761E-07;-1,15453824400902E-07;100 nA
-0,750732421875;394,757590003333;-5,0140380859375E-09;-0,74859619140625;10;775;1,20223797857761E-07;-1,15453824400902E-07;100 nA
-0,80078125;395,258078002069;-4,8187255859375E-09;-0,7989501953125;10;776;1,20223797857761E-07;-1,15453824400902E-07;100 nA
-0,850830078125;395,758566000806;-4,644775390625E-09;-0,8489990234375;10;777;1,20223797857761E-07;-1,15453824400902E-07;100 nA
-0,90087890625;396,259053999542;-4,5257568359375E-09;-0,89874267578125;10;778;1,20223797857761E-07;-1,15453824400902E-07;100 nA
-0,950927734375;396,759541998278;-4,5074462890625E-09;-0,9490966796875;10;779;1,20223797857761E-07;-1,15453824400902E-07;100 nA
-1,0009765625;397,260029997015;-4,5196533203125E-09;-0,99853515625;10;780;1,20223797857761E-07;-1,15453824400902E-07;100 nA
-0,950927734375;397,760517995751;-2,4566650390625E-09;-0,94879150390625;10;781;1,20223797857761E-07;-1,15453824400902E-07;100 nA
-0,90087890625;398,261005994488;-1,4373779296875E-09;-0,89874267578125;10;782;1,20223797857761E-07;-1,15453824400902E-07;100 nA
-0,850830078125;398,761493993224;-8,30078125E-10;-0,84869384765625;10;783;1,20223797857761E-07;-1,15453824400902E-07;100 nA
-0,80078125;399,26198199196;-3,509521484375E-10;-0,7989501953125;10;784;1,20223797857761E-07;-1,15453824400902E-07;100 nA
-0,750732421875;399,762469990697;3,96728515625E-11;-0,748565673828125;10;785;1,20223797857761E-07;-1,15453824400902E-07;100 nA
-0,70068359375;400,262957989433;3,47900390625E-10;-0,698638916015625;10;786;1,20223797857761E-07;-1,15453824400902E-07;100 nA
-0,650634765625;400,76344598817;7,4462890625E-10;-0,64862060546875;10;787;1,20223797857761E-07;-1,15453824400902E-07;100 nA
-0,6005859375;401,263933986906;1,1688232421875E-09;-0,598724365234375;10;788;1,20223797857761E-07;-1,15453824400902E-07;100 nA
-0,550537109375;401,764421985642;1,6143798828125E-09;-0,548828125;10;789;1,20223797857761E-07;-1,15453824400902E-07;100 nA
-0,50048828125;402,264909984379;2,099609375E-09;-0,498931884765625;10;790;1,20223797857761E-07;-1,15453824400902E-07;100 nA
-0,450439453125;402,765397983115;2,6824951171875E-09;-0,449005126953125;10;791;1,20223797857761E-07;-1,15453824400902E-07;100 nA
-0,400390625;403,265885981852;3,4576416015625E-09;-0,399169921875;10;792;1,20223797857761E-07;-1,15453824400902E-07;100 nA
-0,350341796875;403,766373980588;4,1259765625E-09;-0,349273681640625;10;793;1,20223797857761E-07;-1,15453824400902E-07;100 nA
-0,30029296875;404,266861979324;4,4342041015625E-09;-0,299346923828125;10;794;1,20223797857761E-07;-1,15453824400902E-07;100 nA
-0,250244140625;404,767349978061;4,5867919921875E-09;-0,249420166015625;10;795;1,20223797857761E-07;-1,15453824400902E-07;100 nA
-0,2001953125;405,267837976797;4,656982421875E-09;-0,19952392578125;10;796;1,20223797857761E-07;-1,15453824400902E-07;100 nA
-0,150146484375;405,768325975533;4,7607421875E-09;-0,149658203125;10;797;1,20223797857761E-07;-1,15453824400902E-07;100 nA
-0,10009765625;406,26881397427;5,1849365234375E-09;-0,099761962890625;10;798;1,20223797857761E-07;-1,15453824400902E-07;100 nA
-0,050048828125;406,769301973006;6,439208984375E-09;-0,0499267578125;10;799;1,20223797857761E-07;-1,15453824400902E-07;100 nA
0;407,269789971743;8,6639404296875E-09;8,85009765625028E-05;10;800;1,20223797857761E-07;-1,15453824400902E-07;100 nA
