Potential applied (V);Time (s);WE(1).Current (A);WE(1).Potential (V);Scan;Index;Q+;Q-;Current range
0,050048828125;7,45948098116662;1,5228271484375E-09;0,050048828125;1;1;8,79016146063804E-08;-1,34610086679459E-07;100 nA
0,10009765625;7,95996897990301;2,728271484375E-09;0,10009765625;1;2;8,79016146063804E-08;-1,34610086679459E-07;100 nA
0,150146484375;8,4604569786394;3,52783203125E-09;0,150054931640625;1;3;8,79016146063804E-08;-1,34610086679459E-07;100 nA
0,2001953125;8,96094497737579;3,887939453125E-09;0,200042724609375;1;4;8,79016146063804E-08;-1,34610086679459E-07;100 nA
0,250244140625;9,46143297611218;4,0252685546875E-09;0,250030517578125;1;5;8,79016146063804E-08;-1,34610086679459E-07;100 nA
0,30029296875;9,96192097484857;4,2327880859375E-09;0,30010986328125;1;6;8,79016146063804E-08;-1,34610086679459E-07;100 nA
0,350341796875;10,462408973585;4,486083984375E-09;0,35003662109375;1;7;8,79016146063804E-08;-1,34610086679459E-07;100 nA
0,400390625;10,9628969723213;4,742431640625E-09;0,400115966796875;1;8;8,79016146063804E-08;-1,34610086679459E-07;100 nA
0,450439453125;11,4633849710577;4,986572265625E-09;0,450103759765625;1;9;8,79016146063804E-08;-1,34610086679459E-07;100 nA
0,50048828125;11,9638729697941;5,267333984375E-09;0,500091552734375;1;10;8,79016146063804E-08;-1,34610086679459E-07;100 nA
0,550537109375;12,4643609685305;5,6427001953125E-09;0,550079345703125;1;11;8,79016146063804E-08;-1,34610086679459E-07;100 nA
0,6005859375;12,9648489672669;6,011962890625E-09;0,60009765625;1;12;8,79016146063804E-08;-1,34610086679459E-07;100 nA
0,650634765625;13,4653369660033;6,2957763671875E-09;0,649993896484375;1;13;8,79016146063804E-08;-1,34610086679459E-07;100 nA
0,70068359375;13,9658249647397;6,5826416015625E-09;0,70001220703125;1;14;8,79016146063804E-08;-1,34610086679459E-07;100 nA
0,750732421875;14,4663129634761;6,7901611328125E-09;0,749847412109375;1;15;8,79016146063804E-08;-1,34610086679459E-07;100 nA
0,80078125;14,9668009622125;6,8756103515625E-09;0,799560546875;1;16;8,79016146063804E-08;-1,34610086679459E-07;100 nA
0,850830078125;15,4672889609488;6,951904296875E-09;0,84991455078125;1;17;8,79016146063804E-08;-1,34610086679459E-07;100 nA
0,90087890625;15,9677769596852;6,988525390625E-09;0,89996337890625;1;18;8,79016146063804E-08;-1,34610086679459E-07;100 nA
0,950927734375;16,4682649584216;7,1136474609375E-09;0,94940185546875;1;19;8,79016146063804E-08;-1,34610086679459E-07;100 nA
1,0009765625;16,968752957158;7,1990966796875E-09;0,99945068359375;1;20;8,79016146063804E-08;-1,34610086679459E-07;100 nA
0,950927734375;17,4692409558944;4,986572265625E-09;0,94940185546875;1;21;8,79016146063804E-08;-1,34610086679459E-07;100 nA
0,90087890625;17,9697289546308;3,6041259765625E-09;0,89935302734375;1;22;8,79016146063804E-08;-1,34610086679459E-07;100 nA
0,850830078125;18,4702169533672;2,5390625E-09;0,849609375;1;23;8,79016146063804E-08;-1,34610086679459E-07;100 nA
0,80078125;18,9707049521036;1,7425537109375E-09;0,80047607421875;1;24;8,79016146063804E-08;-1,34610086679459E-07;100 nA
0,750732421875;19,47119295084;4,69970703125E-10;0,749847412109375;1;25;8,79016146063804E-08;-1,34610086679459E-07;100 nA
0,70068359375;19,9716809495764;4,486083984375E-10;0,699951171875;1;26;8,79016146063804E-08;-1,34610086679459E-07;100 nA
0,650634765625;20,4721689483127;-9,46044921875E-11;0,650115966796875;1;27;8,79016146063804E-08;-1,34610086679459E-07;100 nA
0,6005859375;20,9726569470491;-6,805419921875E-10;0,600067138671875;1;28;8,79016146063804E-08;-1,34610086679459E-07;100 nA
0,550537109375;21,4731449457855;-1,2054443359375E-09;0,550140380859375;1;29;8,79016146063804E-08;-1,34610086679459E-07;100 nA
0,50048828125;21,9736329445219;-1,64794921875E-09;0,5001220703125;1;30;8,79016146063804E-08;-1,34610086679459E-07;100 nA
0,450439453125;22,4741209432583;-2,30712890625E-09;0,4500732421875;1;31;8,79016146063804E-08;-1,34610086679459E-07;100 nA
0,400390625;22,9746089419947;-2,6824951171875E-09;0,400146484375;1;32;8,79016146063804E-08;-1,34610086679459E-07;100 nA
0,350341796875;23,4750969407311;-3,16162109375E-09;0,35003662109375;1;33;8,79016146063804E-08;-1,34610086679459E-07;100 nA
0,30029296875;23,9755849394675;-3,6773681640625E-09;0,30010986328125;1;34;8,79016146063804E-08;-1,34610086679459E-07;100 nA
0,250244140625;24,4760729382039;-4,04052734375E-09;0,250091552734375;1;35;8,79016146063804E-08;-1,34610086679459E-07;100 nA
0,2001953125;24,9765609369402;-4,3731689453125E-09;0,2000732421875;1;36;8,79016146063804E-08;-1,34610086679459E-07;100 nA
0,150146484375;25,4770489356766;-4,7576904296875E-09;0,1500244140625;1;37;8,79016146063804E-08;-1,34610086679459E-07;100 nA
0,10009765625;25,977536934413;-5,078125E-09;0,10003662109375;1;38;8,79016146063804E-08;-1,34610086679459E-07;100 nA
0,050048828125;26,4780249331494;-5,4931640625E-09;0,050018310546875;1;39;8,79016146063804E-08;-1,34610086679459E-07;100 nA
0;26,9785129318858;-6,195068359375E-09;0,0001068115234375;1;40;8,79016146063804E-08;-1,34610086679459E-07;100 nA
-0,050048828125;27,4790009306222;-7,110595703125E-09;-0,049835205078125;1;41;8,79016146063804E-08;-1,34610086679459E-07;100 nA
-0,10009765625;27,9794889293586;-8,3099365234375E-09;-0,099761962890625;1;42;8,79016146063804E-08;-1,34610086679459E-07;100 nA
-0,150146484375;28,479976928095;-9,1796875E-09;-0,149566650390625;1;43;8,79016146063804E-08;-1,34610086679459E-07;100 nA
-0,2001953125;28,9804649268314;-9,7991943359375E-09;-0,199493408203125;1;44;8,79016146063804E-08;-1,34610086679459E-07;100 nA
-0,250244140625;29,4809529255677;-1,04736328125E-08;-0,249420166015625;1;45;8,79016146063804E-08;-1,34610086679459E-07;100 nA
-0,30029296875;29,9814409243041;-1,11419677734375E-08;-0,299224853515625;1;46;8,79016146063804E-08;-1,34610086679459E-07;100 nA
-0,350341796875;30,4819289230405;-1,17645263671875E-08;-0,34918212890625;1;47;8,79016146063804E-08;-1,34610086679459E-07;100 nA
-0,400390625;30,9824169217769;-1,2396240234375E-08;-0,39910888671875;1;48;8,79016146063804E-08;-1,34610086679459E-07;100 nA
-0,450439453125;31,4829049205133;-1,29669189453125E-08;-0,44891357421875;1;49;8,79016146063804E-08;-1,34610086679459E-07;100 nA
-0,50048828125;31,9833929192497;-1,3494873046875E-08;-0,498809814453125;1;50;8,79016146063804E-08;-1,34610086679459E-07;100 nA
-0,550537109375;32,4838809179861;-1,3916015625E-08;-0,54876708984375;1;51;8,79016146063804E-08;-1,34610086679459E-07;100 nA
-0,6005859375;32,9843689167225;-1,412353515625E-08;-0,598602294921875;1;52;8,79016146063804E-08;-1,34610086679459E-07;100 nA
-0,650634765625;33,4848569154589;-1,3800048828125E-08;-0,6485595703125;1;53;8,79016146063804E-08;-1,34610086679459E-07;100 nA
-0,70068359375;33,9853449141953;-1,23626708984375E-08;-0,698577880859375;1;54;8,79016146063804E-08;-1,34610086679459E-07;100 nA
-0,750732421875;34,4858329129316;-1,1248779296875E-08;-0,74853515625;1;55;8,79016146063804E-08;-1,34610086679459E-07;100 nA
-0,80078125;34,986320911668;-9,906005859375E-09;-0,79833984375;1;56;8,79016146063804E-08;-1,34610086679459E-07;100 nA
-0,850830078125;35,4868089104044;-8,4625244140625E-09;-0,8489990234375;1;57;8,79016146063804E-08;-1,34610086679459E-07;100 nA
-0,90087890625;35,9872969091408;-7,537841796875E-09;-0,8984375;1;58;8,79016146063804E-08;-1,34610086679459E-07;100 nA
-0,950927734375;36,4877849078772;-7,09228515625E-09;-0,948486328125;1;59;8,79016146063804E-08;-1,34610086679459E-07;100 nA
-1,0009765625;36,9882729066136;-6,878662109375E-09;-0,99884033203125;1;60;8,79016146063804E-08;-1,34610086679459E-07;100 nA
-0,950927734375;37,48876090535;-4,4036865234375E-09;-0,9490966796875;1;61;8,79016146063804E-08;-1,34610086679459E-07;100 nA
-0,90087890625;37,9892489040864;-2,9754638671875E-09;-0,8990478515625;1;62;8,79016146063804E-08;-1,34610086679459E-07;100 nA
-0,850830078125;38,4897369028228;-2,0477294921875E-09;-0,84869384765625;1;63;8,79016146063804E-08;-1,34610086679459E-07;100 nA
-0,80078125;38,9902249015591;-1,3214111328125E-09;-0,79833984375;1;64;8,79016146063804E-08;-1,34610086679459E-07;100 nA
-0,750732421875;39,4907129002955;-6,988525390625E-10;-0,748626708984375;1;65;8,79016146063804E-08;-1,34610086679459E-07;100 nA
-0,70068359375;39,9912008990319;-1,495361328125E-10;-0,698486328125;1;66;8,79016146063804E-08;-1,34610086679459E-07;100 nA
-0,650634765625;40,4916888977683;4,119873046875E-10;-0,6485595703125;1;67;8,79016146063804E-08;-1,34610086679459E-07;100 nA
-0,6005859375;40,9921768965047;9,6435546875E-10;-0,5986328125;1;68;8,79016146063804E-08;-1,34610086679459E-07;100 nA
-0,550537109375;41,4926648952411;1,4801025390625E-09;-0,54876708984375;1;69;8,79016146063804E-08;-1,34610086679459E-07;100 nA
-0,50048828125;41,9931528939775;2,1240234375E-09;-0,498809814453125;1;70;8,79016146063804E-08;-1,34610086679459E-07;100 nA
-0,450439453125;42,4936408927139;2,83203125E-09;-0,448974609375;1;71;8,79016146063804E-08;-1,34610086679459E-07;100 nA
-0,400390625;42,9941288914503;3,5552978515625E-09;-0,399078369140625;1;72;8,79016146063804E-08;-1,34610086679459E-07;100 nA
-0,350341796875;43,4946168901866;4,1046142578125E-09;-0,34918212890625;1;73;8,79016146063804E-08;-1,34610086679459E-07;100 nA
-0,30029296875;43,995104888923;4,595947265625E-09;-0,29931640625;1;74;8,79016146063804E-08;-1,34610086679459E-07;100 nA
-0,250244140625;44,4955928876594;4,99267578125E-09;-0,249359130859375;1;75;8,79016146063804E-08;-1,34610086679459E-07;100 nA
-0,2001953125;44,9960808863958;5,28564453125E-09;-0,199493408203125;1;76;8,79016146063804E-08;-1,34610086679459E-07;100 nA
-0,150146484375;45,4965688851322;5,6640625E-09;-0,149658203125;1;77;8,79016146063804E-08;-1,34610086679459E-07;100 nA
-0,10009765625;45,9970568838686;6,036376953125E-09;-0,0997314453125;1;78;8,79016146063804E-08;-1,34610086679459E-07;100 nA
-0,050048828125;46,497544882605;6,60400390625E-09;-0,049835205078125;1;79;8,79016146063804E-08;-1,34610086679459E-07;100 nA
0;46,9980328813414;7,330322265625E-09;0,000131225585937506;1;80;8,79016146063804E-08;-1,34610086679459E-07;100 nA
0,050048828125;47,4985208800778;8,135986328125E-09;0,050079345703125;2;81;1,2848075479269E-07;-1,30965784192085E-07;100 nA
0,10009765625;47,9990088788142;9,0484619140625E-09;0,10003662109375;2;82;1,2848075479269E-07;-1,30965784192085E-07;100 nA
0,150146484375;48,4994968775505;9,68017578125E-09;0,150054931640625;2;83;1,2848075479269E-07;-1,30965784192085E-07;100 nA
0,2001953125;48,9999848762869;1,011962890625E-08;0,2000732421875;2;84;1,2848075479269E-07;-1,30965784192085E-07;100 nA
0,250244140625;49,5004728750233;1,04034423828125E-08;0,2501220703125;2;85;1,2848075479269E-07;-1,30965784192085E-07;100 nA
0,30029296875;50,0009608737597;1,05865478515625E-08;0,300048828125;2;86;1,2848075479269E-07;-1,30965784192085E-07;100 nA
0,350341796875;50,5014488724961;1,07177734375E-08;0,35009765625;2;87;1,2848075479269E-07;-1,30965784192085E-07;100 nA
0,400390625;51,0019368712325;1,0650634765625E-08;0,400146484375;2;88;1,2848075479269E-07;-1,30965784192085E-07;100 nA
0,450439453125;51,5024248699689;9,9395751953125E-09;0,4500732421875;2;89;1,2848075479269E-07;-1,30965784192085E-07;100 nA
0,50048828125;52,0029128687053;9,1583251953125E-09;0,50006103515625;2;90;1,2848075479269E-07;-1,30965784192085E-07;100 nA
0,550537109375;52,5034008674417;8,6944580078125E-09;0,550079345703125;2;91;1,2848075479269E-07;-1,30965784192085E-07;100 nA
0,6005859375;53,003888866178;8,5296630859375E-09;0,600067138671875;2;92;1,2848075479269E-07;-1,30965784192085E-07;100 nA
0,650634765625;53,5043768649144;8,526611328125E-09;0,649993896484375;2;93;1,2848075479269E-07;-1,30965784192085E-07;100 nA
0,70068359375;54,0048648636508;8,5845947265625E-09;0,699951171875;2;94;1,2848075479269E-07;-1,30965784192085E-07;100 nA
0,750732421875;54,5053528623872;8,612060546875E-09;0,749847412109375;2;95;1,2848075479269E-07;-1,30965784192085E-07;100 nA
0,80078125;55,0058408611236;8,5174560546875E-09;0,79986572265625;2;96;1,2848075479269E-07;-1,30965784192085E-07;100 nA
0,850830078125;55,50632885986;8,4136962890625E-09;0,849609375;2;97;1,2848075479269E-07;-1,30965784192085E-07;100 nA
0,90087890625;56,0068168585964;8,233642578125E-09;0,89935302734375;2;98;1,2848075479269E-07;-1,30965784192085E-07;100 nA
0,950927734375;56,5073048573328;8,1146240234375E-09;0,94940185546875;2;99;1,2848075479269E-07;-1,30965784192085E-07;100 nA
1,0009765625;57,0077928560692;8,0841064453125E-09;0,999755859375;2;100;1,2848075479269E-07;-1,30965784192085E-07;100 nA
0,950927734375;57,5082808548055;5,6640625E-09;0,94940185546875;2;101;1,2848075479269E-07;-1,30965784192085E-07;100 nA
0,90087890625;58,0087688535419;4,1107177734375E-09;0,899658203125;2;102;1,2848075479269E-07;-1,30965784192085E-07;100 nA
0,850830078125;58,5092568522783;3,155517578125E-09;0,84991455078125;2;103;1,2848075479269E-07;-1,30965784192085E-07;100 nA
0,80078125;59,0097448510147;2,08740234375E-09;0,79986572265625;2;104;1,2848075479269E-07;-1,30965784192085E-07;100 nA
0,750732421875;59,5102328497511;1,348876953125E-09;0,74981689453125;2;105;1,2848075479269E-07;-1,30965784192085E-07;100 nA
0,70068359375;60,0107208484875;6,744384765625E-10;0,699920654296875;2;106;1,2848075479269E-07;-1,30965784192085E-07;100 nA
0,650634765625;60,5112088472239;7,01904296875E-11;0,649993896484375;2;107;1,2848075479269E-07;-1,30965784192085E-07;100 nA
0,6005859375;61,0116968459603;-4,852294921875E-10;0,600006103515625;2;108;1,2848075479269E-07;-1,30965784192085E-07;100 nA
0,550537109375;61,5121848446967;-1,0589599609375E-09;0,550018310546875;2;109;1,2848075479269E-07;-1,30965784192085E-07;100 nA
0,50048828125;62,0126728434331;-1,5899658203125E-09;0,500091552734375;2;110;1,2848075479269E-07;-1,30965784192085E-07;100 nA
0,450439453125;62,5131608421694;-2,099609375E-09;0,45013427734375;2;111;1,2848075479269E-07;-1,30965784192085E-07;100 nA
0,400390625;63,0136488409058;-2,5634765625E-09;0,400146484375;2;112;1,2848075479269E-07;-1,30965784192085E-07;100 nA
0,350341796875;63,5141368396422;-3,0181884765625E-09;0,350067138671875;2;113;1,2848075479269E-07;-1,30965784192085E-07;100 nA
0,30029296875;64,0146248383786;-3,4393310546875E-09;0,300048828125;2;114;1,2848075479269E-07;-1,30965784192085E-07;100 nA
0,250244140625;64,515112837115;-3,8055419921875E-09;0,250152587890625;2;115;1,2848075479269E-07;-1,30965784192085E-07;100 nA
0,2001953125;65,0156008358514;-4,18701171875E-09;0,2000732421875;2;116;1,2848075479269E-07;-1,30965784192085E-07;100 nA
0,150146484375;65,5160888345878;-4,510498046875E-09;0,150054931640625;2;117;1,2848075479269E-07;-1,30965784192085E-07;100 nA
0,10009765625;66,0165768333242;-4,827880859375E-09;0,10009765625;2;118;1,2848075479269E-07;-1,30965784192085E-07;100 nA
0,050048828125;66,5170648320606;-5,31005859375E-09;0,05010986328125;2;119;1,2848075479269E-07;-1,30965784192085E-07;100 nA
0;67,0175528307969;-5,9814453125E-09;0,000125122070312497;2;120;1,2848075479269E-07;-1,30965784192085E-07;100 nA
-0,050048828125;67,5180408295333;-6,9854736328125E-09;-0,0498046875;2;121;1,2848075479269E-07;-1,30965784192085E-07;100 nA
-0,10009765625;68,0185288282697;-8,154296875E-09;-0,099700927734375;2;122;1,2848075479269E-07;-1,30965784192085E-07;100 nA
-0,150146484375;68,5190168270061;-9,0911865234375E-09;-0,149566650390625;2;123;1,2848075479269E-07;-1,30965784192085E-07;100 nA
-0,2001953125;69,0195048257425;-9,7503662109375E-09;-0,199493408203125;2;124;1,2848075479269E-07;-1,30965784192085E-07;100 nA
-0,250244140625;69,5199928244789;-1,04522705078125E-08;-0,24932861328125;2;125;1,2848075479269E-07;-1,30965784192085E-07;100 nA
-0,30029296875;70,0204808232153;-1,1151123046875E-08;-0,299224853515625;2;126;1,2848075479269E-07;-1,30965784192085E-07;100 nA
-0,350341796875;70,5209688219517;-1,17889404296875E-08;-0,349212646484375;2;127;1,2848075479269E-07;-1,30965784192085E-07;100 nA
-0,400390625;71,0214568206881;-1,2469482421875E-08;-0,399078369140625;2;128;1,2848075479269E-07;-1,30965784192085E-07;100 nA
-0,450439453125;71,5219448194244;-1,30096435546875E-08;-0,449005126953125;2;129;1,2848075479269E-07;-1,30965784192085E-07;100 nA
-0,50048828125;72,0224328181608;-1,35040283203125E-08;-0,49884033203125;2;130;1,2848075479269E-07;-1,30965784192085E-07;100 nA
-0,550537109375;72,5229208168972;-1,39007568359375E-08;-0,548736572265625;2;131;1,2848075479269E-07;-1,30965784192085E-07;100 nA
-0,6005859375;73,0234088156336;-1,39862060546875E-08;-0,598602294921875;2;132;1,2848075479269E-07;-1,30965784192085E-07;100 nA
-0,650634765625;73,52389681437;-1,34246826171875E-08;-0,6485595703125;2;133;1,2848075479269E-07;-1,30965784192085E-07;100 nA
-0,70068359375;74,0243848131064;-1,19415283203125E-08;-0,6986083984375;2;134;1,2848075479269E-07;-1,30965784192085E-07;100 nA
-0,750732421875;74,5248728118428;-1,08428955078125E-08;-0,748565673828125;2;135;1,2848075479269E-07;-1,30965784192085E-07;100 nA
-0,80078125;75,0253608105792;-9,3017578125E-09;-0,7989501953125;2;136;1,2848075479269E-07;-1,30965784192085E-07;100 nA
-0,850830078125;75,5258488093156;-7,9193115234375E-09;-0,8489990234375;2;137;1,2848075479269E-07;-1,30965784192085E-07;100 nA
-0,90087890625;76,026336808052;-7,1258544921875E-09;-0,8984375;2;138;1,2848075479269E-07;-1,30965784192085E-07;100 nA
-0,950927734375;76,5268248067883;-6,7291259765625E-09;-0,94879150390625;2;139;1,2848075479269E-07;-1,30965784192085E-07;100 nA
-1,0009765625;77,0273128055247;-6,57958984375E-09;-0,99884033203125;2;140;1,2848075479269E-07;-1,30965784192085E-07;100 nA
-0,950927734375;77,5278008042611;-4,168701171875E-09;-0,9490966796875;2;141;1,2848075479269E-07;-1,30965784192085E-07;100 nA
-0,90087890625;78,0282888029975;-2,7923583984375E-09;-0,89874267578125;2;142;1,2848075479269E-07;-1,30965784192085E-07;100 nA
-0,850830078125;78,5287768017339;-1,9287109375E-09;-0,8489990234375;2;143;1,2848075479269E-07;-1,30965784192085E-07;100 nA
-0,80078125;79,0292648004703;-1,226806640625E-09;-0,79833984375;2;144;1,2848075479269E-07;-1,30965784192085E-07;100 nA
-0,750732421875;79,5297527992067;-5,67626953125E-10;-0,748565673828125;2;145;1,2848075479269E-07;-1,30965784192085E-07;100 nA
-0,70068359375;80,0302407979431;-6,103515625E-12;-0,698577880859375;2;146;1,2848075479269E-07;-1,30965784192085E-07;100 nA
-0,650634765625;80,5307287966795;5,401611328125E-10;-0,648590087890625;2;147;1,2848075479269E-07;-1,30965784192085E-07;100 nA
-0,6005859375;81,0312167954158;1,123046875E-09;-0,598663330078125;2;148;1,2848075479269E-07;-1,30965784192085E-07;100 nA
-0,550537109375;81,5317047941522;1,6326904296875E-09;-0,54876708984375;2;149;1,2848075479269E-07;-1,30965784192085E-07;100 nA
-0,50048828125;82,0321927928886;2,2674560546875E-09;-0,498870849609375;2;150;1,2848075479269E-07;-1,30965784192085E-07;100 nA
-0,450439453125;82,532680791625;2,935791015625E-09;-0,448974609375;2;151;1,2848075479269E-07;-1,30965784192085E-07;100 nA
-0,400390625;83,0331687903614;3,6285400390625E-09;-0,399078369140625;2;152;1,2848075479269E-07;-1,30965784192085E-07;100 nA
-0,350341796875;83,5336567890978;4,2022705078125E-09;-0,349151611328125;2;153;1,2848075479269E-07;-1,30965784192085E-07;100 nA
-0,30029296875;84,0341447878342;4,6783447265625E-09;-0,29925537109375;2;154;1,2848075479269E-07;-1,30965784192085E-07;100 nA
-0,250244140625;84,5346327865706;5,0048828125E-09;-0,249359130859375;2;155;1,2848075479269E-07;-1,30965784192085E-07;100 nA
-0,2001953125;85,035120785307;5,3375244140625E-09;-0,199462890625;2;156;1,2848075479269E-07;-1,30965784192085E-07;100 nA
-0,150146484375;85,5356087840433;5,6365966796875E-09;-0,149627685546875;2;157;1,2848075479269E-07;-1,30965784192085E-07;100 nA
-0,10009765625;86,0360967827797;5,9783935546875E-09;-0,0997314453125;2;158;1,2848075479269E-07;-1,30965784192085E-07;100 nA
-0,050048828125;86,5365847815161;6,5765380859375E-09;-0,04986572265625;2;159;1,2848075479269E-07;-1,30965784192085E-07;100 nA
0;87,0370727802525;7,305908203125E-09;0,000115966796875006;2;160;1,2848075479269E-07;-1,30965784192085E-07;100 nA
0,050048828125;87,5375607789889;8,1390380859375E-09;0,050079345703125;3;161;1,29022970795631E-07;-1,30695439875126E-07;100 nA
0,10009765625;88,0380487777253;8,9263916015625E-09;0,10003662109375;3;162;1,29022970795631E-07;-1,30695439875126E-07;100 nA
0,150146484375;88,5385367764617;9,6435546875E-09;0,1500244140625;3;163;1,29022970795631E-07;-1,30695439875126E-07;100 nA
0,2001953125;89,0390247751981;1,00921630859375E-08;0,2000732421875;3;164;1,29022970795631E-07;-1,30695439875126E-07;100 nA
0,250244140625;89,5395127739345;1,04034423828125E-08;0,250030517578125;3;165;1,29022970795631E-07;-1,30695439875126E-07;100 nA
0,30029296875;90,0400007726709;1,05743408203125E-08;0,300018310546875;3;166;1,29022970795631E-07;-1,30695439875126E-07;100 nA
0,350341796875;90,5404887714072;1,06903076171875E-08;0,350128173828125;3;167;1,29022970795631E-07;-1,30695439875126E-07;100 nA
0,400390625;91,0409767701436;1,06201171875E-08;0,400054931640625;3;168;1,29022970795631E-07;-1,30695439875126E-07;100 nA
0,450439453125;91,54146476888;9,979248046875E-09;0,4500732421875;3;169;1,29022970795631E-07;-1,30695439875126E-07;100 nA
0,50048828125;92,0419527676164;9,1705322265625E-09;0,500091552734375;3;170;1,29022970795631E-07;-1,30695439875126E-07;100 nA
0,550537109375;92,5424407663528;8,7158203125E-09;0,55010986328125;3;171;1,29022970795631E-07;-1,30695439875126E-07;100 nA
0,6005859375;93,0429287650892;8,5296630859375E-09;0,600128173828125;3;172;1,29022970795631E-07;-1,30695439875126E-07;100 nA
0,650634765625;93,5434167638256;8,58154296875E-09;0,649993896484375;3;173;1,29022970795631E-07;-1,30695439875126E-07;100 nA
0,70068359375;94,043904762562;8,612060546875E-09;0,699951171875;3;174;1,29022970795631E-07;-1,30695439875126E-07;100 nA
0,750732421875;94,5443927612984;8,6578369140625E-09;0,7498779296875;3;175;1,29022970795631E-07;-1,30695439875126E-07;100 nA
0,80078125;95,0448807600347;8,5968017578125E-09;0,79986572265625;3;176;1,29022970795631E-07;-1,30695439875126E-07;100 nA
0,850830078125;95,5453687587711;8,43505859375E-09;0,8502197265625;3;177;1,29022970795631E-07;-1,30695439875126E-07;100 nA
0,90087890625;96,0458567575075;8,31298828125E-09;0,899658203125;3;178;1,29022970795631E-07;-1,30695439875126E-07;100 nA
0,950927734375;96,5463447562439;8,2489013671875E-09;0,94970703125;3;179;1,29022970795631E-07;-1,30695439875126E-07;100 nA
1,0009765625;97,0468327549803;8,203125E-09;0,999755859375;3;180;1,29022970795631E-07;-1,30695439875126E-07;100 nA
0,950927734375;97,5473207537167;5,7647705078125E-09;0,94940185546875;3;181;1,29022970795631E-07;-1,30695439875126E-07;100 nA
0,90087890625;98,0478087524531;4,1900634765625E-09;0,89935302734375;3;182;1,29022970795631E-07;-1,30695439875126E-07;100 nA
0,850830078125;98,5482967511895;3,0670166015625E-09;0,84930419921875;3;183;1,29022970795631E-07;-1,30695439875126E-07;100 nA
0,80078125;99,0487847499259;2,166748046875E-09;0,79986572265625;3;184;1,29022970795631E-07;-1,30695439875126E-07;100 nA
0,750732421875;99,5492727486622;1,3702392578125E-09;0,74981689453125;3;185;1,29022970795631E-07;-1,30695439875126E-07;100 nA
0,70068359375;100,049760747399;6,622314453125E-10;0,69989013671875;3;186;1,29022970795631E-07;-1,30695439875126E-07;100 nA
0,650634765625;100,550248746135;5,79833984375E-11;0,6500244140625;3;187;1,29022970795631E-07;-1,30695439875126E-07;100 nA
0,6005859375;101,050736744871;-5,31005859375E-10;0,60003662109375;3;188;1,29022970795631E-07;-1,30695439875126E-07;100 nA
0,550537109375;101,551224743608;-1,1077880859375E-09;0,550048828125;3;189;1,29022970795631E-07;-1,30695439875126E-07;100 nA
0,50048828125;102,051712742344;-1,6754150390625E-09;0,500091552734375;3;190;1,29022970795631E-07;-1,30695439875126E-07;100 nA
0,450439453125;102,552200741081;-2,1575927734375E-09;0,45001220703125;3;191;1,29022970795631E-07;-1,30695439875126E-07;100 nA
0,400390625;103,052688739817;-2,6153564453125E-09;0,40008544921875;3;192;1,29022970795631E-07;-1,30695439875126E-07;100 nA
0,350341796875;103,553176738553;-3,0487060546875E-09;0,350067138671875;3;193;1,29022970795631E-07;-1,30695439875126E-07;100 nA
0,30029296875;104,05366473729;-3,546142578125E-09;0,300048828125;3;194;1,29022970795631E-07;-1,30695439875126E-07;100 nA
0,250244140625;104,554152736026;-3,863525390625E-09;0,25006103515625;3;195;1,29022970795631E-07;-1,30695439875126E-07;100 nA
0,2001953125;105,054640734763;-4,21142578125E-09;0,20001220703125;3;196;1,29022970795631E-07;-1,30695439875126E-07;100 nA
0,150146484375;105,555128733499;-4,52880859375E-09;0,15008544921875;3;197;1,29022970795631E-07;-1,30695439875126E-07;100 nA
0,10009765625;106,055616732235;-4,876708984375E-09;0,100128173828125;3;198;1,29022970795631E-07;-1,30695439875126E-07;100 nA
0,050048828125;106,556104730972;-5,3375244140625E-09;0,050079345703125;3;199;1,29022970795631E-07;-1,30695439875126E-07;100 nA
0;107,056592729708;-6,0150146484375E-09;0,000115966796875006;3;200;1,29022970795631E-07;-1,30695439875126E-07;100 nA
-0,050048828125;107,557080728444;-7,01904296875E-09;-0,049835205078125;3;201;1,29022970795631E-07;-1,30695439875126E-07;100 nA
-0,10009765625;108,057568727181;-8,1787109375E-09;-0,09967041015625;3;202;1,29022970795631E-07;-1,30695439875126E-07;100 nA
-0,150146484375;108,558056725917;-9,0484619140625E-09;-0,14959716796875;3;203;1,29022970795631E-07;-1,30695439875126E-07;100 nA
-0,2001953125;109,058544724654;-9,722900390625E-09;-0,19940185546875;3;204;1,29022970795631E-07;-1,30695439875126E-07;100 nA
-0,250244140625;109,55903272339;-1,0430908203125E-08;-0,249359130859375;3;205;1,29022970795631E-07;-1,30695439875126E-07;100 nA
-0,30029296875;110,059520722126;-1,112060546875E-08;-0,299224853515625;3;206;1,29022970795631E-07;-1,30695439875126E-07;100 nA
-0,350341796875;110,560008720863;-1,17279052734375E-08;-0,349151611328125;3;207;1,29022970795631E-07;-1,30695439875126E-07;100 nA
-0,400390625;111,060496719599;-1,23565673828125E-08;-0,399017333984375;3;208;1,29022970795631E-07;-1,30695439875126E-07;100 nA
-0,450439453125;111,560984718336;-1,29058837890625E-08;-0,44891357421875;3;209;1,29022970795631E-07;-1,30695439875126E-07;100 nA
-0,50048828125;112,061472717072;-1,3409423828125E-08;-0,498779296875;3;210;1,29022970795631E-07;-1,30695439875126E-07;100 nA
-0,550537109375;112,561960715808;-1,376953125E-08;-0,54876708984375;3;211;1,29022970795631E-07;-1,30695439875126E-07;100 nA
-0,6005859375;113,062448714545;-1,38275146484375E-08;-0,5986328125;3;212;1,29022970795631E-07;-1,30695439875126E-07;100 nA
-0,650634765625;113,562936713281;-1,3262939453125E-08;-0,648529052734375;3;213;1,29022970795631E-07;-1,30695439875126E-07;100 nA
-0,70068359375;114,063424712018;-1,17828369140625E-08;-0,6986083984375;3;214;1,29022970795631E-07;-1,30695439875126E-07;100 nA
-0,750732421875;114,563912710754;-1,06719970703125E-08;-0,748565673828125;3;215;1,29022970795631E-07;-1,30695439875126E-07;100 nA
-0,80078125;115,06440070949;-9,14306640625E-09;-0,79833984375;3;216;1,29022970795631E-07;-1,30695439875126E-07;100 nA
-0,850830078125;115,564888708227;-7,8216552734375E-09;-0,84869384765625;3;217;1,29022970795631E-07;-1,30695439875126E-07;100 nA
-0,90087890625;116,065376706963;-7,0465087890625E-09;-0,8984375;3;218;1,29022970795631E-07;-1,30695439875126E-07;100 nA
-0,950927734375;116,565864705699;-6,6925048828125E-09;-0,94818115234375;3;219;1,29022970795631E-07;-1,30695439875126E-07;100 nA
-1,0009765625;117,066352704436;-6,5521240234375E-09;-0,99884033203125;3;220;1,29022970795631E-07;-1,30695439875126E-07;100 nA
-0,950927734375;117,566840703172;-4,205322265625E-09;-0,9490966796875;3;221;1,29022970795631E-07;-1,30695439875126E-07;100 nA
-0,90087890625;118,067328701909;-2,899169921875E-09;-0,89874267578125;3;222;1,29022970795631E-07;-1,30695439875126E-07;100 nA
-0,850830078125;118,567816700645;-1,9683837890625E-09;-0,84869384765625;3;223;1,29022970795631E-07;-1,30695439875126E-07;100 nA
-0,80078125;119,068304699381;-1,3031005859375E-09;-0,79864501953125;3;224;1,29022970795631E-07;-1,30695439875126E-07;100 nA
-0,750732421875;119,568792698118;-6,7138671875E-10;-0,748626708984375;3;225;1,29022970795631E-07;-1,30695439875126E-07;100 nA
-0,70068359375;120,069280696854;-8,23974609375E-11;-0,698577880859375;3;226;1,29022970795631E-07;-1,30695439875126E-07;100 nA
-0,650634765625;120,569768695591;4,852294921875E-10;-0,648590087890625;3;227;1,29022970795631E-07;-1,30695439875126E-07;100 nA
-0,6005859375;121,070256694327;1,0040283203125E-09;-0,59869384765625;3;228;1,29022970795631E-07;-1,30695439875126E-07;100 nA
-0,550537109375;121,570744693063;1,6082763671875E-09;-0,548736572265625;3;229;1,29022970795631E-07;-1,30695439875126E-07;100 nA
-0,50048828125;122,0712326918;2,2613525390625E-09;-0,49884033203125;3;230;1,29022970795631E-07;-1,30695439875126E-07;100 nA
-0,450439453125;122,571720690536;2,9632568359375E-09;-0,448974609375;3;231;1,29022970795631E-07;-1,30695439875126E-07;100 nA
-0,400390625;123,072208689273;3,6285400390625E-09;-0,399078369140625;3;232;1,29022970795631E-07;-1,30695439875126E-07;100 nA
-0,350341796875;123,572696688009;4,2144775390625E-09;-0,349151611328125;3;233;1,29022970795631E-07;-1,30695439875126E-07;100 nA
-0,30029296875;124,073184686745;4,6844482421875E-09;-0,299285888671875;3;234;1,29022970795631E-07;-1,30695439875126E-07;100 nA
-0,250244140625;124,573672685482;5,11474609375E-09;-0,24932861328125;3;235;1,29022970795631E-07;-1,30695439875126E-07;100 nA
-0,2001953125;125,074160684218;5,48095703125E-09;-0,19940185546875;3;236;1,29022970795631E-07;-1,30695439875126E-07;100 nA
-0,150146484375;125,574648682954;5,7281494140625E-09;-0,149566650390625;3;237;1,29022970795631E-07;-1,30695439875126E-07;100 nA
-0,10009765625;126,075136681691;6,109619140625E-09;-0,0997314453125;3;238;1,29022970795631E-07;-1,30695439875126E-07;100 nA
-0,050048828125;126,575624680427;6,683349609375E-09;-0,049835205078125;3;239;1,29022970795631E-07;-1,30695439875126E-07;100 nA
0;127,076112679164;7,415771484375E-09;0,000119018554687503;3;240;1,29022970795631E-07;-1,30695439875126E-07;100 nA
0,050048828125;127,5766006779;8,233642578125E-09;0,050079345703125;4;241;1,28266923129559E-07;-1,29998959600925E-07;100 nA
0,10009765625;128,077088676636;9,033203125E-09;0,10009765625;4;242;1,28266923129559E-07;-1,29998959600925E-07;100 nA
0,150146484375;128,577576675373;9,6923828125E-09;0,150054931640625;4;243;1,28266923129559E-07;-1,29998959600925E-07;100 nA
0,2001953125;129,078064674109;1,01318359375E-08;0,200103759765625;4;244;1,28266923129559E-07;-1,29998959600925E-07;100 nA
0,250244140625;129,578552672846;1,04339599609375E-08;0,249969482421875;4;245;1,28266923129559E-07;-1,29998959600925E-07;100 nA
0,30029296875;130,079040671582;1,0595703125E-08;0,300079345703125;4;246;1,28266923129559E-07;-1,29998959600925E-07;100 nA
0,350341796875;130,579528670318;1,06781005859375E-08;0,350128173828125;4;247;1,28266923129559E-07;-1,29998959600925E-07;100 nA
0,400390625;131,080016669055;1,06048583984375E-08;0,400115966796875;4;248;1,28266923129559E-07;-1,29998959600925E-07;100 nA
0,450439453125;131,580504667791;9,8846435546875E-09;0,450042724609375;4;249;1,28266923129559E-07;-1,29998959600925E-07;100 nA
0,50048828125;132,080992666528;9,039306640625E-09;0,500030517578125;4;250;1,28266923129559E-07;-1,29998959600925E-07;100 nA
0,550537109375;132,581480665264;8,6181640625E-09;0,550048828125;4;251;1,28266923129559E-07;-1,29998959600925E-07;100 nA
0,6005859375;133,081968664;8,428955078125E-09;0,60003662109375;4;252;1,28266923129559E-07;-1,29998959600925E-07;100 nA
0,650634765625;133,582456662737;8,4442138671875E-09;0,6500244140625;4;253;1,28266923129559E-07;-1,29998959600925E-07;100 nA
0,70068359375;134,082944661473;8,4869384765625E-09;0,6998291015625;4;254;1,28266923129559E-07;-1,29998959600925E-07;100 nA
0,750732421875;134,58343266021;8,5205078125E-09;0,749847412109375;4;255;1,28266923129559E-07;-1,29998959600925E-07;100 nA
0,80078125;135,083920658946;8,45947265625E-09;0,79986572265625;4;256;1,28266923129559E-07;-1,29998959600925E-07;100 nA
0,850830078125;135,584408657682;8,2977294921875E-09;0,849609375;4;257;1,28266923129559E-07;-1,29998959600925E-07;100 nA
0,90087890625;136,084896656419;8,26416015625E-09;0,899658203125;4;258;1,28266923129559E-07;-1,29998959600925E-07;100 nA
0,950927734375;136,585384655155;8,19091796875E-09;0,94970703125;4;259;1,28266923129559E-07;-1,29998959600925E-07;100 nA
1,0009765625;137,085872653891;8,1573486328125E-09;0,99945068359375;4;260;1,28266923129559E-07;-1,29998959600925E-07;100 nA
0,950927734375;137,586360652628;5,743408203125E-09;0,94940185546875;4;261;1,28266923129559E-07;-1,29998959600925E-07;100 nA
0,90087890625;138,086848651364;4,2022705078125E-09;0,89996337890625;4;262;1,28266923129559E-07;-1,29998959600925E-07;100 nA
0,850830078125;138,587336650101;3,0792236328125E-09;0,84991455078125;4;263;1,28266923129559E-07;-1,29998959600925E-07;100 nA
0,80078125;139,087824648837;2,20947265625E-09;0,79986572265625;4;264;1,28266923129559E-07;-1,29998959600925E-07;100 nA
0,750732421875;139,588312647573;1,4984130859375E-09;0,749847412109375;4;265;1,28266923129559E-07;-1,29998959600925E-07;100 nA
0,70068359375;140,08880064631;7,6904296875E-10;0,699951171875;4;266;1,28266923129559E-07;-1,29998959600925E-07;100 nA
0,650634765625;140,589288645046;1,5869140625E-10;0,65008544921875;4;267;1,28266923129559E-07;-1,29998959600925E-07;100 nA
0,6005859375;141,089776643783;-4,2724609375E-10;0,600128173828125;4;268;1,28266923129559E-07;-1,29998959600925E-07;100 nA
0,550537109375;141,590264642519;-1,0162353515625E-09;0,55010986328125;4;269;1,28266923129559E-07;-1,29998959600925E-07;100 nA
0,50048828125;142,090752641255;-1,5655517578125E-09;0,500091552734375;4;270;1,28266923129559E-07;-1,29998959600925E-07;100 nA
0,450439453125;142,591240639992;-2,069091796875E-09;0,45013427734375;4;271;1,28266923129559E-07;-1,29998959600925E-07;100 nA
0,400390625;143,091728638728;-2,50244140625E-09;0,400146484375;4;272;1,28266923129559E-07;-1,29998959600925E-07;100 nA
0,350341796875;143,592216637465;-2,972412109375E-09;0,35009765625;4;273;1,28266923129559E-07;-1,29998959600925E-07;100 nA
0,30029296875;144,092704636201;-3,4393310546875E-09;0,30010986328125;4;274;1,28266923129559E-07;-1,29998959600925E-07;100 nA
0,250244140625;144,593192634937;-3,8482666015625E-09;0,250091552734375;4;275;1,28266923129559E-07;-1,29998959600925E-07;100 nA
0,2001953125;145,093680633674;-4,19921875E-09;0,200042724609375;4;276;1,28266923129559E-07;-1,29998959600925E-07;100 nA
0,150146484375;145,59416863241;-4,5257568359375E-09;0,150115966796875;4;277;1,28266923129559E-07;-1,29998959600925E-07;100 nA
0,10009765625;146,094656631146;-4,901123046875E-09;0,100067138671875;4;278;1,28266923129559E-07;-1,29998959600925E-07;100 nA
0,050048828125;146,595144629883;-5,3955078125E-09;0,050018310546875;4;279;1,28266923129559E-07;-1,29998959600925E-07;100 nA
0;147,095632628619;-6,0699462890625E-09;0,0001373291015625;4;280;1,28266923129559E-07;-1,29998959600925E-07;100 nA
-0,050048828125;147,596120627356;-7,073974609375E-09;-0,0498046875;4;281;1,28266923129559E-07;-1,29998959600925E-07;100 nA
-0,10009765625;148,096608626092;-8,2672119140625E-09;-0,0997314453125;4;282;1,28266923129559E-07;-1,29998959600925E-07;100 nA
-0,150146484375;148,597096624828;-9,185791015625E-09;-0,149566650390625;4;283;1,28266923129559E-07;-1,29998959600925E-07;100 nA
-0,2001953125;149,097584623565;-9,8602294921875E-09;-0,199432373046875;4;284;1,28266923129559E-07;-1,29998959600925E-07;100 nA
-0,250244140625;149,598072622301;-1,05255126953125E-08;-0,249359130859375;4;285;1,28266923129559E-07;-1,29998959600925E-07;100 nA
-0,30029296875;150,098560621038;-1,116943359375E-08;-0,29925537109375;4;286;1,28266923129559E-07;-1,29998959600925E-07;100 nA
-0,350341796875;150,599048619774;-1,1798095703125E-08;-0,349212646484375;4;287;1,28266923129559E-07;-1,29998959600925E-07;100 nA
-0,400390625;151,09953661851;-1,240234375E-08;-0,3990478515625;4;288;1,28266923129559E-07;-1,29998959600925E-07;100 nA
-0,450439453125;151,600024617247;-1,29608154296875E-08;-0,448883056640625;4;289;1,28266923129559E-07;-1,29998959600925E-07;100 nA
-0,50048828125;152,100512615983;-1,34368896484375E-08;-0,498870849609375;4;290;1,28266923129559E-07;-1,29998959600925E-07;100 nA
-0,550537109375;152,60100061472;-1,37786865234375E-08;-0,5487060546875;4;291;1,28266923129559E-07;-1,29998959600925E-07;100 nA
-0,6005859375;153,101488613456;-1,38702392578125E-08;-0,598663330078125;4;292;1,28266923129559E-07;-1,29998959600925E-07;100 nA
-0,650634765625;153,601976612192;-1,317138671875E-08;-0,648590087890625;4;293;1,28266923129559E-07;-1,29998959600925E-07;100 nA
-0,70068359375;154,102464610929;-1,16668701171875E-08;-0,698516845703125;4;294;1,28266923129559E-07;-1,29998959600925E-07;100 nA
-0,750732421875;154,602952609665;-1,0577392578125E-08;-0,74853515625;4;295;1,28266923129559E-07;-1,29998959600925E-07;100 nA
-0,80078125;155,103440608401;-9,0362548828125E-09;-0,79864501953125;4;296;1,28266923129559E-07;-1,29998959600925E-07;100 nA
-0,850830078125;155,603928607138;-7,6904296875E-09;-0,84930419921875;4;297;1,28266923129559E-07;-1,29998959600925E-07;100 nA
-0,90087890625;156,104416605874;-6,93359375E-09;-0,89813232421875;4;298;1,28266923129559E-07;-1,29998959600925E-07;100 nA
-0,950927734375;156,604904604611;-6,5521240234375E-09;-0,9490966796875;4;299;1,28266923129559E-07;-1,29998959600925E-07;100 nA
-1,0009765625;157,105392603347;-6,3934326171875E-09;-0,99884033203125;4;300;1,28266923129559E-07;-1,29998959600925E-07;100 nA
-0,950927734375;157,605880602083;-4,058837890625E-09;-0,94879150390625;4;301;1,28266923129559E-07;-1,29998959600925E-07;100 nA
-0,90087890625;158,10636860082;-2,752685546875E-09;-0,8990478515625;4;302;1,28266923129559E-07;-1,29998959600925E-07;100 nA
-0,850830078125;158,606856599556;-1,873779296875E-09;-0,848388671875;4;303;1,28266923129559E-07;-1,29998959600925E-07;100 nA
-0,80078125;159,107344598293;-1,18408203125E-09;-0,79864501953125;4;304;1,28266923129559E-07;-1,29998959600925E-07;100 nA
-0,750732421875;159,607832597029;-5,767822265625E-10;-0,748565673828125;4;305;1,28266923129559E-07;-1,29998959600925E-07;100 nA
-0,70068359375;160,108320595765;-1,52587890625E-11;-0,6986083984375;4;306;1,28266923129559E-07;-1,29998959600925E-07;100 nA
-0,650634765625;160,608808594502;5,06591796875E-10;-0,6485595703125;4;307;1,28266923129559E-07;-1,29998959600925E-07;100 nA
-0,6005859375;161,109296593238;1,0498046875E-09;-0,5986328125;4;308;1,28266923129559E-07;-1,29998959600925E-07;100 nA
-0,550537109375;161,609784591975;1,5838623046875E-09;-0,548797607421875;4;309;1,28266923129559E-07;-1,29998959600925E-07;100 nA
-0,50048828125;162,110272590711;2,154541015625E-09;-0,4989013671875;4;310;1,28266923129559E-07;-1,29998959600925E-07;100 nA
-0,450439453125;162,610760589447;2,86865234375E-09;-0,448974609375;4;311;1,28266923129559E-07;-1,29998959600925E-07;100 nA
-0,400390625;163,111248588184;3,546142578125E-09;-0,3990478515625;4;312;1,28266923129559E-07;-1,29998959600925E-07;100 nA
-0,350341796875;163,61173658692;4,144287109375E-09;-0,3492431640625;4;313;1,28266923129559E-07;-1,29998959600925E-07;100 nA
-0,30029296875;164,112224585656;4,608154296875E-09;-0,29925537109375;4;314;1,28266923129559E-07;-1,29998959600925E-07;100 nA
-0,250244140625;164,612712584393;5,0048828125E-09;-0,249359130859375;4;315;1,28266923129559E-07;-1,29998959600925E-07;100 nA
-0,2001953125;165,113200583129;5,3466796875E-09;-0,199432373046875;4;316;1,28266923129559E-07;-1,29998959600925E-07;100 nA
-0,150146484375;165,613688581866;5,6060791015625E-09;-0,149627685546875;4;317;1,28266923129559E-07;-1,29998959600925E-07;100 nA
-0,10009765625;166,114176580602;6,0516357421875E-09;-0,0997314453125;4;318;1,28266923129559E-07;-1,29998959600925E-07;100 nA
-0,050048828125;166,614664579338;6,6131591796875E-09;-0,049896240234375;4;319;1,28266923129559E-07;-1,29998959600925E-07;100 nA
0;167,115152578075;7,342529296875E-09;0,000115966796875006;4;320;1,28266923129559E-07;-1,29998959600925E-07;100 nA
0,050048828125;167,615640576811;8,1756591796875E-09;0,050048828125;5;321;1,28627382218838E-07;-1,2982789427042E-07;100 nA
0,10009765625;168,116128575548;8,990478515625E-09;0,100006103515625;5;322;1,28627382218838E-07;-1,2982789427042E-07;100 nA
0,150146484375;168,616616574284;9,6527099609375E-09;0,150054931640625;5;323;1,28627382218838E-07;-1,2982789427042E-07;100 nA
0,2001953125;169,11710457302;1,011962890625E-08;0,200042724609375;5;324;1,28627382218838E-07;-1,2982789427042E-07;100 nA
0,250244140625;169,617592571757;1,0455322265625E-08;0,2501220703125;5;325;1,28627382218838E-07;-1,2982789427042E-07;100 nA
0,30029296875;170,118080570493;1,0595703125E-08;0,30010986328125;5;326;1,28627382218838E-07;-1,2982789427042E-07;100 nA
0,350341796875;170,61856856923;1,0693359375E-08;0,35015869140625;5;327;1,28627382218838E-07;-1,2982789427042E-07;100 nA
0,400390625;171,119056567966;1,06170654296875E-08;0,400054931640625;5;328;1,28627382218838E-07;-1,2982789427042E-07;100 nA
0,450439453125;171,619544566702;9,942626953125E-09;0,45013427734375;5;329;1,28627382218838E-07;-1,2982789427042E-07;100 nA
0,50048828125;172,120032565439;9,1400146484375E-09;0,500091552734375;5;330;1,28627382218838E-07;-1,2982789427042E-07;100 nA
0,550537109375;172,620520564175;8,7188720703125E-09;0,550140380859375;5;331;1,28627382218838E-07;-1,2982789427042E-07;100 nA
0,6005859375;173,121008562911;8,551025390625E-09;0,600128173828125;5;332;1,28627382218838E-07;-1,2982789427042E-07;100 nA
0,650634765625;173,621496561648;8,563232421875E-09;0,6500244140625;5;333;1,28627382218838E-07;-1,2982789427042E-07;100 nA
0,70068359375;174,121984560384;8,563232421875E-09;0,699920654296875;5;334;1,28627382218838E-07;-1,2982789427042E-07;100 nA
0,750732421875;174,622472559121;8,59375E-09;0,749847412109375;5;335;1,28627382218838E-07;-1,2982789427042E-07;100 nA
0,80078125;175,122960557857;8,5052490234375E-09;0,799560546875;5;336;1,28627382218838E-07;-1,2982789427042E-07;100 nA
0,850830078125;175,623448556593;8,3648681640625E-09;0,84930419921875;5;337;1,28627382218838E-07;-1,2982789427042E-07;100 nA
0,90087890625;176,12393655533;8,233642578125E-09;0,899658203125;5;338;1,28627382218838E-07;-1,2982789427042E-07;100 nA
0,950927734375;176,624424554066;8,1756591796875E-09;0,94940185546875;5;339;1,28627382218838E-07;-1,2982789427042E-07;100 nA
1,0009765625;177,124912552803;8,123779296875E-09;1,00006103515625;5;340;1,28627382218838E-07;-1,2982789427042E-07;100 nA
0,950927734375;177,625400551539;5,6488037109375E-09;0,94970703125;5;341;1,28627382218838E-07;-1,2982789427042E-07;100 nA
0,90087890625;178,125888550275;4,1259765625E-09;0,89996337890625;5;342;1,28627382218838E-07;-1,2982789427042E-07;100 nA
0,850830078125;178,626376549012;2,978515625E-09;0,8502197265625;5;343;1,28627382218838E-07;-1,2982789427042E-07;100 nA
0,80078125;179,126864547748;2,1148681640625E-09;0,799560546875;5;344;1,28627382218838E-07;-1,2982789427042E-07;100 nA
0,750732421875;179,627352546485;1,336669921875E-09;0,749786376953125;5;345;1,28627382218838E-07;-1,2982789427042E-07;100 nA
0,70068359375;180,127840545221;6,805419921875E-10;0,699859619140625;5;346;1,28627382218838E-07;-1,2982789427042E-07;100 nA
0,650634765625;180,628328543957;5,18798828125E-11;0,6500244140625;5;347;1,28627382218838E-07;-1,2982789427042E-07;100 nA
0,6005859375;181,128816542694;-5,18798828125E-10;0,60003662109375;5;348;1,28627382218838E-07;-1,2982789427042E-07;100 nA
0,550537109375;181,62930454143;-1,1260986328125E-09;0,550018310546875;5;349;1,28627382218838E-07;-1,2982789427042E-07;100 nA
0,50048828125;182,129792540166;-1,6021728515625E-09;0,500030517578125;5;350;1,28627382218838E-07;-1,2982789427042E-07;100 nA
0,450439453125;182,630280538903;-2,099609375E-09;0,45013427734375;5;351;1,28627382218838E-07;-1,2982789427042E-07;100 nA
0,400390625;183,130768537639;-2,569580078125E-09;0,400115966796875;5;352;1,28627382218838E-07;-1,2982789427042E-07;100 nA
0,350341796875;183,631256536376;-2,9998779296875E-09;0,35009765625;5;353;1,28627382218838E-07;-1,2982789427042E-07;100 nA
0,30029296875;184,131744535112;-3,45458984375E-09;0,300079345703125;5;354;1,28627382218838E-07;-1,2982789427042E-07;100 nA
0,250244140625;184,632232533848;-3,8726806640625E-09;0,250091552734375;5;355;1,28627382218838E-07;-1,2982789427042E-07;100 nA
0,2001953125;185,132720532585;-4,168701171875E-09;0,2000732421875;5;356;1,28627382218838E-07;-1,2982789427042E-07;100 nA
0,150146484375;185,633208531321;-4,449462890625E-09;0,15008544921875;5;357;1,28627382218838E-07;-1,2982789427042E-07;100 nA
0,10009765625;186,133696530058;-4,8095703125E-09;0,10009765625;5;358;1,28627382218838E-07;-1,2982789427042E-07;100 nA
0,050048828125;186,634184528794;-5,303955078125E-09;0,05010986328125;5;359;1,28627382218838E-07;-1,2982789427042E-07;100 nA
0;187,13467252753;-5,9661865234375E-09;0,0001373291015625;5;360;1,28627382218838E-07;-1,2982789427042E-07;100 nA
-0,050048828125;187,635160526267;-6,93359375E-09;-0,0497314453125;5;361;1,28627382218838E-07;-1,2982789427042E-07;100 nA
-0,10009765625;188,135648525003;-8,148193359375E-09;-0,099639892578125;5;362;1,28627382218838E-07;-1,2982789427042E-07;100 nA
-0,150146484375;188,63613652374;-9,0728759765625E-09;-0,149566650390625;5;363;1,28627382218838E-07;-1,2982789427042E-07;100 nA
-0,2001953125;189,136624522476;-9,722900390625E-09;-0,199432373046875;5;364;1,28627382218838E-07;-1,2982789427042E-07;100 nA
-0,250244140625;189,637112521212;-1,04034423828125E-08;-0,249298095703125;5;365;1,28627382218838E-07;-1,2982789427042E-07;100 nA
-0,30029296875;190,137600519949;-1,10992431640625E-08;-0,299285888671875;5;366;1,28627382218838E-07;-1,2982789427042E-07;100 nA
-0,350341796875;190,638088518685;-1,175537109375E-08;-0,349151611328125;5;367;1,28627382218838E-07;-1,2982789427042E-07;100 nA
-0,400390625;191,138576517421;-1,23504638671875E-08;-0,3990478515625;5;368;1,28627382218838E-07;-1,2982789427042E-07;100 nA
-0,450439453125;191,639064516158;-1,29302978515625E-08;-0,448944091796875;5;369;1,28627382218838E-07;-1,2982789427042E-07;100 nA
-0,50048828125;192,139552514894;-1,34552001953125E-08;-0,498870849609375;5;370;1,28627382218838E-07;-1,2982789427042E-07;100 nA
-0,550537109375;192,640040513631;-1,3775634765625E-08;-0,548736572265625;5;371;1,28627382218838E-07;-1,2982789427042E-07;100 nA
-0,6005859375;193,140528512367;-1,38580322265625E-08;-0,5986328125;5;372;1,28627382218838E-07;-1,2982789427042E-07;100 nA
-0,650634765625;193,641016511103;-1,31927490234375E-08;-0,648590087890625;5;373;1,28627382218838E-07;-1,2982789427042E-07;100 nA
-0,70068359375;194,14150450984;-1,175537109375E-08;-0,698577880859375;5;374;1,28627382218838E-07;-1,2982789427042E-07;100 nA
-0,750732421875;194,641992508576;-1,0626220703125E-08;-0,74859619140625;5;375;1,28627382218838E-07;-1,2982789427042E-07;100 nA
-0,80078125;195,142480507313;-9,0301513671875E-09;-0,7989501953125;5;376;1,28627382218838E-07;-1,2982789427042E-07;100 nA
-0,850830078125;195,642968506049;-7,7423095703125E-09;-0,84869384765625;5;377;1,28627382218838E-07;-1,2982789427042E-07;100 nA
-0,90087890625;196,143456504785;-6,99462890625E-09;-0,8990478515625;5;378;1,28627382218838E-07;-1,2982789427042E-07;100 nA
-0,950927734375;196,643944503522;-6,610107421875E-09;-0,9490966796875;5;379;1,28627382218838E-07;-1,2982789427042E-07;100 nA
-1,0009765625;197,144432502258;-6,4666748046875E-09;-0,99853515625;5;380;1,28627382218838E-07;-1,2982789427042E-07;100 nA
-0,950927734375;197,644920500995;-4,0924072265625E-09;-0,9490966796875;5;381;1,28627382218838E-07;-1,2982789427042E-07;100 nA
-0,90087890625;198,145408499731;-2,783203125E-09;-0,8990478515625;5;382;1,28627382218838E-07;-1,2982789427042E-07;100 nA
-0,850830078125;198,645896498467;-1,8890380859375E-09;-0,84869384765625;5;383;1,28627382218838E-07;-1,2982789427042E-07;100 nA
-0,80078125;199,146384497204;-1,171875E-09;-0,79864501953125;5;384;1,28627382218838E-07;-1,2982789427042E-07;100 nA
-0,750732421875;199,64687249594;-5,859375E-10;-0,748626708984375;5;385;1,28627382218838E-07;-1,2982789427042E-07;100 nA
-0,70068359375;200,147360494676;-1,52587890625E-11;-0,698577880859375;5;386;1,28627382218838E-07;-1,2982789427042E-07;100 nA
-0,650634765625;200,647848493413;5,584716796875E-10;-0,648590087890625;5;387;1,28627382218838E-07;-1,2982789427042E-07;100 nA
-0,6005859375;201,148336492149;1,13525390625E-09;-0,598663330078125;5;388;1,28627382218838E-07;-1,2982789427042E-07;100 nA
-0,550537109375;201,648824490886;1,6448974609375E-09;-0,5487060546875;5;389;1,28627382218838E-07;-1,2982789427042E-07;100 nA
-0,50048828125;202,149312489622;2,25830078125E-09;-0,498870849609375;5;390;1,28627382218838E-07;-1,2982789427042E-07;100 nA
-0,450439453125;202,649800488358;2,96630859375E-09;-0,44891357421875;5;391;1,28627382218838E-07;-1,2982789427042E-07;100 nA
-0,400390625;203,150288487095;3,643798828125E-09;-0,399078369140625;5;392;1,28627382218838E-07;-1,2982789427042E-07;100 nA
-0,350341796875;203,650776485831;4,229736328125E-09;-0,34918212890625;5;393;1,28627382218838E-07;-1,2982789427042E-07;100 nA
-0,30029296875;204,151264484568;4,7271728515625E-09;-0,299285888671875;5;394;1,28627382218838E-07;-1,2982789427042E-07;100 nA
-0,250244140625;204,651752483304;5,0811767578125E-09;-0,249359130859375;5;395;1,28627382218838E-07;-1,2982789427042E-07;100 nA
-0,2001953125;205,15224048204;5,3955078125E-09;-0,199432373046875;5;396;1,28627382218838E-07;-1,2982789427042E-07;100 nA
-0,150146484375;205,652728480777;5,694580078125E-09;-0,149566650390625;5;397;1,28627382218838E-07;-1,2982789427042E-07;100 nA
-0,10009765625;206,153216479513;6,0272216796875E-09;-0,099700927734375;5;398;1,28627382218838E-07;-1,2982789427042E-07;100 nA
-0,050048828125;206,65370447825;6,6253662109375E-09;-0,049835205078125;5;399;1,28627382218838E-07;-1,2982789427042E-07;100 nA
0;207,154192476986;7,3028564453125E-09;0,000112915039062494;5;400;1,28627382218838E-07;-1,2982789427042E-07;100 nA
0,050048828125;207,654680475722;8,0841064453125E-09;0,050079345703125;6;401;1,28083638846874E-07;-1,29603371024132E-07;100 nA
0,10009765625;208,155168474459;8,9324951171875E-09;0,100067138671875;6;402;1,28083638846874E-07;-1,29603371024132E-07;100 nA
0,150146484375;208,655656473195;9,588623046875E-09;0,1500244140625;6;403;1,28083638846874E-07;-1,29603371024132E-07;100 nA
0,2001953125;209,156144471932;1,00006103515625E-08;0,200042724609375;6;404;1,28083638846874E-07;-1,29603371024132E-07;100 nA
0,250244140625;209,656632470668;1,03179931640625E-08;0,250030517578125;6;405;1,28083638846874E-07;-1,29603371024132E-07;100 nA
0,30029296875;210,157120469404;1,0504150390625E-08;0,300079345703125;6;406;1,28083638846874E-07;-1,29603371024132E-07;100 nA
0,350341796875;210,657608468141;1,05743408203125E-08;0,35009765625;6;407;1,28083638846874E-07;-1,29603371024132E-07;100 nA
0,400390625;211,158096466877;1,0552978515625E-08;0,400054931640625;6;408;1,28083638846874E-07;-1,29603371024132E-07;100 nA
0,450439453125;211,658584465613;9,8419189453125E-09;0,4500732421875;6;409;1,28083638846874E-07;-1,29603371024132E-07;100 nA
0,50048828125;212,15907246435;9,0576171875E-09;0,500091552734375;6;410;1,28083638846874E-07;-1,29603371024132E-07;100 nA
0,550537109375;212,659560463086;8,6578369140625E-09;0,550048828125;6;411;1,28083638846874E-07;-1,29603371024132E-07;100 nA
0,6005859375;213,160048461823;8,477783203125E-09;0,60009765625;6;412;1,28083638846874E-07;-1,29603371024132E-07;100 nA
0,650634765625;213,660536460559;8,489990234375E-09;0,650054931640625;6;413;1,28083638846874E-07;-1,29603371024132E-07;100 nA
0,70068359375;214,161024459295;8,5845947265625E-09;0,699951171875;6;414;1,28083638846874E-07;-1,29603371024132E-07;100 nA
0,750732421875;214,661512458032;8,6181640625E-09;0,749847412109375;6;415;1,28083638846874E-07;-1,29603371024132E-07;100 nA
0,80078125;215,162000456768;8,514404296875E-09;0,79986572265625;6;416;1,28083638846874E-07;-1,29603371024132E-07;100 nA
0,850830078125;215,662488455505;8,3709716796875E-09;0,849609375;6;417;1,28083638846874E-07;-1,29603371024132E-07;100 nA
0,90087890625;216,162976454241;8,2916259765625E-09;0,8990478515625;6;418;1,28083638846874E-07;-1,29603371024132E-07;100 nA
0,950927734375;216,663464452977;8,2244873046875E-09;0,94970703125;6;419;1,28083638846874E-07;-1,29603371024132E-07;100 nA
1,0009765625;217,163952451714;8,1817626953125E-09;0,99945068359375;6;420;1,28083638846874E-07;-1,29603371024132E-07;100 nA
0,950927734375;217,66444045045;5,7891845703125E-09;0,94970703125;6;421;1,28083638846874E-07;-1,29603371024132E-07;100 nA
0,90087890625;218,164928449187;4,1900634765625E-09;0,89996337890625;6;422;1,28083638846874E-07;-1,29603371024132E-07;100 nA
0,850830078125;218,665416447923;3,0487060546875E-09;0,8502197265625;6;423;1,28083638846874E-07;-1,29603371024132E-07;100 nA
0,80078125;219,165904446659;2,1759033203125E-09;0,79986572265625;6;424;1,28083638846874E-07;-1,29603371024132E-07;100 nA
0,750732421875;219,666392445396;1,3916015625E-09;0,749847412109375;6;425;1,28083638846874E-07;-1,29603371024132E-07;100 nA
0,70068359375;220,166880444132;7,2021484375E-10;0,699951171875;6;426;1,28083638846874E-07;-1,29603371024132E-07;100 nA
0,650634765625;220,667368442868;7,62939453125E-11;0,6500244140625;6;427;1,28083638846874E-07;-1,29603371024132E-07;100 nA
0,6005859375;221,167856441605;-5,79833984375E-10;0,600067138671875;6;428;1,28083638846874E-07;-1,29603371024132E-07;100 nA
0,550537109375;221,668344440341;-1,11083984375E-09;0,550079345703125;6;429;1,28083638846874E-07;-1,29603371024132E-07;100 nA
0,50048828125;222,168832439078;-1,654052734375E-09;0,500030517578125;6;430;1,28083638846874E-07;-1,29603371024132E-07;100 nA
0,450439453125;222,669320437814;-2,191162109375E-09;0,450103759765625;6;431;1,28083638846874E-07;-1,29603371024132E-07;100 nA
0,400390625;223,16980843655;-2,63671875E-09;0,400054931640625;6;432;1,28083638846874E-07;-1,29603371024132E-07;100 nA
0,350341796875;223,670296435287;-3,0517578125E-09;0,35009765625;6;433;1,28083638846874E-07;-1,29603371024132E-07;100 nA
0,30029296875;224,170784434023;-3,5125732421875E-09;0,300018310546875;6;434;1,28083638846874E-07;-1,29603371024132E-07;100 nA
0,250244140625;224,67127243276;-3,8787841796875E-09;0,25006103515625;6;435;1,28083638846874E-07;-1,29603371024132E-07;100 nA
0,2001953125;225,171760431496;-4,2022705078125E-09;0,20001220703125;6;436;1,28083638846874E-07;-1,29603371024132E-07;100 nA
0,150146484375;225,672248430232;-4,5196533203125E-09;0,15008544921875;6;437;1,28083638846874E-07;-1,29603371024132E-07;100 nA
0,10009765625;226,172736428969;-4,8583984375E-09;0,10009765625;6;438;1,28083638846874E-07;-1,29603371024132E-07;100 nA
0,050048828125;226,673224427705;-5,2947998046875E-09;0,0501708984375;6;439;1,28083638846874E-07;-1,29603371024132E-07;100 nA
0;227,173712426442;-5,9356689453125E-09;0,000109863281249997;6;440;1,28083638846874E-07;-1,29603371024132E-07;100 nA
-0,050048828125;227,674200425178;-6,9671630859375E-09;-0,049774169921875;6;441;1,28083638846874E-07;-1,29603371024132E-07;100 nA
-0,10009765625;228,174688423914;-8,0657958984375E-09;-0,099639892578125;6;442;1,28083638846874E-07;-1,29603371024132E-07;100 nA
-0,150146484375;228,675176422651;-9,1644287109375E-09;-0,149566650390625;6;443;1,28083638846874E-07;-1,29603371024132E-07;100 nA
-0,2001953125;229,175664421387;-9,765625E-09;-0,19940185546875;6;444;1,28083638846874E-07;-1,29603371024132E-07;100 nA
-0,250244140625;229,676152420123;-1,0394287109375E-08;-0,24932861328125;6;445;1,28083638846874E-07;-1,29603371024132E-07;100 nA
-0,30029296875;230,17664041886;-1,109619140625E-08;-0,29925537109375;6;446;1,28083638846874E-07;-1,29603371024132E-07;100 nA
-0,350341796875;230,677128417596;-1,17340087890625E-08;-0,34918212890625;6;447;1,28083638846874E-07;-1,29603371024132E-07;100 nA
-0,400390625;231,177616416333;-1,236572265625E-08;-0,3990478515625;6;448;1,28083638846874E-07;-1,29603371024132E-07;100 nA
-0,450439453125;231,678104415069;-1,29364013671875E-08;-0,448974609375;6;449;1,28083638846874E-07;-1,29603371024132E-07;100 nA
-0,50048828125;232,178592413805;-1,3446044921875E-08;-0,49884033203125;6;450;1,28083638846874E-07;-1,29603371024132E-07;100 nA
-0,550537109375;232,679080412542;-1,37908935546875E-08;-0,548797607421875;6;451;1,28083638846874E-07;-1,29603371024132E-07;100 nA
-0,6005859375;233,179568411278;-1,38336181640625E-08;-0,598663330078125;6;452;1,28083638846874E-07;-1,29603371024132E-07;100 nA
-0,650634765625;233,680056410015;-1,3140869140625E-08;-0,648590087890625;6;453;1,28083638846874E-07;-1,29603371024132E-07;100 nA
-0,70068359375;234,180544408751;-1,16363525390625E-08;-0,698577880859375;6;454;1,28083638846874E-07;-1,29603371024132E-07;100 nA
-0,750732421875;234,681032407487;-1,05438232421875E-08;-0,7486572265625;6;455;1,28083638846874E-07;-1,29603371024132E-07;100 nA
-0,80078125;235,181520406224;-8,917236328125E-09;-0,79864501953125;6;456;1,28083638846874E-07;-1,29603371024132E-07;100 nA
-0,850830078125;235,68200840496;-7,623291015625E-09;-0,8489990234375;6;457;1,28083638846874E-07;-1,29603371024132E-07;100 nA
-0,90087890625;236,182496403697;-6,890869140625E-09;-0,89874267578125;6;458;1,28083638846874E-07;-1,29603371024132E-07;100 nA
-0,950927734375;236,682984402433;-6,512451171875E-09;-0,948486328125;6;459;1,28083638846874E-07;-1,29603371024132E-07;100 nA
-1,0009765625;237,183472401169;-6,35986328125E-09;-0,9991455078125;6;460;1,28083638846874E-07;-1,29603371024132E-07;100 nA
-0,950927734375;237,683960399906;-4,06494140625E-09;-0,948486328125;6;461;1,28083638846874E-07;-1,29603371024132E-07;100 nA
-0,90087890625;238,184448398642;-2,7099609375E-09;-0,89874267578125;6;462;1,28083638846874E-07;-1,29603371024132E-07;100 nA
-0,850830078125;238,684936397378;-1,8585205078125E-09;-0,8489990234375;6;463;1,28083638846874E-07;-1,29603371024132E-07;100 nA
-0,80078125;239,185424396115;-1,1749267578125E-09;-0,7989501953125;6;464;1,28083638846874E-07;-1,29603371024132E-07;100 nA
-0,750732421875;239,685912394851;-5,340576171875E-10;-0,748565673828125;6;465;1,28083638846874E-07;-1,29603371024132E-07;100 nA
-0,70068359375;240,186400393588;2,74658203125E-11;-0,6986083984375;6;466;1,28083638846874E-07;-1,29603371024132E-07;100 nA
-0,650634765625;240,686888392324;5,67626953125E-10;-0,648529052734375;6;467;1,28083638846874E-07;-1,29603371024132E-07;100 nA
-0,6005859375;241,18737639106;1,123046875E-09;-0,5986328125;6;468;1,28083638846874E-07;-1,29603371024132E-07;100 nA
-0,550537109375;241,687864389797;1,6387939453125E-09;-0,54876708984375;6;469;1,28083638846874E-07;-1,29603371024132E-07;100 nA
-0,50048828125;242,188352388533;2,2491455078125E-09;-0,498870849609375;6;470;1,28083638846874E-07;-1,29603371024132E-07;100 nA
-0,450439453125;242,68884038727;2,9144287109375E-09;-0,448944091796875;6;471;1,28083638846874E-07;-1,29603371024132E-07;100 nA
-0,400390625;243,189328386006;3,5797119140625E-09;-0,39910888671875;6;472;1,28083638846874E-07;-1,29603371024132E-07;100 nA
-0,350341796875;243,689816384742;4,1961669921875E-09;-0,349151611328125;6;473;1,28083638846874E-07;-1,29603371024132E-07;100 nA
-0,30029296875;244,190304383479;4,62646484375E-09;-0,29931640625;6;474;1,28083638846874E-07;-1,29603371024132E-07;100 nA
-0,250244140625;244,690792382215;4,9713134765625E-09;-0,249359130859375;6;475;1,28083638846874E-07;-1,29603371024132E-07;100 nA
-0,2001953125;245,191280380952;5,33447265625E-09;-0,199462890625;6;476;1,28083638846874E-07;-1,29603371024132E-07;100 nA
-0,150146484375;245,691768379688;5,615234375E-09;-0,14959716796875;6;477;1,28083638846874E-07;-1,29603371024132E-07;100 nA
-0,10009765625;246,192256378424;5,9783935546875E-09;-0,099761962890625;6;478;1,28083638846874E-07;-1,29603371024132E-07;100 nA
-0,050048828125;246,692744377161;6,5521240234375E-09;-0,04986572265625;6;479;1,28083638846874E-07;-1,29603371024132E-07;100 nA
0;247,193232375897;7,2845458984375E-09;0,0001373291015625;6;480;1,28083638846874E-07;-1,29603371024132E-07;100 nA
0,050048828125;247,693720374633;8,087158203125E-09;0,050018310546875;7;481;1,27688050270081E-07;-1,29032135009766E-07;100 nA
0,10009765625;248,19420837337;8,9569091796875E-09;0,10009765625;7;482;1,27688050270081E-07;-1,29032135009766E-07;100 nA
0,150146484375;248,694696372106;9,637451171875E-09;0,1500244140625;7;483;1,27688050270081E-07;-1,29032135009766E-07;100 nA
0,2001953125;249,195184370843;1,0076904296875E-08;0,20001220703125;7;484;1,27688050270081E-07;-1,29032135009766E-07;100 nA
0,250244140625;249,695672369579;1,0382080078125E-08;0,250030517578125;7;485;1,27688050270081E-07;-1,29032135009766E-07;100 nA
0,30029296875;250,196160368315;1,05194091796875E-08;0,300018310546875;7;486;1,27688050270081E-07;-1,29032135009766E-07;100 nA
0,350341796875;250,696648367052;1,06781005859375E-08;0,35009765625;7;487;1,27688050270081E-07;-1,29032135009766E-07;100 nA
0,400390625;251,197136365788;1,06170654296875E-08;0,40008544921875;7;488;1,27688050270081E-07;-1,29032135009766E-07;100 nA
0,450439453125;251,697624364525;9,844970703125E-09;0,450103759765625;7;489;1,27688050270081E-07;-1,29032135009766E-07;100 nA
0,50048828125;252,198112363261;9,0667724609375E-09;0,500091552734375;7;490;1,27688050270081E-07;-1,29032135009766E-07;100 nA
0,550537109375;252,698600361997;8,7005615234375E-09;0,550079345703125;7;491;1,27688050270081E-07;-1,29032135009766E-07;100 nA
0,6005859375;253,199088360734;8,5205078125E-09;0,600067138671875;7;492;1,27688050270081E-07;-1,29032135009766E-07;100 nA
0,650634765625;253,69957635947;8,5174560546875E-09;0,649993896484375;7;493;1,27688050270081E-07;-1,29032135009766E-07;100 nA
0,70068359375;254,200064358207;8,587646484375E-09;0,699920654296875;7;494;1,27688050270081E-07;-1,29032135009766E-07;100 nA
0,750732421875;254,700552356943;8,551025390625E-09;0,749847412109375;7;495;1,27688050270081E-07;-1,29032135009766E-07;100 nA
0,80078125;255,201040355679;8,4686279296875E-09;0,79986572265625;7;496;1,27688050270081E-07;-1,29032135009766E-07;100 nA
0,850830078125;255,701528354416;8,331298828125E-09;0,849609375;7;497;1,27688050270081E-07;-1,29032135009766E-07;100 nA
0,90087890625;256,202016353152;8,2305908203125E-09;0,89935302734375;7;498;1,27688050270081E-07;-1,29032135009766E-07;100 nA
0,950927734375;256,702504351888;8,135986328125E-09;0,94940185546875;7;499;1,27688050270081E-07;-1,29032135009766E-07;100 nA
1,0009765625;257,202992350625;8,099365234375E-09;0,999755859375;7;500;1,27688050270081E-07;-1,29032135009766E-07;100 nA
0,950927734375;257,703480349361;5,6243896484375E-09;0,9490966796875;7;501;1,27688050270081E-07;-1,29032135009766E-07;100 nA
0,90087890625;258,203968348098;4,11376953125E-09;0,89996337890625;7;502;1,27688050270081E-07;-1,29032135009766E-07;100 nA
0,850830078125;258,704456346834;2,996826171875E-09;0,85052490234375;7;503;1,27688050270081E-07;-1,29032135009766E-07;100 nA
0,80078125;259,20494434557;2,0599365234375E-09;0,799560546875;7;504;1,27688050270081E-07;-1,29032135009766E-07;100 nA
0,750732421875;259,705432344307;1,3427734375E-09;0,749847412109375;7;505;1,27688050270081E-07;-1,29032135009766E-07;100 nA
0,70068359375;260,205920343043;6,77490234375E-10;0,699920654296875;7;506;1,27688050270081E-07;-1,29032135009766E-07;100 nA
0,650634765625;260,70640834178;2,74658203125E-11;0,6500244140625;7;507;1,27688050270081E-07;-1,29032135009766E-07;100 nA
0,6005859375;261,206896340516;-4,8828125E-10;0,600067138671875;7;508;1,27688050270081E-07;-1,29032135009766E-07;100 nA
0,550537109375;261,707384339252;-1,0528564453125E-09;0,550140380859375;7;509;1,27688050270081E-07;-1,29032135009766E-07;100 nA
0,50048828125;262,207872337989;-1,6082763671875E-09;0,5001220703125;7;510;1,27688050270081E-07;-1,29032135009766E-07;100 nA
0,450439453125;262,708360336725;-2,117919921875E-09;0,45013427734375;7;511;1,27688050270081E-07;-1,29032135009766E-07;100 nA
0,400390625;263,208848335462;-2,5970458984375E-09;0,40008544921875;7;512;1,27688050270081E-07;-1,29032135009766E-07;100 nA
0,350341796875;263,709336334198;-2,9815673828125E-09;0,35009765625;7;513;1,27688050270081E-07;-1,29032135009766E-07;100 nA
0,30029296875;264,209824332934;-3,40576171875E-09;0,300079345703125;7;514;1,27688050270081E-07;-1,29032135009766E-07;100 nA
0,250244140625;264,710312331671;-3,8421630859375E-09;0,250091552734375;7;515;1,27688050270081E-07;-1,29032135009766E-07;100 nA
0,2001953125;265,210800330407;-4,156494140625E-09;0,200103759765625;7;516;1,27688050270081E-07;-1,29032135009766E-07;100 nA
0,150146484375;265,711288329143;-4,4891357421875E-09;0,15008544921875;7;517;1,27688050270081E-07;-1,29032135009766E-07;100 nA
0,10009765625;266,21177632788;-4,82177734375E-09;0,10009765625;7;518;1,27688050270081E-07;-1,29032135009766E-07;100 nA
0,050048828125;266,712264326616;-5,267333984375E-09;0,050079345703125;7;519;1,27688050270081E-07;-1,29032135009766E-07;100 nA
0;267,212752325353;-5,975341796875E-09;0,000119018554687503;7;520;1,27688050270081E-07;-1,29032135009766E-07;100 nA
-0,050048828125;267,713240324089;-6,94580078125E-09;-0,049835205078125;7;521;1,27688050270081E-07;-1,29032135009766E-07;100 nA
-0,10009765625;268,213728322825;-8,154296875E-09;-0,09967041015625;7;522;1,27688050270081E-07;-1,29032135009766E-07;100 nA
-0,150146484375;268,714216321562;-9,1156005859375E-09;-0,1495361328125;7;523;1,27688050270081E-07;-1,29032135009766E-07;100 nA
-0,2001953125;269,214704320298;-9,7869873046875E-09;-0,199493408203125;7;524;1,27688050270081E-07;-1,29032135009766E-07;100 nA
-0,250244140625;269,715192319035;-1,05133056640625E-08;-0,249359130859375;7;525;1,27688050270081E-07;-1,29032135009766E-07;100 nA
-0,30029296875;270,215680317771;-1,119384765625E-08;-0,299285888671875;7;526;1,27688050270081E-07;-1,29032135009766E-07;100 nA
-0,350341796875;270,716168316507;-1,1834716796875E-08;-0,34918212890625;7;527;1,27688050270081E-07;-1,29032135009766E-07;100 nA
-0,400390625;271,216656315244;-1,243896484375E-08;-0,399078369140625;7;528;1,27688050270081E-07;-1,29032135009766E-07;100 nA
-0,450439453125;271,71714431398;-1,297607421875E-08;-0,44891357421875;7;529;1,27688050270081E-07;-1,29032135009766E-07;100 nA
-0,50048828125;272,217632312717;-1,3446044921875E-08;-0,498870849609375;7;530;1,27688050270081E-07;-1,29032135009766E-07;100 nA
-0,550537109375;272,718120311453;-1,37786865234375E-08;-0,548736572265625;7;531;1,27688050270081E-07;-1,29032135009766E-07;100 nA
-0,6005859375;273,218608310189;-1,37847900390625E-08;-0,59869384765625;7;532;1,27688050270081E-07;-1,29032135009766E-07;100 nA
-0,650634765625;273,719096308926;-1,29974365234375E-08;-0,648590087890625;7;533;1,27688050270081E-07;-1,29032135009766E-07;100 nA
-0,70068359375;274,219584307662;-1,1553955078125E-08;-0,69854736328125;7;534;1,27688050270081E-07;-1,29032135009766E-07;100 nA
-0,750732421875;274,720072306398;-1,04278564453125E-08;-0,74859619140625;7;535;1,27688050270081E-07;-1,29032135009766E-07;100 nA
-0,80078125;275,220560305135;-8,819580078125E-09;-0,79864501953125;7;536;1,27688050270081E-07;-1,29032135009766E-07;100 nA
-0,850830078125;275,721048303871;-7,513427734375E-09;-0,84869384765625;7;537;1,27688050270081E-07;-1,29032135009766E-07;100 nA
-0,90087890625;276,221536302608;-6,768798828125E-09;-0,89874267578125;7;538;1,27688050270081E-07;-1,29032135009766E-07;100 nA
-0,950927734375;276,722024301344;-6,4544677734375E-09;-0,9490966796875;7;539;1,27688050270081E-07;-1,29032135009766E-07;100 nA
-1,0009765625;277,22251230008;-6,31103515625E-09;-0,999755859375;7;540;1,27688050270081E-07;-1,29032135009766E-07;100 nA
-0,950927734375;277,723000298817;-3,9825439453125E-09;-0,9490966796875;7;541;1,27688050270081E-07;-1,29032135009766E-07;100 nA
-0,90087890625;278,223488297553;-2,7130126953125E-09;-0,89813232421875;7;542;1,27688050270081E-07;-1,29032135009766E-07;100 nA
-0,850830078125;278,72397629629;-1,81884765625E-09;-0,84869384765625;7;543;1,27688050270081E-07;-1,29032135009766E-07;100 nA
-0,80078125;279,224464295026;-1,1138916015625E-09;-0,7989501953125;7;544;1,27688050270081E-07;-1,29032135009766E-07;100 nA
-0,750732421875;279,724952293762;-5,645751953125E-10;-0,74859619140625;7;545;1,27688050270081E-07;-1,29032135009766E-07;100 nA
-0,70068359375;280,225440292499;0;-0,69854736328125;7;546;1,27688050270081E-07;-1,29032135009766E-07;100 nA
-0,650634765625;280,725928291235;5,4931640625E-10;-0,648590087890625;7;547;1,27688050270081E-07;-1,29032135009766E-07;100 nA
-0,6005859375;281,226416289972;1,0345458984375E-09;-0,59869384765625;7;548;1,27688050270081E-07;-1,29032135009766E-07;100 nA
-0,550537109375;281,726904288708;1,5838623046875E-09;-0,548736572265625;7;549;1,27688050270081E-07;-1,29032135009766E-07;100 nA
-0,50048828125;282,227392287444;2,2003173828125E-09;-0,498870849609375;7;550;1,27688050270081E-07;-1,29032135009766E-07;100 nA
-0,450439453125;282,727880286181;2,8350830078125E-09;-0,449005126953125;7;551;1,27688050270081E-07;-1,29032135009766E-07;100 nA
-0,400390625;283,228368284917;3,5308837890625E-09;-0,3990478515625;7;552;1,27688050270081E-07;-1,29032135009766E-07;100 nA
-0,350341796875;283,728856283654;4,132080078125E-09;-0,349212646484375;7;553;1,27688050270081E-07;-1,29032135009766E-07;100 nA
-0,30029296875;284,22934428239;4,559326171875E-09;-0,299285888671875;7;554;1,27688050270081E-07;-1,29032135009766E-07;100 nA
-0,250244140625;284,729832281126;4,9896240234375E-09;-0,249420166015625;7;555;1,27688050270081E-07;-1,29032135009766E-07;100 nA
-0,2001953125;285,230320279863;5,3192138671875E-09;-0,199462890625;7;556;1,27688050270081E-07;-1,29032135009766E-07;100 nA
-0,150146484375;285,730808278599;5,5938720703125E-09;-0,149658203125;7;557;1,27688050270081E-07;-1,29032135009766E-07;100 nA
-0,10009765625;286,231296277335;6,0455322265625E-09;-0,0997314453125;7;558;1,27688050270081E-07;-1,29032135009766E-07;100 nA
-0,050048828125;286,731784276072;6,591796875E-09;-0,049835205078125;7;559;1,27688050270081E-07;-1,29032135009766E-07;100 nA
0;287,232272274808;7,3089599609375E-09;0,000115966796875006;7;560;1,27688050270081E-07;-1,29032135009766E-07;100 nA
0,050048828125;287,732760273545;8,1512451171875E-09;0,050079345703125;8;561;1,27794966101646E-07;-1,28862597048283E-07;100 nA
0,10009765625;288,233248272281;8,97216796875E-09;0,10009765625;8;562;1,27794966101646E-07;-1,28862597048283E-07;100 nA
0,150146484375;288,733736271017;9,637451171875E-09;0,150054931640625;8;563;1,27794966101646E-07;-1,28862597048283E-07;100 nA
0,2001953125;289,234224269754;1,01226806640625E-08;0,200042724609375;8;564;1,27794966101646E-07;-1,28862597048283E-07;100 nA
0,250244140625;289,73471226849;1,038818359375E-08;0,250091552734375;8;565;1,27794966101646E-07;-1,28862597048283E-07;100 nA
0,30029296875;290,235200267227;1,05438232421875E-08;0,300079345703125;8;566;1,27794966101646E-07;-1,28862597048283E-07;100 nA
0,350341796875;290,735688265963;1,0687255859375E-08;0,350067138671875;8;567;1,27794966101646E-07;-1,28862597048283E-07;100 nA
0,400390625;291,236176264699;1,0589599609375E-08;0,400115966796875;8;568;1,27794966101646E-07;-1,28862597048283E-07;100 nA
0,450439453125;291,736664263436;9,8480224609375E-09;0,45013427734375;8;569;1,27794966101646E-07;-1,28862597048283E-07;100 nA
0,50048828125;292,237152262172;9,075927734375E-09;0,5001220703125;8;570;1,27794966101646E-07;-1,28862597048283E-07;100 nA
0,550537109375;292,737640260909;8,6822509765625E-09;0,55010986328125;8;571;1,27794966101646E-07;-1,28862597048283E-07;100 nA
0,6005859375;293,238128259645;8,4869384765625E-09;0,60009765625;8;572;1,27794966101646E-07;-1,28862597048283E-07;100 nA
0,650634765625;293,738616258381;8,4716796875E-09;0,650054931640625;8;573;1,27794966101646E-07;-1,28862597048283E-07;100 nA
0,70068359375;294,239104257118;8,5296630859375E-09;0,699859619140625;8;574;1,27794966101646E-07;-1,28862597048283E-07;100 nA
0,750732421875;294,739592255854;8,5357666015625E-09;0,749847412109375;8;575;1,27794966101646E-07;-1,28862597048283E-07;100 nA
0,80078125;295,24008025459;8,4136962890625E-09;0,799560546875;8;576;1,27794966101646E-07;-1,28862597048283E-07;100 nA
0,850830078125;295,740568253327;8,2763671875E-09;0,84991455078125;8;577;1,27794966101646E-07;-1,28862597048283E-07;100 nA
0,90087890625;296,241056252063;8,123779296875E-09;0,89935302734375;8;578;1,27794966101646E-07;-1,28862597048283E-07;100 nA
0,950927734375;296,7415442508;8,0413818359375E-09;0,94940185546875;8;579;1,27794966101646E-07;-1,28862597048283E-07;100 nA
1,0009765625;297,242032249536;8,038330078125E-09;0,999755859375;8;580;1,27794966101646E-07;-1,28862597048283E-07;100 nA
0,950927734375;297,742520248272;5,6304931640625E-09;0,94970703125;8;581;1,27794966101646E-07;-1,28862597048283E-07;100 nA
0,90087890625;298,243008247009;4,058837890625E-09;0,89935302734375;8;582;1,27794966101646E-07;-1,28862597048283E-07;100 nA
0,850830078125;298,743496245745;2,96630859375E-09;0,8502197265625;8;583;1,27794966101646E-07;-1,28862597048283E-07;100 nA
0,80078125;299,243984244482;2,0843505859375E-09;0,79986572265625;8;584;1,27794966101646E-07;-1,28862597048283E-07;100 nA
0,750732421875;299,744472243218;1,3397216796875E-09;0,7498779296875;8;585;1,27794966101646E-07;-1,28862597048283E-07;100 nA
0,70068359375;300,244960241954;6,7138671875E-10;0,699920654296875;8;586;1,27794966101646E-07;-1,28862597048283E-07;100 nA
0,650634765625;300,745448240691;1,220703125E-10;0,6500244140625;8;587;1,27794966101646E-07;-1,28862597048283E-07;100 nA
0,6005859375;301,245936239427;-4,913330078125E-10;0,600128173828125;8;588;1,27794966101646E-07;-1,28862597048283E-07;100 nA
0,550537109375;301,746424238164;-1,068115234375E-09;0,55010986328125;8;589;1,27794966101646E-07;-1,28862597048283E-07;100 nA
0,50048828125;302,2469122369;-1,6143798828125E-09;0,500091552734375;8;590;1,27794966101646E-07;-1,28862597048283E-07;100 nA
0,450439453125;302,747400235636;-2,1148681640625E-09;0,450103759765625;8;591;1,27794966101646E-07;-1,28862597048283E-07;100 nA
0,400390625;303,247888234373;-2,581787109375E-09;0,40008544921875;8;592;1,27794966101646E-07;-1,28862597048283E-07;100 nA
0,350341796875;303,748376233109;-2,9815673828125E-09;0,35015869140625;8;593;1,27794966101646E-07;-1,28862597048283E-07;100 nA
0,30029296875;304,248864231845;-3,399658203125E-09;0,30010986328125;8;594;1,27794966101646E-07;-1,28862597048283E-07;100 nA
0,250244140625;304,749352230582;-3,8543701171875E-09;0,250091552734375;8;595;1,27794966101646E-07;-1,28862597048283E-07;100 nA
0,2001953125;305,249840229318;-4,18701171875E-09;0,200042724609375;8;596;1,27794966101646E-07;-1,28862597048283E-07;100 nA
0,150146484375;305,750328228055;-4,4647216796875E-09;0,150115966796875;8;597;1,27794966101646E-07;-1,28862597048283E-07;100 nA
0,10009765625;306,250816226791;-4,8248291015625E-09;0,10003662109375;8;598;1,27794966101646E-07;-1,28862597048283E-07;100 nA
0,050048828125;306,751304225527;-5,2703857421875E-09;0,05010986328125;8;599;1,27794966101646E-07;-1,28862597048283E-07;100 nA
0;307,251792224264;-5,9600830078125E-09;0,000128173828124994;8;600;1,27794966101646E-07;-1,28862597048283E-07;100 nA
-0,050048828125;307,752280223;-6,9122314453125E-09;-0,0498046875;8;601;1,27794966101646E-07;-1,28862597048283E-07;100 nA
-0,10009765625;308,252768221737;-8,14208984375E-09;-0,09967041015625;8;602;1,27794966101646E-07;-1,28862597048283E-07;100 nA
-0,150146484375;308,753256220473;-9,0789794921875E-09;-0,149566650390625;8;603;1,27794966101646E-07;-1,28862597048283E-07;100 nA
-0,2001953125;309,253744219209;-9,7412109375E-09;-0,199432373046875;8;604;1,27794966101646E-07;-1,28862597048283E-07;100 nA
-0,250244140625;309,754232217946;-1,0430908203125E-08;-0,249359130859375;8;605;1,27794966101646E-07;-1,28862597048283E-07;100 nA
-0,30029296875;310,254720216682;-1,1138916015625E-08;-0,29925537109375;8;606;1,27794966101646E-07;-1,28862597048283E-07;100 nA
-0,350341796875;310,755208215419;-1,1773681640625E-08;-0,349151611328125;8;607;1,27794966101646E-07;-1,28862597048283E-07;100 nA
-0,400390625;311,255696214155;-1,2432861328125E-08;-0,3990478515625;8;608;1,27794966101646E-07;-1,28862597048283E-07;100 nA
-0,450439453125;311,756184212891;-1,2969970703125E-08;-0,448944091796875;8;609;1,27794966101646E-07;-1,28862597048283E-07;100 nA
-0,50048828125;312,256672211628;-1,3446044921875E-08;-0,4989013671875;8;610;1,27794966101646E-07;-1,28862597048283E-07;100 nA
-0,550537109375;312,757160210364;-1,37969970703125E-08;-0,54876708984375;8;611;1,27794966101646E-07;-1,28862597048283E-07;100 nA
-0,6005859375;313,2576482091;-1,3812255859375E-08;-0,598663330078125;8;612;1,27794966101646E-07;-1,28862597048283E-07;100 nA
-0,650634765625;313,758136207837;-1,297607421875E-08;-0,64862060546875;8;613;1,27794966101646E-07;-1,28862597048283E-07;100 nA
-0,70068359375;314,258624206573;-1,15264892578125E-08;-0,6986083984375;8;614;1,27794966101646E-07;-1,28862597048283E-07;100 nA
-0,750732421875;314,75911220531;-1,041259765625E-08;-0,74859619140625;8;615;1,27794966101646E-07;-1,28862597048283E-07;100 nA
-0,80078125;315,259600204046;-8,7738037109375E-09;-0,7989501953125;8;616;1,27794966101646E-07;-1,28862597048283E-07;100 nA
-0,850830078125;315,760088202782;-7,5042724609375E-09;-0,84869384765625;8;617;1,27794966101646E-07;-1,28862597048283E-07;100 nA
-0,90087890625;316,260576201519;-6,8115234375E-09;-0,8984375;8;618;1,27794966101646E-07;-1,28862597048283E-07;100 nA
-0,950927734375;316,761064200255;-6,45751953125E-09;-0,94818115234375;8;619;1,27794966101646E-07;-1,28862597048283E-07;100 nA
-1,0009765625;317,261552198992;-6,298828125E-09;-0,99945068359375;8;620;1,27794966101646E-07;-1,28862597048283E-07;100 nA
-0,950927734375;317,762040197728;-4,0069580078125E-09;-0,94879150390625;8;621;1,27794966101646E-07;-1,28862597048283E-07;100 nA
-0,90087890625;318,262528196464;-2,7435302734375E-09;-0,8984375;8;622;1,27794966101646E-07;-1,28862597048283E-07;100 nA
-0,850830078125;318,763016195201;-1,8341064453125E-09;-0,8489990234375;8;623;1,27794966101646E-07;-1,28862597048283E-07;100 nA
-0,80078125;319,263504193937;-1,1077880859375E-09;-0,79925537109375;8;624;1,27794966101646E-07;-1,28862597048283E-07;100 nA
-0,750732421875;319,763992192674;-5,2490234375E-10;-0,748565673828125;8;625;1,27794966101646E-07;-1,28862597048283E-07;100 nA
-0,70068359375;320,26448019141;-6,103515625E-12;-0,6986083984375;8;626;1,27794966101646E-07;-1,28862597048283E-07;100 nA
-0,650634765625;320,764968190146;5,55419921875E-10;-0,64862060546875;8;627;1,27794966101646E-07;-1,28862597048283E-07;100 nA
-0,6005859375;321,265456188883;1,0986328125E-09;-0,5986328125;8;628;1,27794966101646E-07;-1,28862597048283E-07;100 nA
-0,550537109375;321,765944187619;1,6510009765625E-09;-0,548736572265625;8;629;1,27794966101646E-07;-1,28862597048283E-07;100 nA
-0,50048828125;322,266432186355;2,24609375E-09;-0,498809814453125;8;630;1,27794966101646E-07;-1,28862597048283E-07;100 nA
-0,450439453125;322,766920185092;2,9632568359375E-09;-0,448944091796875;8;631;1,27794966101646E-07;-1,28862597048283E-07;100 nA
-0,400390625;323,267408183828;3,61328125E-09;-0,399139404296875;8;632;1,27794966101646E-07;-1,28862597048283E-07;100 nA
-0,350341796875;323,767896182565;4,180908203125E-09;-0,34912109375;8;633;1,27794966101646E-07;-1,28862597048283E-07;100 nA
-0,30029296875;324,268384181301;4,656982421875E-09;-0,299285888671875;8;634;1,27794966101646E-07;-1,28862597048283E-07;100 nA
-0,250244140625;324,768872180037;5,0567626953125E-09;-0,24932861328125;8;635;1,27794966101646E-07;-1,28862597048283E-07;100 nA
-0,2001953125;325,269360178774;5,377197265625E-09;-0,199493408203125;8;636;1,27794966101646E-07;-1,28862597048283E-07;100 nA
-0,150146484375;325,76984817751;5,657958984375E-09;-0,1495361328125;8;637;1,27794966101646E-07;-1,28862597048283E-07;100 nA
-0,10009765625;326,270336176247;6,01806640625E-09;-0,099700927734375;8;638;1,27794966101646E-07;-1,28862597048283E-07;100 nA
-0,050048828125;326,770824174983;6,53076171875E-09;-0,049835205078125;8;639;1,27794966101646E-07;-1,28862597048283E-07;100 nA
0;327,271312173719;7,244873046875E-09;0,000115966796875006;8;640;1,27794966101646E-07;-1,28862597048283E-07;100 nA
0,050048828125;327,771800172456;8,050537109375E-09;0,05010986328125;9;641;1,27730816602707E-07;-1,28954239189625E-07;100 nA
0,10009765625;328,272288171192;8,89892578125E-09;0,100067138671875;9;642;1,27730816602707E-07;-1,28954239189625E-07;100 nA
0,150146484375;328,772776169929;9,5550537109375E-09;0,149993896484375;9;643;1,27730816602707E-07;-1,28954239189625E-07;100 nA
0,2001953125;329,273264168665;9,991455078125E-09;0,199951171875;9;644;1,27730816602707E-07;-1,28954239189625E-07;100 nA
0,250244140625;329,773752167401;1,0284423828125E-08;0,25006103515625;9;645;1,27730816602707E-07;-1,28954239189625E-07;100 nA
0,30029296875;330,274240166138;1,043701171875E-08;0,300079345703125;9;646;1,27730816602707E-07;-1,28954239189625E-07;100 nA
0,350341796875;330,774728164874;1,06109619140625E-08;0,350067138671875;9;647;1,27730816602707E-07;-1,28954239189625E-07;100 nA
0,400390625;331,27521616361;1,0504150390625E-08;0,400054931640625;9;648;1,27730816602707E-07;-1,28954239189625E-07;100 nA
0,450439453125;331,775704162347;9,7686767578125E-09;0,450103759765625;9;649;1,27730816602707E-07;-1,28954239189625E-07;100 nA
0,50048828125;332,276192161083;8,990478515625E-09;0,500030517578125;9;650;1,27730816602707E-07;-1,28954239189625E-07;100 nA
0,550537109375;332,77668015982;8,5968017578125E-09;0,550048828125;9;651;1,27730816602707E-07;-1,28954239189625E-07;100 nA
0,6005859375;333,277168158556;8,447265625E-09;0,60003662109375;9;652;1,27730816602707E-07;-1,28954239189625E-07;100 nA
0,650634765625;333,777656157292;8,5052490234375E-09;0,6500244140625;9;653;1,27730816602707E-07;-1,28954239189625E-07;100 nA
0,70068359375;334,278144156029;8,575439453125E-09;0,699981689453125;9;654;1,27730816602707E-07;-1,28954239189625E-07;100 nA
0,750732421875;334,778632154765;8,5723876953125E-09;0,7498779296875;9;655;1,27730816602707E-07;-1,28954239189625E-07;100 nA
0,80078125;335,279120153502;8,4625244140625E-09;0,79986572265625;9;656;1,27730816602707E-07;-1,28954239189625E-07;100 nA
0,850830078125;335,779608152238;8,3282470703125E-09;0,84991455078125;9;657;1,27730816602707E-07;-1,28954239189625E-07;100 nA
0,90087890625;336,280096150974;8,221435546875E-09;0,89935302734375;9;658;1,27730816602707E-07;-1,28954239189625E-07;100 nA
0,950927734375;336,780584149711;8,154296875E-09;0,9490966796875;9;659;1,27730816602707E-07;-1,28954239189625E-07;100 nA
1,0009765625;337,281072148447;8,1512451171875E-09;0,999755859375;9;660;1,27730816602707E-07;-1,28954239189625E-07;100 nA
0,950927734375;337,781560147184;5,6884765625E-09;0,94970703125;9;661;1,27730816602707E-07;-1,28954239189625E-07;100 nA
0,90087890625;338,28204814592;4,1595458984375E-09;0,89935302734375;9;662;1,27730816602707E-07;-1,28954239189625E-07;100 nA
0,850830078125;338,782536144656;3,0364990234375E-09;0,84991455078125;9;663;1,27730816602707E-07;-1,28954239189625E-07;100 nA
0,80078125;339,283024143393;2,1331787109375E-09;0,799560546875;9;664;1,27730816602707E-07;-1,28954239189625E-07;100 nA
0,750732421875;339,783512142129;1,3824462890625E-09;0,7498779296875;9;665;1,27730816602707E-07;-1,28954239189625E-07;100 nA
0,70068359375;340,284000140865;7,01904296875E-10;0,699859619140625;9;666;1,27730816602707E-07;-1,28954239189625E-07;100 nA
0,650634765625;340,784488139602;3,0517578125E-11;0,6500244140625;9;667;1,27730816602707E-07;-1,28954239189625E-07;100 nA
0,6005859375;341,284976138338;-4,913330078125E-10;0,60003662109375;9;668;1,27730816602707E-07;-1,28954239189625E-07;100 nA
0,550537109375;341,785464137075;-1,15966796875E-09;0,550079345703125;9;669;1,27730816602707E-07;-1,28954239189625E-07;100 nA
0,50048828125;342,285952135811;-1,6632080078125E-09;0,50006103515625;9;670;1,27730816602707E-07;-1,28954239189625E-07;100 nA
0,450439453125;342,786440134547;-2,1759033203125E-09;0,4500732421875;9;671;1,27730816602707E-07;-1,28954239189625E-07;100 nA
0,400390625;343,286928133284;-2,6611328125E-09;0,4000244140625;9;672;1,27730816602707E-07;-1,28954239189625E-07;100 nA
0,350341796875;343,78741613202;-3,0853271484375E-09;0,35009765625;9;673;1,27730816602707E-07;-1,28954239189625E-07;100 nA
0,30029296875;344,287904130757;-3,5430908203125E-09;0,300048828125;9;674;1,27730816602707E-07;-1,28954239189625E-07;100 nA
0,250244140625;344,788392129493;-3,9398193359375E-09;0,25006103515625;9;675;1,27730816602707E-07;-1,28954239189625E-07;100 nA
0,2001953125;345,288880128229;-4,2816162109375E-09;0,200042724609375;9;676;1,27730816602707E-07;-1,28954239189625E-07;100 nA
0,150146484375;345,789368126966;-4,5318603515625E-09;0,15008544921875;9;677;1,27730816602707E-07;-1,28954239189625E-07;100 nA
0,10009765625;346,289856125702;-4,8675537109375E-09;0,10015869140625;9;678;1,27730816602707E-07;-1,28954239189625E-07;100 nA
0,050048828125;346,790344124439;-5,3314208984375E-09;0,050140380859375;9;679;1,27730816602707E-07;-1,28954239189625E-07;100 nA
0;347,290832123175;-5,9783935546875E-09;0,000134277343750003;9;680;1,27730816602707E-07;-1,28954239189625E-07;100 nA
-0,050048828125;347,791320121911;-6,939697265625E-09;-0,049835205078125;9;681;1,27730816602707E-07;-1,28954239189625E-07;100 nA
-0,10009765625;348,291808120648;-8,1756591796875E-09;-0,099700927734375;9;682;1,27730816602707E-07;-1,28954239189625E-07;100 nA
-0,150146484375;348,792296119384;-9,0606689453125E-09;-0,149505615234375;9;683;1,27730816602707E-07;-1,28954239189625E-07;100 nA
-0,2001953125;349,29278411812;-9,716796875E-09;-0,19940185546875;9;684;1,27730816602707E-07;-1,28954239189625E-07;100 nA
-0,250244140625;349,793272116857;-1,04156494140625E-08;-0,24932861328125;9;685;1,27730816602707E-07;-1,28954239189625E-07;100 nA
-0,30029296875;350,293760115593;-1,10748291015625E-08;-0,299224853515625;9;686;1,27730816602707E-07;-1,28954239189625E-07;100 nA
-0,350341796875;350,79424811433;-1,17156982421875E-08;-0,34918212890625;9;687;1,27730816602707E-07;-1,28954239189625E-07;100 nA
-0,400390625;351,294736113066;-1,231689453125E-08;-0,3990478515625;9;688;1,27730816602707E-07;-1,28954239189625E-07;100 nA
-0,450439453125;351,795224111802;-1,28875732421875E-08;-0,44891357421875;9;689;1,27730816602707E-07;-1,28954239189625E-07;100 nA
-0,50048828125;352,295712110539;-1,33331298828125E-08;-0,498809814453125;9;690;1,27730816602707E-07;-1,28954239189625E-07;100 nA
-0,550537109375;352,796200109275;-1,36749267578125E-08;-0,54876708984375;9;691;1,27730816602707E-07;-1,28954239189625E-07;100 nA
-0,6005859375;353,296688108012;-1,368408203125E-08;-0,5986328125;9;692;1,27730816602707E-07;-1,28954239189625E-07;100 nA
-0,650634765625;353,797176106748;-1,2841796875E-08;-0,6485595703125;9;693;1,27730816602707E-07;-1,28954239189625E-07;100 nA
-0,70068359375;354,297664105484;-1,14501953125E-08;-0,698577880859375;9;694;1,27730816602707E-07;-1,28954239189625E-07;100 nA
-0,750732421875;354,798152104221;-1,029052734375E-08;-0,74853515625;9;695;1,27730816602707E-07;-1,28954239189625E-07;100 nA
-0,80078125;355,298640102957;-8,7310791015625E-09;-0,79864501953125;9;696;1,27730816602707E-07;-1,28954239189625E-07;100 nA
-0,850830078125;355,799128101694;-7,513427734375E-09;-0,84869384765625;9;697;1,27730816602707E-07;-1,28954239189625E-07;100 nA
-0,90087890625;356,29961610043;-6,842041015625E-09;-0,8990478515625;9;698;1,27730816602707E-07;-1,28954239189625E-07;100 nA
-0,950927734375;356,800104099166;-6,500244140625E-09;-0,94879150390625;9;699;1,27730816602707E-07;-1,28954239189625E-07;100 nA
-1,0009765625;357,300592097903;-6,2255859375E-09;-0,99884033203125;9;700;1,27730816602707E-07;-1,28954239189625E-07;100 nA
-0,950927734375;357,801080096639;-4,1107177734375E-09;-0,94879150390625;9;701;1,27730816602707E-07;-1,28954239189625E-07;100 nA
-0,90087890625;358,301568095376;-2,77099609375E-09;-0,8990478515625;9;702;1,27730816602707E-07;-1,28954239189625E-07;100 nA
-0,850830078125;358,802056094112;-1,934814453125E-09;-0,848388671875;9;703;1,27730816602707E-07;-1,28954239189625E-07;100 nA
-0,80078125;359,302544092848;-1,1627197265625E-09;-0,79833984375;9;704;1,27730816602707E-07;-1,28954239189625E-07;100 nA
-0,750732421875;359,803032091585;-5,706787109375E-10;-0,74859619140625;9;705;1,27730816602707E-07;-1,28954239189625E-07;100 nA
-0,70068359375;360,303520090321;-6,103515625E-12;-0,6986083984375;9;706;1,27730816602707E-07;-1,28954239189625E-07;100 nA
-0,650634765625;360,804008089057;5,340576171875E-10;-0,6485595703125;9;707;1,27730816602707E-07;-1,28954239189625E-07;100 nA
-0,6005859375;361,304496087794;1,055908203125E-09;-0,598602294921875;9;708;1,27730816602707E-07;-1,28954239189625E-07;100 nA
-0,550537109375;361,80498408653;1,6204833984375E-09;-0,548736572265625;9;709;1,27730816602707E-07;-1,28954239189625E-07;100 nA
-0,50048828125;362,305472085267;2,2674560546875E-09;-0,498809814453125;9;710;1,27730816602707E-07;-1,28954239189625E-07;100 nA
-0,450439453125;362,805960084003;2,9083251953125E-09;-0,449005126953125;9;711;1,27730816602707E-07;-1,28954239189625E-07;100 nA
-0,400390625;363,306448082739;3,60107421875E-09;-0,399017333984375;9;712;1,27730816602707E-07;-1,28954239189625E-07;100 nA
-0,350341796875;363,806936081476;4,1961669921875E-09;-0,349151611328125;9;713;1,27730816602707E-07;-1,28954239189625E-07;100 nA
-0,30029296875;364,307424080212;4,67529296875E-09;-0,29925537109375;9;714;1,27730816602707E-07;-1,28954239189625E-07;100 nA
-0,250244140625;364,807912078949;5,0567626953125E-09;-0,249359130859375;9;715;1,27730816602707E-07;-1,28954239189625E-07;100 nA
-0,2001953125;365,308400077685;5,413818359375E-09;-0,199432373046875;9;716;1,27730816602707E-07;-1,28954239189625E-07;100 nA
-0,150146484375;365,808888076421;5,6732177734375E-09;-0,14959716796875;9;717;1,27730816602707E-07;-1,28954239189625E-07;100 nA
-0,10009765625;366,309376075158;6,0516357421875E-09;-0,099639892578125;9;718;1,27730816602707E-07;-1,28954239189625E-07;100 nA
-0,050048828125;366,809864073894;6,60400390625E-09;-0,0498046875;9;719;1,27730816602707E-07;-1,28954239189625E-07;100 nA
0;367,310352072631;7,3150634765625E-09;0,000125122070312497;9;720;1,27730816602707E-07;-1,28954239189625E-07;100 nA
0,050048828125;367,810840071367;8,1268310546875E-09;0,050079345703125;10;721;1,27553641796112E-07;-1,28767900168896E-07;100 nA
0,10009765625;368,311328070103;8,9508056640625E-09;0,10003662109375;10;722;1,27553641796112E-07;-1,28767900168896E-07;100 nA
0,150146484375;368,81181606884;9,53369140625E-09;0,150054931640625;10;723;1,27553641796112E-07;-1,28767900168896E-07;100 nA
0,2001953125;369,312304067576;9,9822998046875E-09;0,20001220703125;10;724;1,27553641796112E-07;-1,28767900168896E-07;100 nA
0,250244140625;369,812792066312;1,02874755859375E-08;0,25;10;725;1,27553641796112E-07;-1,28767900168896E-07;100 nA
0,30029296875;370,313280065049;1,04248046875E-08;0,300018310546875;10;726;1,27553641796112E-07;-1,28767900168896E-07;100 nA
0,350341796875;370,813768063785;1,0540771484375E-08;0,350067138671875;10;727;1,27553641796112E-07;-1,28767900168896E-07;100 nA
0,400390625;371,314256062522;1,043701171875E-08;0,400054931640625;10;728;1,27553641796112E-07;-1,28767900168896E-07;100 nA
0,450439453125;371,814744061258;9,68017578125E-09;0,450103759765625;10;729;1,27553641796112E-07;-1,28767900168896E-07;100 nA
0,50048828125;372,315232059994;8,97216796875E-09;0,50006103515625;10;730;1,27553641796112E-07;-1,28767900168896E-07;100 nA
0,550537109375;372,815720058731;8,5784912109375E-09;0,55010986328125;10;731;1,27553641796112E-07;-1,28767900168896E-07;100 nA
0,6005859375;373,316208057467;8,4381103515625E-09;0,60009765625;10;732;1,27553641796112E-07;-1,28767900168896E-07;100 nA
0,650634765625;373,816696056204;8,45947265625E-09;0,650054931640625;10;733;1,27553641796112E-07;-1,28767900168896E-07;100 nA
0,70068359375;374,31718405494;8,4869384765625E-09;0,699920654296875;10;734;1,27553641796112E-07;-1,28767900168896E-07;100 nA
0,750732421875;374,817672053676;8,55712890625E-09;0,7498779296875;10;735;1,27553641796112E-07;-1,28767900168896E-07;100 nA
0,80078125;375,318160052413;8,4564208984375E-09;0,79925537109375;10;736;1,27553641796112E-07;-1,28767900168896E-07;100 nA
0,850830078125;375,818648051149;8,294677734375E-09;0,849609375;10;737;1,27553641796112E-07;-1,28767900168896E-07;100 nA
0,90087890625;376,319136049886;8,197021484375E-09;0,89996337890625;10;738;1,27553641796112E-07;-1,28767900168896E-07;100 nA
0,950927734375;376,819624048622;8,1390380859375E-09;0,94970703125;10;739;1,27553641796112E-07;-1,28767900168896E-07;100 nA
1,0009765625;377,320112047358;8,0963134765625E-09;1,00006103515625;10;740;1,27553641796112E-07;-1,28767900168896E-07;100 nA
0,950927734375;377,820600046095;5,72509765625E-09;0,94940185546875;10;741;1,27553641796112E-07;-1,28767900168896E-07;100 nA
0,90087890625;378,321088044831;4,1595458984375E-09;0,89935302734375;10;742;1,27553641796112E-07;-1,28767900168896E-07;100 nA
0,850830078125;378,821576043567;3,0303955078125E-09;0,8502197265625;10;743;1,27553641796112E-07;-1,28767900168896E-07;100 nA
0,80078125;379,322064042304;2,1636962890625E-09;0,79986572265625;10;744;1,27553641796112E-07;-1,28767900168896E-07;100 nA
0,750732421875;379,82255204104;1,3763427734375E-09;0,74981689453125;10;745;1,27553641796112E-07;-1,28767900168896E-07;100 nA
0,70068359375;380,323040039777;7,01904296875E-10;0,69989013671875;10;746;1,27553641796112E-07;-1,28767900168896E-07;100 nA
0,650634765625;380,823528038513;8,23974609375E-11;0,649993896484375;10;747;1,27553641796112E-07;-1,28767900168896E-07;100 nA
0,6005859375;381,324016037249;-5,767822265625E-10;0,600067138671875;10;748;1,27553641796112E-07;-1,28767900168896E-07;100 nA
0,550537109375;381,824504035986;-1,1474609375E-09;0,550140380859375;10;749;1,27553641796112E-07;-1,28767900168896E-07;100 nA
0,50048828125;382,324992034722;-1,708984375E-09;0,500030517578125;10;750;1,27553641796112E-07;-1,28767900168896E-07;100 nA
0,450439453125;382,825480033459;-2,1820068359375E-09;0,4500732421875;10;751;1,27553641796112E-07;-1,28767900168896E-07;100 nA
0,400390625;383,325968032195;-2,655029296875E-09;0,40008544921875;10;752;1,27553641796112E-07;-1,28767900168896E-07;100 nA
0,350341796875;383,826456030931;-3,076171875E-09;0,350067138671875;10;753;1,27553641796112E-07;-1,28767900168896E-07;100 nA
0,30029296875;384,326944029668;-3,5186767578125E-09;0,300018310546875;10;754;1,27553641796112E-07;-1,28767900168896E-07;100 nA
0,250244140625;384,827432028404;-3,948974609375E-09;0,25;10;755;1,27553641796112E-07;-1,28767900168896E-07;100 nA
0,2001953125;385,327920027141;-4,2022705078125E-09;0,200164794921875;10;756;1,27553641796112E-07;-1,28767900168896E-07;100 nA
0,150146484375;385,828408025877;-4,534912109375E-09;0,1500244140625;10;757;1,27553641796112E-07;-1,28767900168896E-07;100 nA
0,10009765625;386,328896024613;-4,87060546875E-09;0,10009765625;10;758;1,27553641796112E-07;-1,28767900168896E-07;100 nA
0,050048828125;386,82938402335;-5,328369140625E-09;0,050079345703125;10;759;1,27553641796112E-07;-1,28767900168896E-07;100 nA
0;387,329872022086;-5,987548828125E-09;0,000119018554687503;10;760;1,27553641796112E-07;-1,28767900168896E-07;100 nA
-0,050048828125;387,830360020822;-6,9488525390625E-09;-0,049774169921875;10;761;1,27553641796112E-07;-1,28767900168896E-07;100 nA
-0,10009765625;388,330848019559;-8,0841064453125E-09;-0,099639892578125;10;762;1,27553641796112E-07;-1,28767900168896E-07;100 nA
-0,150146484375;388,831336018295;-9,0423583984375E-09;-0,149566650390625;10;763;1,27553641796112E-07;-1,28767900168896E-07;100 nA
-0,2001953125;389,331824017032;-9,7381591796875E-09;-0,199462890625;10;764;1,27553641796112E-07;-1,28767900168896E-07;100 nA
-0,250244140625;389,832312015768;-1,04217529296875E-08;-0,249359130859375;10;765;1,27553641796112E-07;-1,28767900168896E-07;100 nA
-0,30029296875;390,332800014504;-1,1053466796875E-08;-0,2991943359375;10;766;1,27553641796112E-07;-1,28767900168896E-07;100 nA
-0,350341796875;390,833288013241;-1,17095947265625E-08;-0,34918212890625;10;767;1,27553641796112E-07;-1,28767900168896E-07;100 nA
-0,400390625;391,333776011977;-1,231689453125E-08;-0,399078369140625;10;768;1,27553641796112E-07;-1,28767900168896E-07;100 nA
-0,450439453125;391,834264010714;-1,2847900390625E-08;-0,44891357421875;10;769;1,27553641796112E-07;-1,28767900168896E-07;100 nA
-0,50048828125;392,33475200945;-1,3330078125E-08;-0,498809814453125;10;770;1,27553641796112E-07;-1,28767900168896E-07;100 nA
-0,550537109375;392,835240008186;-1,3665771484375E-08;-0,548736572265625;10;771;1,27553641796112E-07;-1,28767900168896E-07;100 nA
-0,6005859375;393,335728006923;-1,3653564453125E-08;-0,598663330078125;10;772;1,27553641796112E-07;-1,28767900168896E-07;100 nA
-0,650634765625;393,836216005659;-1,27685546875E-08;-0,648590087890625;10;773;1,27553641796112E-07;-1,28767900168896E-07;100 nA
-0,70068359375;394,336704004396;-1,13677978515625E-08;-0,698638916015625;10;774;1,27553641796112E-07;-1,28767900168896E-07;100 nA
-0,750732421875;394,837192003132;-1,0260009765625E-08;-0,748565673828125;10;775;1,27553641796112E-07;-1,28767900168896E-07;100 nA
-0,80078125;395,337680001868;-8,599853515625E-09;-0,79864501953125;10;776;1,27553641796112E-07;-1,28767900168896E-07;100 nA
-0,850830078125;395,838168000605;-7,4615478515625E-09;-0,8489990234375;10;777;1,27553641796112E-07;-1,28767900168896E-07;100 nA
-0,90087890625;396,338655999341;-6,8115234375E-09;-0,8990478515625;10;778;1,27553641796112E-07;-1,28767900168896E-07;100 nA
-0,950927734375;396,839143998077;-6,4483642578125E-09;-0,94879150390625;10;779;1,27553641796112E-07;-1,28767900168896E-07;100 nA
-1,0009765625;397,339631996814;-6,31103515625E-09;-0,9991455078125;10;780;1,27553641796112E-07;-1,28767900168896E-07;100 nA
-0,950927734375;397,84011999555;-4,0496826171875E-09;-0,94879150390625;10;781;1,27553641796112E-07;-1,28767900168896E-07;100 nA
-0,90087890625;398,340607994287;-2,7984619140625E-09;-0,8990478515625;10;782;1,27553641796112E-07;-1,28767900168896E-07;100 nA
-0,850830078125;398,841095993023;-1,922607421875E-09;-0,84869384765625;10;783;1,27553641796112E-07;-1,28767900168896E-07;100 nA
-0,80078125;399,341583991759;-1,2176513671875E-09;-0,79864501953125;10;784;1,27553641796112E-07;-1,28767900168896E-07;100 nA
-0,750732421875;399,842071990496;-6,65283203125E-10;-0,748626708984375;10;785;1,27553641796112E-07;-1,28767900168896E-07;100 nA
-0,70068359375;400,342559989232;-5,18798828125E-11;-0,698577880859375;10;786;1,27553641796112E-07;-1,28767900168896E-07;100 nA
-0,650634765625;400,843047987969;5,18798828125E-10;-0,64862060546875;10;787;1,27553641796112E-07;-1,28767900168896E-07;100 nA
-0,6005859375;401,343535986705;1,068115234375E-09;-0,5986328125;10;788;1,27553641796112E-07;-1,28767900168896E-07;100 nA
-0,550537109375;401,844023985441;1,605224609375E-09;-0,54876708984375;10;789;1,27553641796112E-07;-1,28767900168896E-07;100 nA
-0,50048828125;402,344511984178;2,203369140625E-09;-0,49884033203125;10;790;1,27553641796112E-07;-1,28767900168896E-07;100 nA
-0,450439453125;402,844999982914;2,8900146484375E-09;-0,448944091796875;10;791;1,27553641796112E-07;-1,28767900168896E-07;100 nA
-0,400390625;403,345487981651;3,5919189453125E-09;-0,39910888671875;10;792;1,27553641796112E-07;-1,28767900168896E-07;100 nA
-0,350341796875;403,845975980387;4,2022705078125E-09;-0,349212646484375;10;793;1,27553641796112E-07;-1,28767900168896E-07;100 nA
-0,30029296875;404,346463979123;4,67529296875E-09;-0,29931640625;10;794;1,27553641796112E-07;-1,28767900168896E-07;100 nA
-0,250244140625;404,84695197786;5,0506591796875E-09;-0,249359130859375;10;795;1,27553641796112E-07;-1,28767900168896E-07;100 nA
-0,2001953125;405,347439976596;5,389404296875E-09;-0,199493408203125;10;796;1,27553641796112E-07;-1,28767900168896E-07;100 nA
-0,150146484375;405,847927975332;5,70068359375E-09;-0,149566650390625;10;797;1,27553641796112E-07;-1,28767900168896E-07;100 nA
-0,10009765625;406,348415974069;6,09130859375E-09;-0,099700927734375;10;798;1,27553641796112E-07;-1,28767900168896E-07;100 nA
-0,050048828125;406,848903972805;6,634521484375E-09;-0,049835205078125;10;799;1,27553641796112E-07;-1,28767900168896E-07;100 nA
0;407,349391971542;7,3577880859375E-09;0,000131225585937506;10;800;1,27553641796112E-07;-1,28767900168896E-07;100 nA
