Potential applied (V);Time (s);WE(1).Current (A);WE(1).Potential (V);Scan;Index;Q+;Q-;Current range
0,050048828125;7,39706298132421;2,6092529296875E-09;0,050048828125;1;1;7,52000138163567E-08;-8,84484127163887E-08;100 nA
0,10009765625;7,8975509800606;2,7191162109375E-09;0,10009765625;1;2;7,52000138163567E-08;-8,84484127163887E-08;100 nA
0,150146484375;8,39803897879699;2,77099609375E-09;0,15008544921875;1;3;7,52000138163567E-08;-8,84484127163887E-08;100 nA
0,2001953125;8,89852697753338;2,9998779296875E-09;0,200042724609375;1;4;7,52000138163567E-08;-8,84484127163887E-08;100 nA
0,250244140625;9,39901497626977;3,2958984375E-09;0,25006103515625;1;5;7,52000138163567E-08;-8,84484127163887E-08;100 nA
0,30029296875;9,89950297500616;3,656005859375E-09;0,300140380859375;1;6;7,52000138163567E-08;-8,84484127163887E-08;100 nA
0,350341796875;10,3999909737425;4,022216796875E-09;0,35015869140625;1;7;7,52000138163567E-08;-8,84484127163887E-08;100 nA
0,400390625;10,9004789724789;4,376220703125E-09;0,400115966796875;1;8;7,52000138163567E-08;-8,84484127163887E-08;100 nA
0,450439453125;11,4009669712153;4,7515869140625E-09;0,4501953125;1;9;7,52000138163567E-08;-8,84484127163887E-08;100 nA
0,50048828125;11,9014549699517;5,096435546875E-09;0,500152587890625;1;10;7,52000138163567E-08;-8,84484127163887E-08;100 nA
0,550537109375;12,4019429686881;5,4168701171875E-09;0,5501708984375;1;11;7,52000138163567E-08;-8,84484127163887E-08;100 nA
0,6005859375;12,9024309674245;5,57861328125E-09;0,60015869140625;1;12;7,52000138163567E-08;-8,84484127163887E-08;100 nA
0,650634765625;13,4029189661609;5,9112548828125E-09;0,650115966796875;1;13;7,52000138163567E-08;-8,84484127163887E-08;100 nA
0,70068359375;13,9034069648973;6,0333251953125E-09;0,699981689453125;1;14;7,52000138163567E-08;-8,84484127163887E-08;100 nA
0,750732421875;14,4038949636337;6,0882568359375E-09;0,74993896484375;1;15;7,52000138163567E-08;-8,84484127163887E-08;100 nA
0,80078125;14,9043829623701;6,0394287109375E-09;0,799560546875;1;16;7,52000138163567E-08;-8,84484127163887E-08;100 nA
0,850830078125;15,4048709611064;5,8807373046875E-09;0,84930419921875;1;17;7,52000138163567E-08;-8,84484127163887E-08;100 nA
0,90087890625;15,9053589598428;5,8441162109375E-09;0,90057373046875;1;18;7,52000138163567E-08;-8,84484127163887E-08;100 nA
0,950927734375;16,4058469585792;5,7708740234375E-09;0,95001220703125;1;19;7,52000138163567E-08;-8,84484127163887E-08;100 nA
1,0009765625;16,9063349573156;5,7220458984375E-09;0,999755859375;1;20;7,52000138163567E-08;-8,84484127163887E-08;100 nA
0,950927734375;17,406822956052;3,5369873046875E-09;0,94940185546875;1;21;7,52000138163567E-08;-8,84484127163887E-08;100 nA
0,90087890625;17,9073109547884;2,154541015625E-09;0,89996337890625;1;22;7,52000138163567E-08;-8,84484127163887E-08;100 nA
0,850830078125;18,4077989535248;1,3031005859375E-09;0,84991455078125;1;23;7,52000138163567E-08;-8,84484127163887E-08;100 nA
0,80078125;18,9082869522612;6,77490234375E-10;0,8001708984375;1;24;7,52000138163567E-08;-8,84484127163887E-08;100 nA
0,750732421875;19,4087749509976;9,1552734375E-11;0,749908447265625;1;25;7,52000138163567E-08;-8,84484127163887E-08;100 nA
0,70068359375;19,9092629497339;-3,7841796875E-10;0,699920654296875;1;26;7,52000138163567E-08;-8,84484127163887E-08;100 nA
0,650634765625;20,4097509484703;-8,392333984375E-10;0,65008544921875;1;27;7,52000138163567E-08;-8,84484127163887E-08;100 nA
0,6005859375;20,9102389472067;-1,0650634765625E-09;0,600128173828125;1;28;7,52000138163567E-08;-8,84484127163887E-08;100 nA
0,550537109375;21,4107269459431;-1,519775390625E-09;0,550140380859375;1;29;7,52000138163567E-08;-8,84484127163887E-08;100 nA
0,50048828125;21,9112149446795;-2,18505859375E-09;0,500152587890625;1;30;7,52000138163567E-08;-8,84484127163887E-08;100 nA
0,450439453125;22,4117029434159;-2,64892578125E-09;0,45013427734375;1;31;7,52000138163567E-08;-8,84484127163887E-08;100 nA
0,400390625;22,9121909421523;-3,1005859375E-09;0,400115966796875;1;32;7,52000138163567E-08;-8,84484127163887E-08;100 nA
0,350341796875;23,4126789408887;-3,5491943359375E-09;0,35015869140625;1;33;7,52000138163567E-08;-8,84484127163887E-08;100 nA
0,30029296875;23,9131669396251;-3,8238525390625E-09;0,30010986328125;1;34;7,52000138163567E-08;-8,84484127163887E-08;100 nA
0,250244140625;24,4136549383614;-4,205322265625E-09;0,250152587890625;1;35;7,52000138163567E-08;-8,84484127163887E-08;100 nA
0,2001953125;24,9141429370978;-4,4830322265625E-09;0,200103759765625;1;36;7,52000138163567E-08;-8,84484127163887E-08;100 nA
0,150146484375;25,4146309358342;-4,7607421875E-09;0,15008544921875;1;37;7,52000138163567E-08;-8,84484127163887E-08;100 nA
0,10009765625;25,9151189345706;-5,33447265625E-09;0,100128173828125;1;38;7,52000138163567E-08;-8,84484127163887E-08;100 nA
0,050048828125;26,415606933307;-6,756591796875E-09;0,050140380859375;1;39;7,52000138163567E-08;-8,84484127163887E-08;100 nA
0;26,9160949320434;-9,3231201171875E-09;0,000158691406249994;1;40;7,52000138163567E-08;-8,84484127163887E-08;100 nA
-0,050048828125;27,4165829307798;-1,187744140625E-08;-0,049774169921875;1;41;7,52000138163567E-08;-8,84484127163887E-08;100 nA
-0,10009765625;27,9170709295162;-1,34521484375E-08;-0,099700927734375;1;42;7,52000138163567E-08;-8,84484127163887E-08;100 nA
-0,150146484375;28,4175589282526;-1,1175537109375E-08;-0,14959716796875;1;43;7,52000138163567E-08;-8,84484127163887E-08;100 nA
-0,2001953125;28,918046926989;-4,8126220703125E-09;-0,19952392578125;1;44;7,52000138163567E-08;-8,84484127163887E-08;100 nA
-0,250244140625;29,4185349257253;-3,9642333984375E-09;-0,249359130859375;1;45;7,52000138163567E-08;-8,84484127163887E-08;100 nA
-0,30029296875;29,9190229244617;-4,33349609375E-09;-0,299224853515625;1;46;7,52000138163567E-08;-8,84484127163887E-08;100 nA
-0,350341796875;30,4195109231981;-4,7821044921875E-09;-0,3492431640625;1;47;7,52000138163567E-08;-8,84484127163887E-08;100 nA
-0,400390625;30,9199989219345;-5,0201416015625E-09;-0,399078369140625;1;48;7,52000138163567E-08;-8,84484127163887E-08;100 nA
-0,450439453125;31,4204869206709;-4,8614501953125E-09;-0,44891357421875;1;49;7,52000138163567E-08;-8,84484127163887E-08;100 nA
-0,50048828125;31,9209749194073;-4,876708984375E-09;-0,4989013671875;1;50;7,52000138163567E-08;-8,84484127163887E-08;100 nA
-0,550537109375;32,4214629181437;-4,6051025390625E-09;-0,548797607421875;1;51;7,52000138163567E-08;-8,84484127163887E-08;100 nA
-0,6005859375;32,9219509168801;-4,498291015625E-09;-0,5986328125;1;52;7,52000138163567E-08;-8,84484127163887E-08;100 nA
-0,650634765625;33,4224389156165;-4,4769287109375E-09;-0,648651123046875;1;53;7,52000138163567E-08;-8,84484127163887E-08;100 nA
-0,70068359375;33,9229269143528;-4,55322265625E-09;-0,6986083984375;1;54;7,52000138163567E-08;-8,84484127163887E-08;100 nA
-0,750732421875;34,4234149130892;-4,47998046875E-09;-0,74859619140625;1;55;7,52000138163567E-08;-8,84484127163887E-08;100 nA
-0,80078125;34,9239029118256;-4,7332763671875E-09;-0,79803466796875;1;56;7,52000138163567E-08;-8,84484127163887E-08;100 nA
-0,850830078125;35,424390910562;-4,4708251953125E-09;-0,84869384765625;1;57;7,52000138163567E-08;-8,84484127163887E-08;100 nA
-0,90087890625;35,9248789092984;-4,486083984375E-09;-0,8990478515625;1;58;7,52000138163567E-08;-8,84484127163887E-08;100 nA
-0,950927734375;36,4253669080348;-4,60205078125E-09;-0,94879150390625;1;59;7,52000138163567E-08;-8,84484127163887E-08;100 nA
-1,0009765625;36,9258549067712;-4,7393798828125E-09;-0,9991455078125;1;60;7,52000138163567E-08;-8,84484127163887E-08;100 nA
-0,950927734375;37,4263429055076;-2,9876708984375E-09;-0,94879150390625;1;61;7,52000138163567E-08;-8,84484127163887E-08;100 nA
-0,90087890625;37,926830904244;-2,0416259765625E-09;-0,89874267578125;1;62;7,52000138163567E-08;-8,84484127163887E-08;100 nA
-0,850830078125;38,4273189029803;-1,3702392578125E-09;-0,8489990234375;1;63;7,52000138163567E-08;-8,84484127163887E-08;100 nA
-0,80078125;38,9278069017167;-8,941650390625E-10;-0,79864501953125;1;64;7,52000138163567E-08;-8,84484127163887E-08;100 nA
-0,750732421875;39,4282949004531;-5,218505859375E-10;-0,748687744140625;1;65;7,52000138163567E-08;-8,84484127163887E-08;100 nA
-0,70068359375;39,9287828991895;-1,3427734375E-10;-0,698638916015625;1;66;7,52000138163567E-08;-8,84484127163887E-08;100 nA
-0,650634765625;40,4292708979259;2,5634765625E-10;-0,648681640625;1;67;7,52000138163567E-08;-8,84484127163887E-08;100 nA
-0,6005859375;40,9297588966623;6,072998046875E-10;-0,598724365234375;1;68;7,52000138163567E-08;-8,84484127163887E-08;100 nA
-0,550537109375;41,4302468953987;9,918212890625E-10;-0,548828125;1;69;7,52000138163567E-08;-8,84484127163887E-08;100 nA
-0,50048828125;41,9307348941351;1,3885498046875E-09;-0,498931884765625;1;70;7,52000138163567E-08;-8,84484127163887E-08;100 nA
-0,450439453125;42,4312228928715;1,9439697265625E-09;-0,44903564453125;1;71;7,52000138163567E-08;-8,84484127163887E-08;100 nA
-0,400390625;42,9317108916079;2,752685546875E-09;-0,399139404296875;1;72;7,52000138163567E-08;-8,84484127163887E-08;100 nA
-0,350341796875;43,4321988903442;3,460693359375E-09;-0,349273681640625;1;73;7,52000138163567E-08;-8,84484127163887E-08;100 nA
-0,30029296875;43,9326868890806;3,9031982421875E-09;-0,299285888671875;1;74;7,52000138163567E-08;-8,84484127163887E-08;100 nA
-0,250244140625;44,433174887817;4,2022705078125E-09;-0,2493896484375;1;75;7,52000138163567E-08;-8,84484127163887E-08;100 nA
-0,2001953125;44,9336628865534;4,45556640625E-09;-0,199493408203125;1;76;7,52000138163567E-08;-8,84484127163887E-08;100 nA
-0,150146484375;45,4341508852898;4,4647216796875E-09;-0,149658203125;1;77;7,52000138163567E-08;-8,84484127163887E-08;100 nA
-0,10009765625;45,9346388840262;4,8431396484375E-09;-0,099761962890625;1;78;7,52000138163567E-08;-8,84484127163887E-08;100 nA
-0,050048828125;46,4351268827626;6,0943603515625E-09;-0,0498046875;1;79;7,52000138163567E-08;-8,84484127163887E-08;100 nA
0;46,935614881499;8,5418701171875E-09;0,000100708007812506;1;80;7,52000138163567E-08;-8,84484127163887E-08;100 nA
0,050048828125;47,4361028802354;1,16943359375E-08;0,050048828125;2;81;9,19689983129501E-08;-8,90746340155601E-08;100 nA
0,10009765625;47,9365908789717;1,1309814453125E-08;0,100067138671875;2;82;9,19689983129501E-08;-8,90746340155601E-08;100 nA
0,150146484375;48,4370788777081;6,365966796875E-09;0,15008544921875;2;83;9,19689983129501E-08;-8,90746340155601E-08;100 nA
0,2001953125;48,9375668764445;4,96826171875E-09;0,200042724609375;2;84;9,19689983129501E-08;-8,90746340155601E-08;100 nA
0,250244140625;49,4380548751809;4,9346923828125E-09;0,250091552734375;2;85;9,19689983129501E-08;-8,90746340155601E-08;100 nA
0,30029296875;49,9385428739173;5,0689697265625E-09;0,300079345703125;2;86;9,19689983129501E-08;-8,90746340155601E-08;100 nA
0,350341796875;50,4390308726537;5,23681640625E-09;0,350128173828125;2;87;9,19689983129501E-08;-8,90746340155601E-08;100 nA
0,400390625;50,9395188713901;5,3741455078125E-09;0,400177001953125;2;88;9,19689983129501E-08;-8,90746340155601E-08;100 nA
0,450439453125;51,4400068701265;5,5419921875E-09;0,4501953125;2;89;9,19689983129501E-08;-8,90746340155601E-08;100 nA
0,50048828125;51,9404948688629;5,7464599609375E-09;0,50018310546875;2;90;9,19689983129501E-08;-8,90746340155601E-08;100 nA
0,550537109375;52,4409828675992;5,96923828125E-09;0,55010986328125;2;91;9,19689983129501E-08;-8,90746340155601E-08;100 nA
0,6005859375;52,9414708663356;6,1309814453125E-09;0,600128173828125;2;92;9,19689983129501E-08;-8,90746340155601E-08;100 nA
0,650634765625;53,441958865072;6,25E-09;0,650115966796875;2;93;9,19689983129501E-08;-8,90746340155601E-08;100 nA
0,70068359375;53,9424468638084;6,26220703125E-09;0,699951171875;2;94;9,19689983129501E-08;-8,90746340155601E-08;100 nA
0,750732421875;54,4429348625448;6,2103271484375E-09;0,7498779296875;2;95;9,19689983129501E-08;-8,90746340155601E-08;100 nA
0,80078125;54,9434228612812;6,121826171875E-09;0,79986572265625;2;96;9,19689983129501E-08;-8,90746340155601E-08;100 nA
0,850830078125;55,4439108600176;5,9906005859375E-09;0,8502197265625;2;97;9,19689983129501E-08;-8,90746340155601E-08;100 nA
0,90087890625;55,944398858754;5,8349609375E-09;0,90057373046875;2;98;9,19689983129501E-08;-8,90746340155601E-08;100 nA
0,950927734375;56,4448868574904;5,74951171875E-09;0,95001220703125;2;99;9,19689983129501E-08;-8,90746340155601E-08;100 nA
1,0009765625;56,9453748562267;5,6732177734375E-09;0,99945068359375;2;100;9,19689983129501E-08;-8,90746340155601E-08;100 nA
0,950927734375;57,4458628549631;3,4820556640625E-09;0,9490966796875;2;101;9,19689983129501E-08;-8,90746340155601E-08;100 nA
0,90087890625;57,9463508536995;2,178955078125E-09;0,89996337890625;2;102;9,19689983129501E-08;-8,90746340155601E-08;100 nA
0,850830078125;58,4468388524359;1,2603759765625E-09;0,84930419921875;2;103;9,19689983129501E-08;-8,90746340155601E-08;100 nA
0,80078125;58,9473268511723;5,9814453125E-10;0,79986572265625;2;104;9,19689983129501E-08;-8,90746340155601E-08;100 nA
0,750732421875;59,4478148499087;7,32421875E-11;0,749908447265625;2;105;9,19689983129501E-08;-8,90746340155601E-08;100 nA
0,70068359375;59,9483028486451;-3,814697265625E-10;0,70001220703125;2;106;9,19689983129501E-08;-8,90746340155601E-08;100 nA
0,650634765625;60,4487908473815;-8,1787109375E-10;0,650115966796875;2;107;9,19689983129501E-08;-8,90746340155601E-08;100 nA
0,6005859375;60,9492788461179;-1,287841796875E-09;0,60015869140625;2;108;9,19689983129501E-08;-8,90746340155601E-08;100 nA
0,550537109375;61,4497668448543;-1,7486572265625E-09;0,550140380859375;2;109;9,19689983129501E-08;-8,90746340155601E-08;100 nA
0,50048828125;61,9502548435906;-2,239990234375E-09;0,500152587890625;2;110;9,19689983129501E-08;-8,90746340155601E-08;100 nA
0,450439453125;62,450742842327;-2,7008056640625E-09;0,450103759765625;2;111;9,19689983129501E-08;-8,90746340155601E-08;100 nA
0,400390625;62,9512308410634;-3,155517578125E-09;0,400146484375;2;112;9,19689983129501E-08;-8,90746340155601E-08;100 nA
0,350341796875;63,4517188397998;-3,5736083984375E-09;0,350128173828125;2;113;9,19689983129501E-08;-8,90746340155601E-08;100 nA
0,30029296875;63,9522068385362;-3,912353515625E-09;0,30010986328125;2;114;9,19689983129501E-08;-8,90746340155601E-08;100 nA
0,250244140625;64,4526948372726;-4,2236328125E-09;0,250152587890625;2;115;9,19689983129501E-08;-8,90746340155601E-08;100 nA
0,2001953125;64,953182836009;-4,559326171875E-09;0,2000732421875;2;116;9,19689983129501E-08;-8,90746340155601E-08;100 nA
0,150146484375;65,4536708347454;-4,9407958984375E-09;0,150115966796875;2;117;9,19689983129501E-08;-8,90746340155601E-08;100 nA
0,10009765625;65,9541588334818;-5,584716796875E-09;0,100067138671875;2;118;9,19689983129501E-08;-8,90746340155601E-08;100 nA
0,050048828125;66,4546468322181;-7,135009765625E-09;0,05010986328125;2;119;9,19689983129501E-08;-8,90746340155601E-08;100 nA
0;66,9551348309545;-9,912109375E-09;0,000146484375000006;2;120;9,19689983129501E-08;-8,90746340155601E-08;100 nA
-0,050048828125;67,4556228296909;-1,24969482421875E-08;-0,049774169921875;2;121;9,19689983129501E-08;-8,90746340155601E-08;100 nA
-0,10009765625;67,9561108284273;-1,461181640625E-08;-0,099700927734375;2;122;9,19689983129501E-08;-8,90746340155601E-08;100 nA
-0,150146484375;68,4565988271637;-1,2176513671875E-08;-0,149566650390625;2;123;9,19689983129501E-08;-8,90746340155601E-08;100 nA
-0,2001953125;68,9570868259001;-5,2154541015625E-09;-0,199554443359375;2;124;9,19689983129501E-08;-8,90746340155601E-08;100 nA
-0,250244140625;69,4575748246365;-4,1259765625E-09;-0,249359130859375;2;125;9,19689983129501E-08;-8,90746340155601E-08;100 nA
-0,30029296875;69,9580628233729;-4,4403076171875E-09;-0,299346923828125;2;126;9,19689983129501E-08;-8,90746340155601E-08;100 nA
-0,350341796875;70,4585508221093;-4,766845703125E-09;-0,349273681640625;2;127;9,19689983129501E-08;-8,90746340155601E-08;100 nA
-0,400390625;70,9590388208456;-4,9102783203125E-09;-0,399139404296875;2;128;9,19689983129501E-08;-8,90746340155601E-08;100 nA
-0,450439453125;71,459526819582;-4,82177734375E-09;-0,449005126953125;2;129;9,19689983129501E-08;-8,90746340155601E-08;100 nA
-0,50048828125;71,9600148183184;-4,5867919921875E-09;-0,498870849609375;2;130;9,19689983129501E-08;-8,90746340155601E-08;100 nA
-0,550537109375;72,4605028170548;-4,4281005859375E-09;-0,54876708984375;2;131;9,19689983129501E-08;-8,90746340155601E-08;100 nA
-0,6005859375;72,9609908157912;-4,33349609375E-09;-0,598663330078125;2;132;9,19689983129501E-08;-8,90746340155601E-08;100 nA
-0,650634765625;73,4614788145276;-4,2388916015625E-09;-0,648590087890625;2;133;9,19689983129501E-08;-8,90746340155601E-08;100 nA
-0,70068359375;73,961966813264;-4,2144775390625E-09;-0,698577880859375;2;134;9,19689983129501E-08;-8,90746340155601E-08;100 nA
-0,750732421875;74,4624548120004;-4,1839599609375E-09;-0,748626708984375;2;135;9,19689983129501E-08;-8,90746340155601E-08;100 nA
-0,80078125;74,9629428107368;-4,1595458984375E-09;-0,79925537109375;2;136;9,19689983129501E-08;-8,90746340155601E-08;100 nA
-0,850830078125;75,4634308094732;-4,180908203125E-09;-0,8489990234375;2;137;9,19689983129501E-08;-8,90746340155601E-08;100 nA
-0,90087890625;75,9639188082095;-4,2327880859375E-09;-0,89874267578125;2;138;9,19689983129501E-08;-8,90746340155601E-08;100 nA
-0,950927734375;76,4644068069459;-4,28466796875E-09;-0,9490966796875;2;139;9,19689983129501E-08;-8,90746340155601E-08;100 nA
-1,0009765625;76,9648948056823;-4,4403076171875E-09;-0,9991455078125;2;140;9,19689983129501E-08;-8,90746340155601E-08;100 nA
-0,950927734375;77,4653828044187;-2,7740478515625E-09;-0,94879150390625;2;141;9,19689983129501E-08;-8,90746340155601E-08;100 nA
-0,90087890625;77,9658708031551;-1,849365234375E-09;-0,89874267578125;2;142;9,19689983129501E-08;-8,90746340155601E-08;100 nA
-0,850830078125;78,4663588018915;-1,239013671875E-09;-0,84869384765625;2;143;9,19689983129501E-08;-8,90746340155601E-08;100 nA
-0,80078125;78,9668468006279;-7,537841796875E-10;-0,79864501953125;2;144;9,19689983129501E-08;-8,90746340155601E-08;100 nA
-0,750732421875;79,4673347993643;-3,35693359375E-10;-0,7486572265625;2;145;9,19689983129501E-08;-8,90746340155601E-08;100 nA
-0,70068359375;79,9678227981007;3,35693359375E-11;-0,698638916015625;2;146;9,19689983129501E-08;-8,90746340155601E-08;100 nA
-0,650634765625;80,468310796837;4,2724609375E-10;-0,648590087890625;2;147;9,19689983129501E-08;-8,90746340155601E-08;100 nA
-0,6005859375;80,9687987955734;7,9345703125E-10;-0,598663330078125;2;148;9,19689983129501E-08;-8,90746340155601E-08;100 nA
-0,550537109375;81,4692867943098;1,1566162109375E-09;-0,548858642578125;2;149;9,19689983129501E-08;-8,90746340155601E-08;100 nA
-0,50048828125;81,9697747930462;1,5533447265625E-09;-0,49884033203125;2;150;9,19689983129501E-08;-8,90746340155601E-08;100 nA
-0,450439453125;82,4702627917826;2,117919921875E-09;-0,449005126953125;2;151;9,19689983129501E-08;-8,90746340155601E-08;100 nA
-0,400390625;82,970750790519;2,874755859375E-09;-0,39910888671875;2;152;9,19689983129501E-08;-8,90746340155601E-08;100 nA
-0,350341796875;83,4712387892554;3,5919189453125E-09;-0,34930419921875;2;153;9,19689983129501E-08;-8,90746340155601E-08;100 nA
-0,30029296875;83,9717267879918;4,0740966796875E-09;-0,29931640625;2;154;9,19689983129501E-08;-8,90746340155601E-08;100 nA
-0,250244140625;84,4722147867282;4,3304443359375E-09;-0,2493896484375;2;155;9,19689983129501E-08;-8,90746340155601E-08;100 nA
-0,2001953125;84,9727027854645;4,47998046875E-09;-0,199493408203125;2;156;9,19689983129501E-08;-8,90746340155601E-08;100 nA
-0,150146484375;85,4731907842009;4,5379638671875E-09;-0,149658203125;2;157;9,19689983129501E-08;-8,90746340155601E-08;100 nA
-0,10009765625;85,9736787829373;4,9407958984375E-09;-0,099700927734375;2;158;9,19689983129501E-08;-8,90746340155601E-08;100 nA
-0,050048828125;86,4741667816737;6,219482421875E-09;-0,049774169921875;2;159;9,19689983129501E-08;-8,90746340155601E-08;100 nA
0;86,9746547804101;8,599853515625E-09;9,46044921874972E-05;2;160;9,19689983129501E-08;-8,90746340155601E-08;100 nA
0,050048828125;87,4751427791465;1,19110107421875E-08;0,050048828125;3;161;9,14481654763222E-08;-8,82941484451294E-08;100 nA
0,10009765625;87,9756307778829;1,15997314453125E-08;0,100067138671875;3;162;9,14481654763222E-08;-8,82941484451294E-08;100 nA
0,150146484375;88,4761187766193;6,671142578125E-09;0,150054931640625;3;163;9,14481654763222E-08;-8,82941484451294E-08;100 nA
0,2001953125;88,9766067753557;5,1116943359375E-09;0,2000732421875;3;164;9,14481654763222E-08;-8,82941484451294E-08;100 nA
0,250244140625;89,4770947740921;4,98046875E-09;0,250091552734375;3;165;9,14481654763222E-08;-8,82941484451294E-08;100 nA
0,30029296875;89,9775827728284;5,0628662109375E-09;0,300140380859375;3;166;9,14481654763222E-08;-8,82941484451294E-08;100 nA
0,350341796875;90,4780707715648;5,2276611328125E-09;0,350128173828125;3;167;9,14481654763222E-08;-8,82941484451294E-08;100 nA
0,400390625;90,9785587703012;5,364990234375E-09;0,400177001953125;3;168;9,14481654763222E-08;-8,82941484451294E-08;100 nA
0,450439453125;91,4790467690376;5,5267333984375E-09;0,4501953125;3;169;9,14481654763222E-08;-8,82941484451294E-08;100 nA
0,50048828125;91,979534767774;5,7464599609375E-09;0,5001220703125;3;170;9,14481654763222E-08;-8,82941484451294E-08;100 nA
0,550537109375;92,4800227665104;5,938720703125E-09;0,550140380859375;3;171;9,14481654763222E-08;-8,82941484451294E-08;100 nA
0,6005859375;92,9805107652468;6,1065673828125E-09;0,60015869140625;3;172;9,14481654763222E-08;-8,82941484451294E-08;100 nA
0,650634765625;93,4809987639832;6,207275390625E-09;0,650054931640625;3;173;9,14481654763222E-08;-8,82941484451294E-08;100 nA
0,70068359375;93,9814867627196;6,2255859375E-09;0,70001220703125;3;174;9,14481654763222E-08;-8,82941484451294E-08;100 nA
0,750732421875;94,4819747614559;6,1553955078125E-09;0,749908447265625;3;175;9,14481654763222E-08;-8,82941484451294E-08;100 nA
0,80078125;94,9824627601923;6,0394287109375E-09;0,8001708984375;3;176;9,14481654763222E-08;-8,82941484451294E-08;100 nA
0,850830078125;95,4829507589287;5,938720703125E-09;0,84991455078125;3;177;9,14481654763222E-08;-8,82941484451294E-08;100 nA
0,90087890625;95,9834387576651;5,810546875E-09;0,89935302734375;3;178;9,14481654763222E-08;-8,82941484451294E-08;100 nA
0,950927734375;96,4839267564015;5,6915283203125E-09;0,94940185546875;3;179;9,14481654763222E-08;-8,82941484451294E-08;100 nA
1,0009765625;96,9844147551379;5,596923828125E-09;1,00006103515625;3;180;9,14481654763222E-08;-8,82941484451294E-08;100 nA
0,950927734375;97,4849027538743;3,350830078125E-09;0,95001220703125;3;181;9,14481654763222E-08;-8,82941484451294E-08;100 nA
0,90087890625;97,9853907526107;2,03857421875E-09;0,89996337890625;3;182;9,14481654763222E-08;-8,82941484451294E-08;100 nA
0,850830078125;98,4858787513471;1,190185546875E-09;0,84991455078125;3;183;9,14481654763222E-08;-8,82941484451294E-08;100 nA
0,80078125;98,9863667500834;5,4931640625E-10;0,79986572265625;3;184;9,14481654763222E-08;-8,82941484451294E-08;100 nA
0,750732421875;99,4868547488198;2,44140625E-11;0,749847412109375;3;185;9,14481654763222E-08;-8,82941484451294E-08;100 nA
0,70068359375;99,9873427475562;-4,302978515625E-10;0,70001220703125;3;186;9,14481654763222E-08;-8,82941484451294E-08;100 nA
0,650634765625;100,487830746293;-8,880615234375E-10;0,65008544921875;3;187;9,14481654763222E-08;-8,82941484451294E-08;100 nA
0,6005859375;100,988318745029;-1,3580322265625E-09;0,600128173828125;3;188;9,14481654763222E-08;-8,82941484451294E-08;100 nA
0,550537109375;101,488806743765;-1,824951171875E-09;0,550079345703125;3;189;9,14481654763222E-08;-8,82941484451294E-08;100 nA
0,50048828125;101,989294742502;-2,2369384765625E-09;0,500091552734375;3;190;9,14481654763222E-08;-8,82941484451294E-08;100 nA
0,450439453125;102,489782741238;-2,6702880859375E-09;0,45013427734375;3;191;9,14481654763222E-08;-8,82941484451294E-08;100 nA
0,400390625;102,990270739975;-3,1768798828125E-09;0,400115966796875;3;192;9,14481654763222E-08;-8,82941484451294E-08;100 nA
0,350341796875;103,490758738711;-3,594970703125E-09;0,350128173828125;3;193;9,14481654763222E-08;-8,82941484451294E-08;100 nA
0,30029296875;103,991246737447;-3,900146484375E-09;0,300140380859375;3;194;9,14481654763222E-08;-8,82941484451294E-08;100 nA
0,250244140625;104,491734736184;-4,1961669921875E-09;0,2501220703125;3;195;9,14481654763222E-08;-8,82941484451294E-08;100 nA
0,2001953125;104,99222273492;-4,58984375E-09;0,20013427734375;3;196;9,14481654763222E-08;-8,82941484451294E-08;100 nA
0,150146484375;105,492710733657;-4,949951171875E-09;0,15008544921875;3;197;9,14481654763222E-08;-8,82941484451294E-08;100 nA
0,10009765625;105,993198732393;-5,4901123046875E-09;0,100128173828125;3;198;9,14481654763222E-08;-8,82941484451294E-08;100 nA
0,050048828125;106,493686731129;-7,098388671875E-09;0,05010986328125;3;199;9,14481654763222E-08;-8,82941484451294E-08;100 nA
0;106,994174729866;-9,9395751953125E-09;0,0001373291015625;3;200;9,14481654763222E-08;-8,82941484451294E-08;100 nA
-0,050048828125;107,494662728602;-1,25457763671875E-08;-0,04974365234375;3;201;9,14481654763222E-08;-8,82941484451294E-08;100 nA
-0,10009765625;107,995150727338;-1,4691162109375E-08;-0,099700927734375;3;202;9,14481654763222E-08;-8,82941484451294E-08;100 nA
-0,150146484375;108,495638726075;-1,217041015625E-08;-0,1495361328125;3;203;9,14481654763222E-08;-8,82941484451294E-08;100 nA
-0,2001953125;108,996126724811;-5,1666259765625E-09;-0,19940185546875;3;204;9,14481654763222E-08;-8,82941484451294E-08;100 nA
-0,250244140625;109,496614723548;-4,071044921875E-09;-0,2493896484375;3;205;9,14481654763222E-08;-8,82941484451294E-08;100 nA
-0,30029296875;109,997102722284;-4,339599609375E-09;-0,299285888671875;3;206;9,14481654763222E-08;-8,82941484451294E-08;100 nA
-0,350341796875;110,49759072102;-4,705810546875E-09;-0,349212646484375;3;207;9,14481654763222E-08;-8,82941484451294E-08;100 nA
-0,400390625;110,998078719757;-4,8797607421875E-09;-0,3990478515625;3;208;9,14481654763222E-08;-8,82941484451294E-08;100 nA
-0,450439453125;111,498566718493;-4,730224609375E-09;-0,448974609375;3;209;9,14481654763222E-08;-8,82941484451294E-08;100 nA
-0,50048828125;111,99905471723;-4,473876953125E-09;-0,498809814453125;3;210;9,14481654763222E-08;-8,82941484451294E-08;100 nA
-0,550537109375;112,499542715966;-4,33349609375E-09;-0,548797607421875;3;211;9,14481654763222E-08;-8,82941484451294E-08;100 nA
-0,6005859375;113,000030714702;-4,2572021484375E-09;-0,59869384765625;3;212;9,14481654763222E-08;-8,82941484451294E-08;100 nA
-0,650634765625;113,500518713439;-4,193115234375E-09;-0,648590087890625;3;213;9,14481654763222E-08;-8,82941484451294E-08;100 nA
-0,70068359375;114,001006712175;-4,150390625E-09;-0,6986083984375;3;214;9,14481654763222E-08;-8,82941484451294E-08;100 nA
-0,750732421875;114,501494710912;-4,0740966796875E-09;-0,74859619140625;3;215;9,14481654763222E-08;-8,82941484451294E-08;100 nA
-0,80078125;115,001982709648;-4,0557861328125E-09;-0,79833984375;3;216;9,14481654763222E-08;-8,82941484451294E-08;100 nA
-0,850830078125;115,502470708384;-4,0771484375E-09;-0,84869384765625;3;217;9,14481654763222E-08;-8,82941484451294E-08;100 nA
-0,90087890625;116,002958707121;-4,0985107421875E-09;-0,8990478515625;3;218;9,14481654763222E-08;-8,82941484451294E-08;100 nA
-0,950927734375;116,503446705857;-4,1748046875E-09;-0,9490966796875;3;219;9,14481654763222E-08;-8,82941484451294E-08;100 nA
-1,0009765625;117,003934704593;-4,2999267578125E-09;-0,9991455078125;3;220;9,14481654763222E-08;-8,82941484451294E-08;100 nA
-0,950927734375;117,50442270333;-2,667236328125E-09;-0,94879150390625;3;221;9,14481654763222E-08;-8,82941484451294E-08;100 nA
-0,90087890625;118,004910702066;-1,7303466796875E-09;-0,8990478515625;3;222;9,14481654763222E-08;-8,82941484451294E-08;100 nA
-0,850830078125;118,505398700803;-1,171875E-09;-0,84869384765625;3;223;9,14481654763222E-08;-8,82941484451294E-08;100 nA
-0,80078125;119,005886699539;-7,14111328125E-10;-0,79803466796875;3;224;9,14481654763222E-08;-8,82941484451294E-08;100 nA
-0,750732421875;119,506374698275;-2,99072265625E-10;-0,748626708984375;3;225;9,14481654763222E-08;-8,82941484451294E-08;100 nA
-0,70068359375;120,006862697012;5,18798828125E-11;-0,69866943359375;3;226;9,14481654763222E-08;-8,82941484451294E-08;100 nA
-0,650634765625;120,507350695748;3,90625E-10;-0,648651123046875;3;227;9,14481654763222E-08;-8,82941484451294E-08;100 nA
-0,6005859375;121,007838694485;7,598876953125E-10;-0,59869384765625;3;228;9,14481654763222E-08;-8,82941484451294E-08;100 nA
-0,550537109375;121,508326693221;1,08642578125E-09;-0,548797607421875;3;229;9,14481654763222E-08;-8,82941484451294E-08;100 nA
-0,50048828125;122,008814691957;1,5106201171875E-09;-0,498931884765625;3;230;9,14481654763222E-08;-8,82941484451294E-08;100 nA
-0,450439453125;122,509302690694;2,069091796875E-09;-0,449005126953125;3;231;9,14481654763222E-08;-8,82941484451294E-08;100 nA
-0,400390625;123,00979068943;2,8228759765625E-09;-0,39910888671875;3;232;9,14481654763222E-08;-8,82941484451294E-08;100 nA
-0,350341796875;123,510278688167;3,5430908203125E-09;-0,3492431640625;3;233;9,14481654763222E-08;-8,82941484451294E-08;100 nA
-0,30029296875;124,010766686903;4,0130615234375E-09;-0,29931640625;3;234;9,14481654763222E-08;-8,82941484451294E-08;100 nA
-0,250244140625;124,511254685639;4,241943359375E-09;-0,249420166015625;3;235;9,14481654763222E-08;-8,82941484451294E-08;100 nA
-0,2001953125;125,011742684376;4,345703125E-09;-0,19952392578125;3;236;9,14481654763222E-08;-8,82941484451294E-08;100 nA
-0,150146484375;125,512230683112;4,412841796875E-09;-0,149627685546875;3;237;9,14481654763222E-08;-8,82941484451294E-08;100 nA
-0,10009765625;126,012718681848;4,840087890625E-09;-0,099761962890625;3;238;9,14481654763222E-08;-8,82941484451294E-08;100 nA
-0,050048828125;126,513206680585;6,109619140625E-09;-0,049896240234375;3;239;9,14481654763222E-08;-8,82941484451294E-08;100 nA
0;127,013694679321;8,453369140625E-09;7,93457031249972E-05;3;240;9,14481654763222E-08;-8,82941484451294E-08;100 nA
0,050048828125;127,514182678058;1,18743896484375E-08;0,04998779296875;4;241;9,07745957374572E-08;-8,77702608704567E-08;100 nA
0,10009765625;128,014670676794;1,14990234375E-08;0,100067138671875;4;242;9,07745957374572E-08;-8,77702608704567E-08;100 nA
0,150146484375;128,51515867553;6,5338134765625E-09;0,149993896484375;4;243;9,07745957374572E-08;-8,77702608704567E-08;100 nA
0,2001953125;129,015646674267;4,9713134765625E-09;0,2000732421875;4;244;9,07745957374572E-08;-8,77702608704567E-08;100 nA
0,250244140625;129,516134673003;4,8675537109375E-09;0,25006103515625;4;245;9,07745957374572E-08;-8,77702608704567E-08;100 nA
0,30029296875;130,01662267174;4,94384765625E-09;0,300079345703125;4;246;9,07745957374572E-08;-8,77702608704567E-08;100 nA
0,350341796875;130,517110670476;5,1239013671875E-09;0,350067138671875;4;247;9,07745957374572E-08;-8,77702608704567E-08;100 nA
0,400390625;131,017598669212;5,267333984375E-09;0,400115966796875;4;248;9,07745957374572E-08;-8,77702608704567E-08;100 nA
0,450439453125;131,518086667949;5,462646484375E-09;0,450042724609375;4;249;9,07745957374572E-08;-8,77702608704567E-08;100 nA
0,50048828125;132,018574666685;5,6060791015625E-09;0,50006103515625;4;250;9,07745957374572E-08;-8,77702608704567E-08;100 nA
0,550537109375;132,519062665422;5,828857421875E-09;0,550079345703125;4;251;9,07745957374572E-08;-8,77702608704567E-08;100 nA
0,6005859375;133,019550664158;6,072998046875E-09;0,600189208984375;4;252;9,07745957374572E-08;-8,77702608704567E-08;100 nA
0,650634765625;133,520038662894;6,1859130859375E-09;0,650054931640625;4;253;9,07745957374572E-08;-8,77702608704567E-08;100 nA
0,70068359375;134,020526661631;6,1676025390625E-09;0,699920654296875;4;254;9,07745957374572E-08;-8,77702608704567E-08;100 nA
0,750732421875;134,521014660367;6,14013671875E-09;0,749908447265625;4;255;9,07745957374572E-08;-8,77702608704567E-08;100 nA
0,80078125;135,021502659103;6,0394287109375E-09;0,80047607421875;4;256;9,07745957374572E-08;-8,77702608704567E-08;100 nA
0,850830078125;135,52199065784;5,902099609375E-09;0,849609375;4;257;9,07745957374572E-08;-8,77702608704567E-08;100 nA
0,90087890625;136,022478656576;5,8013916015625E-09;0,89996337890625;4;258;9,07745957374572E-08;-8,77702608704567E-08;100 nA
0,950927734375;136,522966655313;5,6976318359375E-09;0,94970703125;4;259;9,07745957374572E-08;-8,77702608704567E-08;100 nA
1,0009765625;137,023454654049;5,6304931640625E-09;0,9991455078125;4;260;9,07745957374572E-08;-8,77702608704567E-08;100 nA
0,950927734375;137,523942652785;3,4210205078125E-09;0,95001220703125;4;261;9,07745957374572E-08;-8,77702608704567E-08;100 nA
0,90087890625;138,024430651522;2,1148681640625E-09;0,89996337890625;4;262;9,07745957374572E-08;-8,77702608704567E-08;100 nA
0,850830078125;138,524918650258;1,25732421875E-09;0,849609375;4;263;9,07745957374572E-08;-8,77702608704567E-08;100 nA
0,80078125;139,025406648995;6,256103515625E-10;0,79986572265625;4;264;9,07745957374572E-08;-8,77702608704567E-08;100 nA
0,750732421875;139,525894647731;1,220703125E-10;0,7498779296875;4;265;9,07745957374572E-08;-8,77702608704567E-08;100 nA
0,70068359375;140,026382646467;-3,0517578125E-10;0,70001220703125;4;266;9,07745957374572E-08;-8,77702608704567E-08;100 nA
0,650634765625;140,526870645204;-7,293701171875E-10;0,65008544921875;4;267;9,07745957374572E-08;-8,77702608704567E-08;100 nA
0,6005859375;141,02735864394;-1,1749267578125E-09;0,600189208984375;4;268;9,07745957374572E-08;-8,77702608704567E-08;100 nA
0,550537109375;141,527846642677;-1,6448974609375E-09;0,550201416015625;4;269;9,07745957374572E-08;-8,77702608704567E-08;100 nA
0,50048828125;142,028334641413;-2,1331787109375E-09;0,5001220703125;4;270;9,07745957374572E-08;-8,77702608704567E-08;100 nA
0,450439453125;142,528822640149;-2,581787109375E-09;0,4501953125;4;271;9,07745957374572E-08;-8,77702608704567E-08;100 nA
0,400390625;143,029310638886;-3,076171875E-09;0,400177001953125;4;272;9,07745957374572E-08;-8,77702608704567E-08;100 nA
0,350341796875;143,529798637622;-3,5247802734375E-09;0,350189208984375;4;273;9,07745957374572E-08;-8,77702608704567E-08;100 nA
0,30029296875;144,030286636358;-3,7841796875E-09;0,300079345703125;4;274;9,07745957374572E-08;-8,77702608704567E-08;100 nA
0,250244140625;144,530774635095;-4,08935546875E-09;0,250152587890625;4;275;9,07745957374572E-08;-8,77702608704567E-08;100 nA
0,2001953125;145,031262633831;-4,425048828125E-09;0,2000732421875;4;276;9,07745957374572E-08;-8,77702608704567E-08;100 nA
0,150146484375;145,531750632568;-4,8095703125E-09;0,150177001953125;4;277;9,07745957374572E-08;-8,77702608704567E-08;100 nA
0,10009765625;146,032238631304;-5,4046630859375E-09;0,10009765625;4;278;9,07745957374572E-08;-8,77702608704567E-08;100 nA
0,050048828125;146,53272663004;-7,03125E-09;0,050140380859375;4;279;9,07745957374572E-08;-8,77702608704567E-08;100 nA
0;147,033214628777;-9,86328125E-09;0,0001678466796875;4;280;9,07745957374572E-08;-8,77702608704567E-08;100 nA
-0,050048828125;147,533702627513;-1,2493896484375E-08;-0,04970703125;4;281;9,07745957374572E-08;-8,77702608704567E-08;100 nA
-0,10009765625;148,03419062625;-1,466064453125E-08;-0,099609375;4;282;9,07745957374572E-08;-8,77702608704567E-08;100 nA
-0,150146484375;148,534678624986;-1,20269775390625E-08;-0,149566650390625;4;283;9,07745957374572E-08;-8,77702608704567E-08;100 nA
-0,2001953125;149,035166623722;-5,0750732421875E-09;-0,199462890625;4;284;9,07745957374572E-08;-8,77702608704567E-08;100 nA
-0,250244140625;149,535654622459;-4,0435791015625E-09;-0,249359130859375;4;285;9,07745957374572E-08;-8,77702608704567E-08;100 nA
-0,30029296875;150,036142621195;-4,2724609375E-09;-0,299285888671875;4;286;9,07745957374572E-08;-8,77702608704567E-08;100 nA
-0,350341796875;150,536630619932;-4,6356201171875E-09;-0,349151611328125;4;287;9,07745957374572E-08;-8,77702608704567E-08;100 nA
-0,400390625;151,037118618668;-4,8583984375E-09;-0,399139404296875;4;288;9,07745957374572E-08;-8,77702608704567E-08;100 nA
-0,450439453125;151,537606617404;-4,7119140625E-09;-0,448974609375;4;289;9,07745957374572E-08;-8,77702608704567E-08;100 nA
-0,50048828125;152,038094616141;-4,5135498046875E-09;-0,498870849609375;4;290;9,07745957374572E-08;-8,77702608704567E-08;100 nA
-0,550537109375;152,538582614877;-4,345703125E-09;-0,548736572265625;4;291;9,07745957374572E-08;-8,77702608704567E-08;100 nA
-0,6005859375;153,039070613613;-4,2694091796875E-09;-0,598663330078125;4;292;9,07745957374572E-08;-8,77702608704567E-08;100 nA
-0,650634765625;153,53955861235;-4,18701171875E-09;-0,648651123046875;4;293;9,07745957374572E-08;-8,77702608704567E-08;100 nA
-0,70068359375;154,040046611086;-4,1473388671875E-09;-0,6986083984375;4;294;9,07745957374572E-08;-8,77702608704567E-08;100 nA
-0,750732421875;154,540534609823;-4,1351318359375E-09;-0,748565673828125;4;295;9,07745957374572E-08;-8,77702608704567E-08;100 nA
-0,80078125;155,041022608559;-4,132080078125E-09;-0,79864501953125;4;296;9,07745957374572E-08;-8,77702608704567E-08;100 nA
-0,850830078125;155,541510607295;-4,156494140625E-09;-0,8489990234375;4;297;9,07745957374572E-08;-8,77702608704567E-08;100 nA
-0,90087890625;156,041998606032;-4,2083740234375E-09;-0,8990478515625;4;298;9,07745957374572E-08;-8,77702608704567E-08;100 nA
-0,950927734375;156,542486604768;-4,2755126953125E-09;-0,94879150390625;4;299;9,07745957374572E-08;-8,77702608704567E-08;100 nA
-1,0009765625;157,042974603505;-4,3670654296875E-09;-0,9991455078125;4;300;9,07745957374572E-08;-8,77702608704567E-08;100 nA
-0,950927734375;157,543462602241;-2,7740478515625E-09;-0,9490966796875;4;301;9,07745957374572E-08;-8,77702608704567E-08;100 nA
-0,90087890625;158,043950600977;-1,861572265625E-09;-0,89874267578125;4;302;9,07745957374572E-08;-8,77702608704567E-08;100 nA
-0,850830078125;158,544438599714;-1,2786865234375E-09;-0,84869384765625;4;303;9,07745957374572E-08;-8,77702608704567E-08;100 nA
-0,80078125;159,04492659845;-8,514404296875E-10;-0,7989501953125;4;304;9,07745957374572E-08;-8,77702608704567E-08;100 nA
-0,750732421875;159,545414597187;-4,486083984375E-10;-0,748626708984375;4;305;9,07745957374572E-08;-8,77702608704567E-08;100 nA
-0,70068359375;160,045902595923;-6,103515625E-11;-0,698699951171875;4;306;9,07745957374572E-08;-8,77702608704567E-08;100 nA
-0,650634765625;160,546390594659;2,777099609375E-10;-0,648651123046875;4;307;9,07745957374572E-08;-8,77702608704567E-08;100 nA
-0,6005859375;161,046878593396;6,103515625E-10;-0,59869384765625;4;308;9,07745957374572E-08;-8,77702608704567E-08;100 nA
-0,550537109375;161,547366592132;1,025390625E-09;-0,548828125;4;309;9,07745957374572E-08;-8,77702608704567E-08;100 nA
-0,50048828125;162,047854590869;1,470947265625E-09;-0,498870849609375;4;310;9,07745957374572E-08;-8,77702608704567E-08;100 nA
-0,450439453125;162,548342589605;1,9744873046875E-09;-0,449005126953125;4;311;9,07745957374572E-08;-8,77702608704567E-08;100 nA
-0,400390625;163,048830588341;2,777099609375E-09;-0,399169921875;4;312;9,07745957374572E-08;-8,77702608704567E-08;100 nA
-0,350341796875;163,549318587078;3,50341796875E-09;-0,34930419921875;4;313;9,07745957374572E-08;-8,77702608704567E-08;100 nA
-0,30029296875;164,049806585814;3,936767578125E-09;-0,29931640625;4;314;9,07745957374572E-08;-8,77702608704567E-08;100 nA
-0,250244140625;164,55029458455;4,217529296875E-09;-0,2493896484375;4;315;9,07745957374572E-08;-8,77702608704567E-08;100 nA
-0,2001953125;165,050782583287;4,3914794921875E-09;-0,199554443359375;4;316;9,07745957374572E-08;-8,77702608704567E-08;100 nA
-0,150146484375;165,551270582023;4,473876953125E-09;-0,149658203125;4;317;9,07745957374572E-08;-8,77702608704567E-08;100 nA
-0,10009765625;166,05175858076;4,8797607421875E-09;-0,0997314453125;4;318;9,07745957374572E-08;-8,77702608704567E-08;100 nA
-0,050048828125;166,552246579496;6,15234375E-09;-0,049835205078125;4;319;9,07745957374572E-08;-8,77702608704567E-08;100 nA
0;167,052734578232;8,5235595703125E-09;0,000103759765625003;4;320;9,07745957374572E-08;-8,77702608704567E-08;100 nA
0,050048828125;167,553222576969;1,19171142578125E-08;0,050048828125;5;321;9,18468087911606E-08;-8,79077240824699E-08;100 nA
0,10009765625;168,053710575705;1,15478515625E-08;0,100067138671875;5;322;9,18468087911606E-08;-8,79077240824699E-08;100 nA
0,150146484375;168,554198574442;6,7108154296875E-09;0,150054931640625;5;323;9,18468087911606E-08;-8,79077240824699E-08;100 nA
0,2001953125;169,054686573178;5,0933837890625E-09;0,200042724609375;5;324;9,18468087911606E-08;-8,79077240824699E-08;100 nA
0,250244140625;169,555174571914;5,0048828125E-09;0,250091552734375;5;325;9,18468087911606E-08;-8,79077240824699E-08;100 nA
0,30029296875;170,055662570651;5,0872802734375E-09;0,300140380859375;5;326;9,18468087911606E-08;-8,79077240824699E-08;100 nA
0,350341796875;170,556150569387;5,181884765625E-09;0,35015869140625;5;327;9,18468087911606E-08;-8,79077240824699E-08;100 nA
0,400390625;171,056638568124;5,322265625E-09;0,400146484375;5;328;9,18468087911606E-08;-8,79077240824699E-08;100 nA
0,450439453125;171,55712656686;5,523681640625E-09;0,45013427734375;5;329;9,18468087911606E-08;-8,79077240824699E-08;100 nA
0,50048828125;172,057614565596;5,7373046875E-09;0,500152587890625;5;330;9,18468087911606E-08;-8,79077240824699E-08;100 nA
0,550537109375;172,558102564333;6,0211181640625E-09;0,550140380859375;5;331;9,18468087911606E-08;-8,79077240824699E-08;100 nA
0,6005859375;173,058590563069;6,1065673828125E-09;0,600189208984375;5;332;9,18468087911606E-08;-8,79077240824699E-08;100 nA
0,650634765625;173,559078561805;6,23779296875E-09;0,650054931640625;5;333;9,18468087911606E-08;-8,79077240824699E-08;100 nA
0,70068359375;174,059566560542;6,2591552734375E-09;0,699951171875;5;334;9,18468087911606E-08;-8,79077240824699E-08;100 nA
0,750732421875;174,560054559278;6,18896484375E-09;0,749969482421875;5;335;9,18468087911606E-08;-8,79077240824699E-08;100 nA
0,80078125;175,060542558015;6,1065673828125E-09;0,799560546875;5;336;9,18468087911606E-08;-8,79077240824699E-08;100 nA
0,850830078125;175,561030556751;5,9326171875E-09;0,84930419921875;5;337;9,18468087911606E-08;-8,79077240824699E-08;100 nA
0,90087890625;176,061518555487;5,8074951171875E-09;0,899658203125;5;338;9,18468087911606E-08;-8,79077240824699E-08;100 nA
0,950927734375;176,562006554224;5,7037353515625E-09;0,94970703125;5;339;9,18468087911606E-08;-8,79077240824699E-08;100 nA
1,0009765625;177,06249455296;5,6396484375E-09;0,99945068359375;5;340;9,18468087911606E-08;-8,79077240824699E-08;100 nA
0,950927734375;177,562982551697;3,424072265625E-09;0,94970703125;5;341;9,18468087911606E-08;-8,79077240824699E-08;100 nA
0,90087890625;178,063470550433;2,1240234375E-09;0,89996337890625;5;342;9,18468087911606E-08;-8,79077240824699E-08;100 nA
0,850830078125;178,563958549169;1,226806640625E-09;0,84991455078125;5;343;9,18468087911606E-08;-8,79077240824699E-08;100 nA
0,80078125;179,064446547906;5,859375E-10;0,79986572265625;5;344;9,18468087911606E-08;-8,79077240824699E-08;100 nA
0,750732421875;179,564934546642;7,01904296875E-11;0,74993896484375;5;345;9,18468087911606E-08;-8,79077240824699E-08;100 nA
0,70068359375;180,065422545379;-3,936767578125E-10;0,699951171875;5;346;9,18468087911606E-08;-8,79077240824699E-08;100 nA
0,650634765625;180,565910544115;-8,819580078125E-10;0,65008544921875;5;347;9,18468087911606E-08;-8,79077240824699E-08;100 nA
0,6005859375;181,066398542851;-1,3458251953125E-09;0,60009765625;5;348;9,18468087911606E-08;-8,79077240824699E-08;100 nA
0,550537109375;181,566886541588;-1,7791748046875E-09;0,550140380859375;5;349;9,18468087911606E-08;-8,79077240824699E-08;100 nA
0,50048828125;182,067374540324;-2,2186279296875E-09;0,500152587890625;5;350;9,18468087911606E-08;-8,79077240824699E-08;100 nA
0,450439453125;182,56786253906;-2,6519775390625E-09;0,45013427734375;5;351;9,18468087911606E-08;-8,79077240824699E-08;100 nA
0,400390625;183,068350537797;-3,155517578125E-09;0,400115966796875;5;352;9,18468087911606E-08;-8,79077240824699E-08;100 nA
0,350341796875;183,568838536533;-3,6468505859375E-09;0,35015869140625;5;353;9,18468087911606E-08;-8,79077240824699E-08;100 nA
0,30029296875;184,06932653527;-3,900146484375E-09;0,300140380859375;5;354;9,18468087911606E-08;-8,79077240824699E-08;100 nA
0,250244140625;184,569814534006;-4,2266845703125E-09;0,25006103515625;5;355;9,18468087911606E-08;-8,79077240824699E-08;100 nA
0,2001953125;185,070302532742;-4,5501708984375E-09;0,2000732421875;5;356;9,18468087911606E-08;-8,79077240824699E-08;100 nA
0,150146484375;185,570790531479;-4,913330078125E-09;0,150115966796875;5;357;9,18468087911606E-08;-8,79077240824699E-08;100 nA
0,10009765625;186,071278530215;-5,5084228515625E-09;0,10009765625;5;358;9,18468087911606E-08;-8,79077240824699E-08;100 nA
0,050048828125;186,571766528952;-7,16552734375E-09;0,05010986328125;5;359;9,18468087911606E-08;-8,79077240824699E-08;100 nA
0;187,072254527688;-9,94873046875E-09;0,000152587890625;5;360;9,18468087911606E-08;-8,79077240824699E-08;100 nA
-0,050048828125;187,572742526424;-1,258544921875E-08;-0,0497039794921875;5;361;9,18468087911606E-08;-8,79077240824699E-08;100 nA
-0,10009765625;188,073230525161;-1,47613525390625E-08;-0,099639892578125;5;362;9,18468087911606E-08;-8,79077240824699E-08;100 nA
-0,150146484375;188,573718523897;-1,2103271484375E-08;-0,1495361328125;5;363;9,18468087911606E-08;-8,79077240824699E-08;100 nA
-0,2001953125;189,074206522634;-5,108642578125E-09;-0,199493408203125;5;364;9,18468087911606E-08;-8,79077240824699E-08;100 nA
-0,250244140625;189,57469452137;-4,058837890625E-09;-0,24932861328125;5;365;9,18468087911606E-08;-8,79077240824699E-08;100 nA
-0,30029296875;190,075182520106;-4,3212890625E-09;-0,299285888671875;5;366;9,18468087911606E-08;-8,79077240824699E-08;100 nA
-0,350341796875;190,575670518843;-4,6722412109375E-09;-0,34918212890625;5;367;9,18468087911606E-08;-8,79077240824699E-08;100 nA
-0,400390625;191,076158517579;-4,8583984375E-09;-0,39910888671875;5;368;9,18468087911606E-08;-8,79077240824699E-08;100 nA
-0,450439453125;191,576646516315;-4,736328125E-09;-0,448944091796875;5;369;9,18468087911606E-08;-8,79077240824699E-08;100 nA
-0,50048828125;192,077134515052;-4,510498046875E-09;-0,498809814453125;5;370;9,18468087911606E-08;-8,79077240824699E-08;100 nA
-0,550537109375;192,577622513788;-4,351806640625E-09;-0,548736572265625;5;371;9,18468087911606E-08;-8,79077240824699E-08;100 nA
-0,6005859375;193,078110512525;-4,23583984375E-09;-0,598663330078125;5;372;9,18468087911606E-08;-8,79077240824699E-08;100 nA
-0,650634765625;193,578598511261;-4,1290283203125E-09;-0,648681640625;5;373;9,18468087911606E-08;-8,79077240824699E-08;100 nA
-0,70068359375;194,079086509997;-4,04052734375E-09;-0,6986083984375;5;374;9,18468087911606E-08;-8,79077240824699E-08;100 nA
-0,750732421875;194,579574508734;-4,0008544921875E-09;-0,74859619140625;5;375;9,18468087911606E-08;-8,79077240824699E-08;100 nA
-0,80078125;195,08006250747;-3,99169921875E-09;-0,7989501953125;5;376;9,18468087911606E-08;-8,79077240824699E-08;100 nA
-0,850830078125;195,580550506207;-4,0374755859375E-09;-0,848388671875;5;377;9,18468087911606E-08;-8,79077240824699E-08;100 nA
-0,90087890625;196,081038504943;-4,0679931640625E-09;-0,8990478515625;5;378;9,18468087911606E-08;-8,79077240824699E-08;100 nA
-0,950927734375;196,581526503679;-4,1259765625E-09;-0,94879150390625;5;379;9,18468087911606E-08;-8,79077240824699E-08;100 nA
-1,0009765625;197,082014502416;-4,2327880859375E-09;-0,99884033203125;5;380;9,18468087911606E-08;-8,79077240824699E-08;100 nA
-0,950927734375;197,582502501152;-2,6031494140625E-09;-0,9490966796875;5;381;9,18468087911606E-08;-8,79077240824699E-08;100 nA
-0,90087890625;198,082990499889;-1,7486572265625E-09;-0,8990478515625;5;382;9,18468087911606E-08;-8,79077240824699E-08;100 nA
-0,850830078125;198,583478498625;-1,1199951171875E-09;-0,8489990234375;5;383;9,18468087911606E-08;-8,79077240824699E-08;100 nA
-0,80078125;199,083966497361;-6,744384765625E-10;-0,79925537109375;5;384;9,18468087911606E-08;-8,79077240824699E-08;100 nA
-0,750732421875;199,584454496098;-2,8076171875E-10;-0,7486572265625;5;385;9,18468087911606E-08;-8,79077240824699E-08;100 nA
-0,70068359375;200,084942494834;6,103515625E-11;-0,69866943359375;5;386;9,18468087911606E-08;-8,79077240824699E-08;100 nA
-0,650634765625;200,58543049357;4,547119140625E-10;-0,648651123046875;5;387;9,18468087911606E-08;-8,79077240824699E-08;100 nA
-0,6005859375;201,085918492307;7,568359375E-10;-0,598724365234375;5;388;9,18468087911606E-08;-8,79077240824699E-08;100 nA
-0,550537109375;201,586406491043;1,1138916015625E-09;-0,548797607421875;5;389;9,18468087911606E-08;-8,79077240824699E-08;100 nA
-0,50048828125;202,08689448978;1,5350341796875E-09;-0,49896240234375;5;390;9,18468087911606E-08;-8,79077240824699E-08;100 nA
-0,450439453125;202,587382488516;1,9683837890625E-09;-0,449005126953125;5;391;9,18468087911606E-08;-8,79077240824699E-08;100 nA
-0,400390625;203,087870487252;2,86865234375E-09;-0,39910888671875;5;392;9,18468087911606E-08;-8,79077240824699E-08;100 nA
-0,350341796875;203,588358485989;3,533935546875E-09;-0,349212646484375;5;393;9,18468087911606E-08;-8,79077240824699E-08;100 nA
-0,30029296875;204,088846484725;4,0130615234375E-09;-0,299285888671875;5;394;9,18468087911606E-08;-8,79077240824699E-08;100 nA
-0,250244140625;204,589334483462;4,2816162109375E-09;-0,249420166015625;5;395;9,18468087911606E-08;-8,79077240824699E-08;100 nA
-0,2001953125;205,089822482198;4,3853759765625E-09;-0,199493408203125;5;396;9,18468087911606E-08;-8,79077240824699E-08;100 nA
-0,150146484375;205,590310480934;4,4891357421875E-09;-0,149658203125;5;397;9,18468087911606E-08;-8,79077240824699E-08;100 nA
-0,10009765625;206,090798479671;4,8828125E-09;-0,099761962890625;5;398;9,18468087911606E-08;-8,79077240824699E-08;100 nA
-0,050048828125;206,591286478407;6,14013671875E-09;-0,049896240234375;5;399;9,18468087911606E-08;-8,79077240824699E-08;100 nA
0;207,091774477144;8,4686279296875E-09;9,76562499999944E-05;5;400;9,18468087911606E-08;-8,79077240824699E-08;100 nA
0,050048828125;207,59226247588;1,1859130859375E-08;0,050048828125;6;401;8,99269059300422E-08;-8,65086540579796E-08;100 nA
0,10009765625;208,092750474616;1,14959716796875E-08;0,100067138671875;6;402;8,99269059300422E-08;-8,65086540579796E-08;100 nA
0,150146484375;208,593238473353;6,5643310546875E-09;0,1500244140625;6;403;8,99269059300422E-08;-8,65086540579796E-08;100 nA
0,2001953125;209,093726472089;4,9652099609375E-09;0,200103759765625;6;404;8,99269059300422E-08;-8,65086540579796E-08;100 nA
0,250244140625;209,594214470825;4,8492431640625E-09;0,25006103515625;6;405;8,99269059300422E-08;-8,65086540579796E-08;100 nA
0,30029296875;210,094702469562;4,9530029296875E-09;0,300048828125;6;406;8,99269059300422E-08;-8,65086540579796E-08;100 nA
0,350341796875;210,595190468298;5,084228515625E-09;0,350067138671875;6;407;8,99269059300422E-08;-8,65086540579796E-08;100 nA
0,400390625;211,095678467035;5,2276611328125E-09;0,400115966796875;6;408;8,99269059300422E-08;-8,65086540579796E-08;100 nA
0,450439453125;211,596166465771;5,43212890625E-09;0,45013427734375;6;409;8,99269059300422E-08;-8,65086540579796E-08;100 nA
0,50048828125;212,096654464507;5,621337890625E-09;0,50006103515625;6;410;8,99269059300422E-08;-8,65086540579796E-08;100 nA
0,550537109375;212,597142463244;5,810546875E-09;0,550079345703125;6;411;8,99269059300422E-08;-8,65086540579796E-08;100 nA
0,6005859375;213,09763046198;5,9417724609375E-09;0,600067138671875;6;412;8,99269059300422E-08;-8,65086540579796E-08;100 nA
0,650634765625;213,598118460717;6,072998046875E-09;0,649993896484375;6;413;8,99269059300422E-08;-8,65086540579796E-08;100 nA
0,70068359375;214,098606459453;6,1126708984375E-09;0,699951171875;6;414;8,99269059300422E-08;-8,65086540579796E-08;100 nA
0,750732421875;214,599094458189;6,04248046875E-09;0,7498779296875;6;415;8,99269059300422E-08;-8,65086540579796E-08;100 nA
0,80078125;215,099582456926;5,926513671875E-09;0,8001708984375;6;416;8,99269059300422E-08;-8,65086540579796E-08;100 nA
0,850830078125;215,600070455662;5,804443359375E-09;0,84991455078125;6;417;8,99269059300422E-08;-8,65086540579796E-08;100 nA
0,90087890625;216,100558454399;5,70068359375E-09;0,89935302734375;6;418;8,99269059300422E-08;-8,65086540579796E-08;100 nA
0,950927734375;216,601046453135;5,609130859375E-09;0,95001220703125;6;419;8,99269059300422E-08;-8,65086540579796E-08;100 nA
1,0009765625;217,101534451871;5,5419921875E-09;0,999755859375;6;420;8,99269059300422E-08;-8,65086540579796E-08;100 nA
0,950927734375;217,602022450608;3,30810546875E-09;0,95001220703125;6;421;8,99269059300422E-08;-8,65086540579796E-08;100 nA
0,90087890625;218,102510449344;2,0355224609375E-09;0,9002685546875;6;422;8,99269059300422E-08;-8,65086540579796E-08;100 nA
0,850830078125;218,60299844808;1,129150390625E-09;0,8502197265625;6;423;8,99269059300422E-08;-8,65086540579796E-08;100 nA
0,80078125;219,103486446817;2,197265625E-10;0,80047607421875;6;424;8,99269059300422E-08;-8,65086540579796E-08;100 nA
0,750732421875;219,603974445553;7,01904296875E-11;0,749908447265625;6;425;8,99269059300422E-08;-8,65086540579796E-08;100 nA
0,70068359375;220,10446244429;-3,692626953125E-10;0,70001220703125;6;426;8,99269059300422E-08;-8,65086540579796E-08;100 nA
0,650634765625;220,604950443026;-8,1787109375E-10;0,650115966796875;6;427;8,99269059300422E-08;-8,65086540579796E-08;100 nA
0,6005859375;221,105438441762;-1,2908935546875E-09;0,60015869140625;6;428;8,99269059300422E-08;-8,65086540579796E-08;100 nA
0,550537109375;221,605926440499;-1,69677734375E-09;0,550140380859375;6;429;8,99269059300422E-08;-8,65086540579796E-08;100 nA
0,50048828125;222,106414439235;-2,166748046875E-09;0,500152587890625;6;430;8,99269059300422E-08;-8,65086540579796E-08;100 nA
0,450439453125;222,606902437972;-2,581787109375E-09;0,450103759765625;6;431;8,99269059300422E-08;-8,65086540579796E-08;100 nA
0,400390625;223,107390436708;-3,082275390625E-09;0,400146484375;6;432;8,99269059300422E-08;-8,65086540579796E-08;100 nA
0,350341796875;223,607878435444;-3,5400390625E-09;0,35009765625;6;433;8,99269059300422E-08;-8,65086540579796E-08;100 nA
0,30029296875;224,108366434181;-3,84521484375E-09;0,30010986328125;6;434;8,99269059300422E-08;-8,65086540579796E-08;100 nA
0,250244140625;224,608854432917;-4,1473388671875E-09;0,250152587890625;6;435;8,99269059300422E-08;-8,65086540579796E-08;100 nA
0,2001953125;225,109342431654;-4,4921875E-09;0,200042724609375;6;436;8,99269059300422E-08;-8,65086540579796E-08;100 nA
0,150146484375;225,60983043039;-4,8583984375E-09;0,150115966796875;6;437;8,99269059300422E-08;-8,65086540579796E-08;100 nA
0,10009765625;226,110318429126;-5,43212890625E-09;0,10009765625;6;438;8,99269059300422E-08;-8,65086540579796E-08;100 nA
0,050048828125;226,610806427863;-7,03125E-09;0,0501708984375;6;439;8,99269059300422E-08;-8,65086540579796E-08;100 nA
0;227,111294426599;-9,814453125E-09;0,000146484375000006;6;440;8,99269059300422E-08;-8,65086540579796E-08;100 nA
-0,050048828125;227,611782425335;-1,2518310546875E-08;-0,0497161865234375;6;441;8,99269059300422E-08;-8,65086540579796E-08;100 nA
-0,10009765625;228,112270424072;-1,429443359375E-08;-0,099639892578125;6;442;8,99269059300422E-08;-8,65086540579796E-08;100 nA
-0,150146484375;228,612758422808;-1,197509765625E-08;-0,149566650390625;6;443;8,99269059300422E-08;-8,65086540579796E-08;100 nA
-0,2001953125;229,113246421545;-4,2022705078125E-09;-0,19940185546875;6;444;8,99269059300422E-08;-8,65086540579796E-08;100 nA
-0,250244140625;229,613734420281;-3,8330078125E-09;-0,249359130859375;6;445;8,99269059300422E-08;-8,65086540579796E-08;100 nA
-0,30029296875;230,114222419017;-4,254150390625E-09;-0,29925537109375;6;446;8,99269059300422E-08;-8,65086540579796E-08;100 nA
-0,350341796875;230,614710417754;-4,6051025390625E-09;-0,34918212890625;6;447;8,99269059300422E-08;-8,65086540579796E-08;100 nA
-0,400390625;231,11519841649;-4,8095703125E-09;-0,399078369140625;6;448;8,99269059300422E-08;-8,65086540579796E-08;100 nA
-0,450439453125;231,615686415227;-4,6661376953125E-09;-0,448944091796875;6;449;8,99269059300422E-08;-8,65086540579796E-08;100 nA
-0,50048828125;232,116174413963;-4,5074462890625E-09;-0,498870849609375;6;450;8,99269059300422E-08;-8,65086540579796E-08;100 nA
-0,550537109375;232,616662412699;-4,2327880859375E-09;-0,548828125;6;451;8,99269059300422E-08;-8,65086540579796E-08;100 nA
-0,6005859375;233,117150411436;-4,095458984375E-09;-0,5986328125;6;452;8,99269059300422E-08;-8,65086540579796E-08;100 nA
-0,650634765625;233,617638410172;-4,13818359375E-09;-0,64862060546875;6;453;8,99269059300422E-08;-8,65086540579796E-08;100 nA
-0,70068359375;234,118126408909;-4,1015625E-09;-0,698638916015625;6;454;8,99269059300422E-08;-8,65086540579796E-08;100 nA
-0,750732421875;234,618614407645;-4,04052734375E-09;-0,748687744140625;6;455;8,99269059300422E-08;-8,65086540579796E-08;100 nA
-0,80078125;235,119102406381;-4,0802001953125E-09;-0,79864501953125;6;456;8,99269059300422E-08;-8,65086540579796E-08;100 nA
-0,850830078125;235,619590405118;-3,997802734375E-09;-0,84869384765625;6;457;8,99269059300422E-08;-8,65086540579796E-08;100 nA
-0,90087890625;236,120078403854;-4,0374755859375E-09;-0,8990478515625;6;458;8,99269059300422E-08;-8,65086540579796E-08;100 nA
-0,950927734375;236,620566402591;-4,1107177734375E-09;-0,94879150390625;6;459;8,99269059300422E-08;-8,65086540579796E-08;100 nA
-1,0009765625;237,121054401327;-4,2449951171875E-09;-0,99853515625;6;460;8,99269059300422E-08;-8,65086540579796E-08;100 nA
-0,950927734375;237,621542400063;-2,63671875E-09;-0,94879150390625;6;461;8,99269059300422E-08;-8,65086540579796E-08;100 nA
-0,90087890625;238,1220303988;-1,79443359375E-09;-0,89874267578125;6;462;8,99269059300422E-08;-8,65086540579796E-08;100 nA
-0,850830078125;238,622518397536;-1,2237548828125E-09;-0,84930419921875;6;463;8,99269059300422E-08;-8,65086540579796E-08;100 nA
-0,80078125;239,123006396272;-8,056640625E-10;-0,79864501953125;6;464;8,99269059300422E-08;-8,65086540579796E-08;100 nA
-0,750732421875;239,623494395009;-4,241943359375E-10;-0,748687744140625;6;465;8,99269059300422E-08;-8,65086540579796E-08;100 nA
-0,70068359375;240,123982393745;-5,18798828125E-11;-0,6986083984375;6;466;8,99269059300422E-08;-8,65086540579796E-08;100 nA
-0,650634765625;240,624470392482;2,99072265625E-10;-0,648651123046875;6;467;8,99269059300422E-08;-8,65086540579796E-08;100 nA
-0,6005859375;241,124958391218;6,7138671875E-10;-0,5987548828125;6;468;8,99269059300422E-08;-8,65086540579796E-08;100 nA
-0,550537109375;241,625446389954;1,0284423828125E-09;-0,548828125;6;469;8,99269059300422E-08;-8,65086540579796E-08;100 nA
-0,50048828125;242,125934388691;1,3916015625E-09;-0,4989013671875;6;470;8,99269059300422E-08;-8,65086540579796E-08;100 nA
-0,450439453125;242,626422387427;1,98974609375E-09;-0,449005126953125;6;471;8,99269059300422E-08;-8,65086540579796E-08;100 nA
-0,400390625;243,126910386164;2,734375E-09;-0,399169921875;6;472;8,99269059300422E-08;-8,65086540579796E-08;100 nA
-0,350341796875;243,6273983849;3,472900390625E-09;-0,34918212890625;6;473;8,99269059300422E-08;-8,65086540579796E-08;100 nA
-0,30029296875;244,127886383636;3,9337158203125E-09;-0,29931640625;6;474;8,99269059300422E-08;-8,65086540579796E-08;100 nA
-0,250244140625;244,628374382373;4,2205810546875E-09;-0,24945068359375;6;475;8,99269059300422E-08;-8,65086540579796E-08;100 nA
-0,2001953125;245,128862381109;4,3609619140625E-09;-0,19952392578125;6;476;8,99269059300422E-08;-8,65086540579796E-08;100 nA
-0,150146484375;245,629350379846;4,7332763671875E-09;-0,149627685546875;6;477;8,99269059300422E-08;-8,65086540579796E-08;100 nA
-0,10009765625;246,129838378582;4,8675537109375E-09;-0,099700927734375;6;478;8,99269059300422E-08;-8,65086540579796E-08;100 nA
-0,050048828125;246,630326377318;6,103515625E-09;-0,04986572265625;6;479;8,99269059300422E-08;-8,65086540579796E-08;100 nA
0;247,130814376055;8,4930419921875E-09;0,000100708007812506;6;480;8,99269059300422E-08;-8,65086540579796E-08;100 nA
0,050048828125;247,631302374791;1,18927001953125E-08;0,050018310546875;7;481;9,21797752380371E-08;-8,75533744692803E-08;100 nA
0,10009765625;248,131790373527;1,168212890625E-08;0,10003662109375;7;482;9,21797752380371E-08;-8,75533744692803E-08;100 nA
0,150146484375;248,632278372264;6,658935546875E-09;0,1500244140625;7;483;9,21797752380371E-08;-8,75533744692803E-08;100 nA
0,2001953125;249,132766371;5,023193359375E-09;0,20001220703125;7;484;9,21797752380371E-08;-8,75533744692803E-08;100 nA
0,250244140625;249,633254369737;4,9224853515625E-09;0,250091552734375;7;485;9,21797752380371E-08;-8,75533744692803E-08;100 nA
0,30029296875;250,133742368473;5,3741455078125E-09;0,300048828125;7;486;9,21797752380371E-08;-8,75533744692803E-08;100 nA
0,350341796875;250,634230367209;5,584716796875E-09;0,350128173828125;7;487;9,21797752380371E-08;-8,75533744692803E-08;100 nA
0,400390625;251,134718365946;5,340576171875E-09;0,400146484375;7;488;9,21797752380371E-08;-8,75533744692803E-08;100 nA
0,450439453125;251,635206364682;5,5389404296875E-09;0,45013427734375;7;489;9,21797752380371E-08;-8,75533744692803E-08;100 nA
0,50048828125;252,135694363419;5,804443359375E-09;0,50018310546875;7;490;9,21797752380371E-08;-8,75533744692803E-08;100 nA
0,550537109375;252,636182362155;5,9478759765625E-09;0,55010986328125;7;491;9,21797752380371E-08;-8,75533744692803E-08;100 nA
0,6005859375;253,136670360891;6,103515625E-09;0,60003662109375;7;492;9,21797752380371E-08;-8,75533744692803E-08;100 nA
0,650634765625;253,637158359628;6,207275390625E-09;0,650054931640625;7;493;9,21797752380371E-08;-8,75533744692803E-08;100 nA
0,70068359375;254,137646358364;6,219482421875E-09;0,699981689453125;7;494;9,21797752380371E-08;-8,75533744692803E-08;100 nA
0,750732421875;254,638134357101;6,1492919921875E-09;0,749908447265625;7;495;9,21797752380371E-08;-8,75533744692803E-08;100 nA
0,80078125;255,138622355837;6,0791015625E-09;0,8001708984375;7;496;9,21797752380371E-08;-8,75533744692803E-08;100 nA
0,850830078125;255,639110354573;5,908203125E-09;0,849609375;7;497;9,21797752380371E-08;-8,75533744692803E-08;100 nA
0,90087890625;256,13959835331;5,8074951171875E-09;0,899658203125;7;498;9,21797752380371E-08;-8,75533744692803E-08;100 nA
0,950927734375;256,640086352046;5,72509765625E-09;0,94970703125;7;499;9,21797752380371E-08;-8,75533744692803E-08;100 nA
1,0009765625;257,140574350782;5,6304931640625E-09;0,99945068359375;7;500;9,21797752380371E-08;-8,75533744692803E-08;100 nA
0,950927734375;257,641062349519;3,4576416015625E-09;0,95001220703125;7;501;9,21797752380371E-08;-8,75533744692803E-08;100 nA
0,90087890625;258,141550348255;2,13623046875E-09;0,9002685546875;7;502;9,21797752380371E-08;-8,75533744692803E-08;100 nA
0,850830078125;258,642038346992;1,300048828125E-09;0,849609375;7;503;9,21797752380371E-08;-8,75533744692803E-08;100 nA
0,80078125;259,142526345728;6,927490234375E-10;0,79986572265625;7;504;9,21797752380371E-08;-8,75533744692803E-08;100 nA
0,750732421875;259,643014344464;1,007080078125E-10;0,7498779296875;7;505;9,21797752380371E-08;-8,75533744692803E-08;100 nA
0,70068359375;260,143502343201;-2,716064453125E-10;0,699981689453125;7;506;9,21797752380371E-08;-8,75533744692803E-08;100 nA
0,650634765625;260,643990341937;-8,087158203125E-10;0,650146484375;7;507;9,21797752380371E-08;-8,75533744692803E-08;100 nA
0,6005859375;261,144478340674;-1,1962890625E-09;0,600189208984375;7;508;9,21797752380371E-08;-8,75533744692803E-08;100 nA
0,550537109375;261,64496633941;-1,6632080078125E-09;0,5501708984375;7;509;9,21797752380371E-08;-8,75533744692803E-08;100 nA
0,50048828125;262,145454338146;-2,1270751953125E-09;0,5001220703125;7;510;9,21797752380371E-08;-8,75533744692803E-08;100 nA
0,450439453125;262,645942336883;-2,5604248046875E-09;0,450164794921875;7;511;9,21797752380371E-08;-8,75533744692803E-08;100 nA
0,400390625;263,146430335619;-3,0548095703125E-09;0,40020751953125;7;512;9,21797752380371E-08;-8,75533744692803E-08;100 nA
0,350341796875;263,646918334356;-3,5125732421875E-09;0,350189208984375;7;513;9,21797752380371E-08;-8,75533744692803E-08;100 nA
0,30029296875;264,147406333092;-3,8116455078125E-09;0,300140380859375;7;514;9,21797752380371E-08;-8,75533744692803E-08;100 nA
0,250244140625;264,647894331828;-4,1534423828125E-09;0,250152587890625;7;515;9,21797752380371E-08;-8,75533744692803E-08;100 nA
0,2001953125;265,148382330565;-4,4891357421875E-09;0,20013427734375;7;516;9,21797752380371E-08;-8,75533744692803E-08;100 nA
0,150146484375;265,648870329301;-4,852294921875E-09;0,150146484375;7;517;9,21797752380371E-08;-8,75533744692803E-08;100 nA
0,10009765625;266,149358328037;-5,52978515625E-09;0,10009765625;7;518;9,21797752380371E-08;-8,75533744692803E-08;100 nA
0,050048828125;266,649846326774;-7,0709228515625E-09;0,050140380859375;7;519;9,21797752380371E-08;-8,75533744692803E-08;100 nA
0;267,15033432551;-9,9365234375E-09;0,000158691406249994;7;520;9,21797752380371E-08;-8,75533744692803E-08;100 nA
-0,050048828125;267,650822324247;-1,26251220703125E-08;-0,049774169921875;7;521;9,21797752380371E-08;-8,75533744692803E-08;100 nA
-0,10009765625;268,151310322983;-1,47857666015625E-08;-0,099639892578125;7;522;9,21797752380371E-08;-8,75533744692803E-08;100 nA
-0,150146484375;268,651798321719;-1,20941162109375E-08;-0,14959716796875;7;523;9,21797752380371E-08;-8,75533744692803E-08;100 nA
-0,2001953125;269,152286320456;-5,096435546875E-09;-0,199462890625;7;524;9,21797752380371E-08;-8,75533744692803E-08;100 nA
-0,250244140625;269,652774319192;-4,1412353515625E-09;-0,249420166015625;7;525;9,21797752380371E-08;-8,75533744692803E-08;100 nA
-0,30029296875;270,153262317929;-4,364013671875E-09;-0,299224853515625;7;526;9,21797752380371E-08;-8,75533744692803E-08;100 nA
-0,350341796875;270,653750316665;-4,7515869140625E-09;-0,3492431640625;7;527;9,21797752380371E-08;-8,75533744692803E-08;100 nA
-0,400390625;271,154238315401;-4,931640625E-09;-0,399078369140625;7;528;9,21797752380371E-08;-8,75533744692803E-08;100 nA
-0,450439453125;271,654726314138;-4,766845703125E-09;-0,449005126953125;7;529;9,21797752380371E-08;-8,75533744692803E-08;100 nA
-0,50048828125;272,155214312874;-4,5318603515625E-09;-0,498870849609375;7;530;9,21797752380371E-08;-8,75533744692803E-08;100 nA
-0,550537109375;272,655702311611;-4,35791015625E-09;-0,548736572265625;7;531;9,21797752380371E-08;-8,75533744692803E-08;100 nA
-0,6005859375;273,156190310347;-4,2449951171875E-09;-0,598663330078125;7;532;9,21797752380371E-08;-8,75533744692803E-08;100 nA
-0,650634765625;273,656678309083;-4,205322265625E-09;-0,648651123046875;7;533;9,21797752380371E-08;-8,75533744692803E-08;100 nA
-0,70068359375;274,15716630782;-4,0740966796875E-09;-0,69866943359375;7;534;9,21797752380371E-08;-8,75533744692803E-08;100 nA
-0,750732421875;274,657654306556;-4,046630859375E-09;-0,7486572265625;7;535;9,21797752380371E-08;-8,75533744692803E-08;100 nA
-0,80078125;275,158142305292;-4,01611328125E-09;-0,7989501953125;7;536;9,21797752380371E-08;-8,75533744692803E-08;100 nA
-0,850830078125;275,658630304029;-4,0191650390625E-09;-0,84869384765625;7;537;9,21797752380371E-08;-8,75533744692803E-08;100 nA
-0,90087890625;276,159118302765;-4,0374755859375E-09;-0,89874267578125;7;538;9,21797752380371E-08;-8,75533744692803E-08;100 nA
-0,950927734375;276,659606301502;-4,119873046875E-09;-0,94879150390625;7;539;9,21797752380371E-08;-8,75533744692803E-08;100 nA
-1,0009765625;277,160094300238;-4,2144775390625E-09;-0,99853515625;7;540;9,21797752380371E-08;-8,75533744692803E-08;100 nA
-0,950927734375;277,660582298974;-2,6458740234375E-09;-0,94879150390625;7;541;9,21797752380371E-08;-8,75533744692803E-08;100 nA
-0,90087890625;278,161070297711;-1,7333984375E-09;-0,89874267578125;7;542;9,21797752380371E-08;-8,75533744692803E-08;100 nA
-0,850830078125;278,661558296447;-1,116943359375E-09;-0,848388671875;7;543;9,21797752380371E-08;-8,75533744692803E-08;100 nA
-0,80078125;279,162046295184;-6,591796875E-10;-0,79864501953125;7;544;9,21797752380371E-08;-8,75533744692803E-08;100 nA
-0,750732421875;279,66253429392;-3,173828125E-10;-0,74859619140625;7;545;9,21797752380371E-08;-8,75533744692803E-08;100 nA
-0,70068359375;280,163022292656;4,57763671875E-11;-0,69866943359375;7;546;9,21797752380371E-08;-8,75533744692803E-08;100 nA
-0,650634765625;280,663510291393;4,180908203125E-10;-0,64862060546875;7;547;9,21797752380371E-08;-8,75533744692803E-08;100 nA
-0,6005859375;281,163998290129;7,354736328125E-10;-0,5986328125;7;548;9,21797752380371E-08;-8,75533744692803E-08;100 nA
-0,550537109375;281,664486288866;1,1260986328125E-09;-0,548828125;7;549;9,21797752380371E-08;-8,75533744692803E-08;100 nA
-0,50048828125;282,164974287602;1,5380859375E-09;-0,4989013671875;7;550;9,21797752380371E-08;-8,75533744692803E-08;100 nA
-0,450439453125;282,665462286338;2,08740234375E-09;-0,449005126953125;7;551;9,21797752380371E-08;-8,75533744692803E-08;100 nA
-0,400390625;283,165950285075;2,86865234375E-09;-0,399169921875;7;552;9,21797752380371E-08;-8,75533744692803E-08;100 nA
-0,350341796875;283,666438283811;3,5400390625E-09;-0,34918212890625;7;553;9,21797752380371E-08;-8,75533744692803E-08;100 nA
-0,30029296875;284,166926282547;4,0069580078125E-09;-0,299285888671875;7;554;9,21797752380371E-08;-8,75533744692803E-08;100 nA
-0,250244140625;284,667414281284;4,2694091796875E-09;-0,249359130859375;7;555;9,21797752380371E-08;-8,75533744692803E-08;100 nA
-0,2001953125;285,16790228002;4,4036865234375E-09;-0,199493408203125;7;556;9,21797752380371E-08;-8,75533744692803E-08;100 nA
-0,150146484375;285,668390278757;4,461669921875E-09;-0,149658203125;7;557;9,21797752380371E-08;-8,75533744692803E-08;100 nA
-0,10009765625;286,168878277493;4,864501953125E-09;-0,099639892578125;7;558;9,21797752380371E-08;-8,75533744692803E-08;100 nA
-0,050048828125;286,669366276229;6,103515625E-09;-0,049835205078125;7;559;9,21797752380371E-08;-8,75533744692803E-08;100 nA
0;287,169854274966;8,4228515625E-09;9,1552734375E-05;7;560;9,21797752380371E-08;-8,75533744692803E-08;100 nA
0,050048828125;287,670342273702;1,180419921875E-08;0,050018310546875;8;561;9,09823179244995E-08;-8,71700048446655E-08;100 nA
0,10009765625;288,170830272439;1,1505126953125E-08;0,100006103515625;8;562;9,09823179244995E-08;-8,71700048446655E-08;100 nA
0,150146484375;288,671318271175;6,5582275390625E-09;0,1500244140625;8;563;9,09823179244995E-08;-8,71700048446655E-08;100 nA
0,2001953125;289,171806269911;4,9591064453125E-09;0,20001220703125;8;564;9,09823179244995E-08;-8,71700048446655E-08;100 nA
0,250244140625;289,672294268648;4,82177734375E-09;0,25006103515625;8;565;9,09823179244995E-08;-8,71700048446655E-08;100 nA
0,30029296875;290,172782267384;4,9224853515625E-09;0,300079345703125;8;566;9,09823179244995E-08;-8,71700048446655E-08;100 nA
0,350341796875;290,673270266121;5,0933837890625E-09;0,350128173828125;8;567;9,09823179244995E-08;-8,71700048446655E-08;100 nA
0,400390625;291,173758264857;5,2581787109375E-09;0,400115966796875;8;568;9,09823179244995E-08;-8,71700048446655E-08;100 nA
0,450439453125;291,674246263593;5,3924560546875E-09;0,45013427734375;8;569;9,09823179244995E-08;-8,71700048446655E-08;100 nA
0,50048828125;292,17473426233;5,6793212890625E-09;0,500091552734375;8;570;9,09823179244995E-08;-8,71700048446655E-08;100 nA
0,550537109375;292,675222261066;5,877685546875E-09;0,550079345703125;8;571;9,09823179244995E-08;-8,71700048446655E-08;100 nA
0,6005859375;293,175710259802;6,0577392578125E-09;0,60009765625;8;572;9,09823179244995E-08;-8,71700048446655E-08;100 nA
0,650634765625;293,676198258539;6,1614990234375E-09;0,650054931640625;8;573;9,09823179244995E-08;-8,71700048446655E-08;100 nA
0,70068359375;294,176686257275;6,1614990234375E-09;0,70001220703125;8;574;9,09823179244995E-08;-8,71700048446655E-08;100 nA
0,750732421875;294,677174256012;6,0943603515625E-09;0,7498779296875;8;575;9,09823179244995E-08;-8,71700048446655E-08;100 nA
0,80078125;295,177662254748;6,024169921875E-09;0,79986572265625;8;576;9,09823179244995E-08;-8,71700048446655E-08;100 nA
0,850830078125;295,678150253484;5,9112548828125E-09;0,849609375;8;577;9,09823179244995E-08;-8,71700048446655E-08;100 nA
0,90087890625;296,178638252221;5,8013916015625E-09;0,9002685546875;8;578;9,09823179244995E-08;-8,71700048446655E-08;100 nA
0,950927734375;296,679126250957;5,67626953125E-09;0,94940185546875;8;579;9,09823179244995E-08;-8,71700048446655E-08;100 nA
1,0009765625;297,179614249694;5,6121826171875E-09;0,999755859375;8;580;9,09823179244995E-08;-8,71700048446655E-08;100 nA
0,950927734375;297,68010224843;3,4271240234375E-09;0,94970703125;8;581;9,09823179244995E-08;-8,71700048446655E-08;100 nA
0,90087890625;298,180590247166;2,130126953125E-09;0,89935302734375;8;582;9,09823179244995E-08;-8,71700048446655E-08;100 nA
0,850830078125;298,681078245903;1,2664794921875E-09;0,84991455078125;8;583;9,09823179244995E-08;-8,71700048446655E-08;100 nA
0,80078125;299,181566244639;6,439208984375E-10;0,79986572265625;8;584;9,09823179244995E-08;-8,71700048446655E-08;100 nA
0,750732421875;299,682054243376;1,617431640625E-10;0,74993896484375;8;585;9,09823179244995E-08;-8,71700048446655E-08;100 nA
0,70068359375;300,182542242112;-3,41796875E-10;0,700042724609375;8;586;9,09823179244995E-08;-8,71700048446655E-08;100 nA
0,650634765625;300,683030240848;-7,6904296875E-10;0,650115966796875;8;587;9,09823179244995E-08;-8,71700048446655E-08;100 nA
0,6005859375;301,183518239585;-1,2420654296875E-09;0,6002197265625;8;588;9,09823179244995E-08;-8,71700048446655E-08;100 nA
0,550537109375;301,684006238321;-1,6815185546875E-09;0,550201416015625;8;589;9,09823179244995E-08;-8,71700048446655E-08;100 nA
0,50048828125;302,184494237057;-2,142333984375E-09;0,50018310546875;8;590;9,09823179244995E-08;-8,71700048446655E-08;100 nA
0,450439453125;302,684982235794;-2,5970458984375E-09;0,450164794921875;8;591;9,09823179244995E-08;-8,71700048446655E-08;100 nA
0,400390625;303,18547023453;-3,076171875E-09;0,40020751953125;8;592;9,09823179244995E-08;-8,71700048446655E-08;100 nA
0,350341796875;303,685958233267;-3,570556640625E-09;0,35015869140625;8;593;9,09823179244995E-08;-8,71700048446655E-08;100 nA
0,30029296875;304,186446232003;-3,8909912109375E-09;0,30010986328125;8;594;9,09823179244995E-08;-8,71700048446655E-08;100 nA
0,250244140625;304,686934230739;-4,2327880859375E-09;0,250091552734375;8;595;9,09823179244995E-08;-8,71700048446655E-08;100 nA
0,2001953125;305,187422229476;-4,547119140625E-09;0,2000732421875;8;596;9,09823179244995E-08;-8,71700048446655E-08;100 nA
0,150146484375;305,687910228212;-4,901123046875E-09;0,150054931640625;8;597;9,09823179244995E-08;-8,71700048446655E-08;100 nA
0,10009765625;306,188398226949;-5,4962158203125E-09;0,100067138671875;8;598;9,09823179244995E-08;-8,71700048446655E-08;100 nA
0,050048828125;306,688886225685;-7,098388671875E-09;0,05010986328125;8;599;9,09823179244995E-08;-8,71700048446655E-08;100 nA
0;307,189374224421;-9,9853515625E-09;0,000158691406249994;8;600;9,09823179244995E-08;-8,71700048446655E-08;100 nA
-0,050048828125;307,689862223158;-1,26434326171875E-08;-0,049774169921875;8;601;9,09823179244995E-08;-8,71700048446655E-08;100 nA
-0,10009765625;308,190350221894;-1,480712890625E-08;-0,09967041015625;8;602;9,09823179244995E-08;-8,71700048446655E-08;100 nA
-0,150146484375;308,690838220631;-1,19964599609375E-08;-0,1495361328125;8;603;9,09823179244995E-08;-8,71700048446655E-08;100 nA
-0,2001953125;309,191326219367;-5,0506591796875E-09;-0,199493408203125;8;604;9,09823179244995E-08;-8,71700048446655E-08;100 nA
-0,250244140625;309,691814218103;-4,1229248046875E-09;-0,2493896484375;8;605;9,09823179244995E-08;-8,71700048446655E-08;100 nA
-0,30029296875;310,19230221684;-4,3670654296875E-09;-0,29925537109375;8;606;9,09823179244995E-08;-8,71700048446655E-08;100 nA
-0,350341796875;310,692790215576;-4,6600341796875E-09;-0,3492431640625;8;607;9,09823179244995E-08;-8,71700048446655E-08;100 nA
-0,400390625;311,193278214313;-4,840087890625E-09;-0,399078369140625;8;608;9,09823179244995E-08;-8,71700048446655E-08;100 nA
-0,450439453125;311,693766213049;-4,693603515625E-09;-0,448974609375;8;609;9,09823179244995E-08;-8,71700048446655E-08;100 nA
-0,50048828125;312,194254211785;-4,443359375E-09;-0,498870849609375;8;610;9,09823179244995E-08;-8,71700048446655E-08;100 nA
-0,550537109375;312,694742210522;-4,2694091796875E-09;-0,548736572265625;8;611;9,09823179244995E-08;-8,71700048446655E-08;100 nA
-0,6005859375;313,195230209258;-4,1717529296875E-09;-0,598663330078125;8;612;9,09823179244995E-08;-8,71700048446655E-08;100 nA
-0,650634765625;313,695718207994;-4,1107177734375E-09;-0,648590087890625;8;613;9,09823179244995E-08;-8,71700048446655E-08;100 nA
-0,70068359375;314,196206206731;-4,052734375E-09;-0,698638916015625;8;614;9,09823179244995E-08;-8,71700048446655E-08;100 nA
-0,750732421875;314,696694205467;-4,022216796875E-09;-0,7486572265625;8;615;9,09823179244995E-08;-8,71700048446655E-08;100 nA
-0,80078125;315,197182204204;-3,955078125E-09;-0,7989501953125;8;616;9,09823179244995E-08;-8,71700048446655E-08;100 nA
-0,850830078125;315,69767020294;-3,924560546875E-09;-0,84869384765625;8;617;9,09823179244995E-08;-8,71700048446655E-08;100 nA
-0,90087890625;316,198158201676;-3,9398193359375E-09;-0,89874267578125;8;618;9,09823179244995E-08;-8,71700048446655E-08;100 nA
-0,950927734375;316,698646200413;-4,0313720703125E-09;-0,94940185546875;8;619;9,09823179244995E-08;-8,71700048446655E-08;100 nA
-1,0009765625;317,199134199149;-4,16259765625E-09;-0,99945068359375;8;620;9,09823179244995E-08;-8,71700048446655E-08;100 nA
-0,950927734375;317,699622197886;-2,6031494140625E-09;-0,94879150390625;8;621;9,09823179244995E-08;-8,71700048446655E-08;100 nA
-0,90087890625;318,200110196622;-1,7059326171875E-09;-0,89874267578125;8;622;9,09823179244995E-08;-8,71700048446655E-08;100 nA
-0,850830078125;318,700598195358;-1,0894775390625E-09;-0,84869384765625;8;623;9,09823179244995E-08;-8,71700048446655E-08;100 nA
-0,80078125;319,201086194095;-6,561279296875E-10;-0,79864501953125;8;624;9,09823179244995E-08;-8,71700048446655E-08;100 nA
-0,750732421875;319,701574192831;-2,777099609375E-10;-0,7486572265625;8;625;9,09823179244995E-08;-8,71700048446655E-08;100 nA
-0,70068359375;320,202062191568;7,9345703125E-11;-0,6986083984375;8;626;9,09823179244995E-08;-8,71700048446655E-08;100 nA
-0,650634765625;320,702550190304;4,08935546875E-10;-0,648651123046875;8;627;9,09823179244995E-08;-8,71700048446655E-08;100 nA
-0,6005859375;321,20303818904;7,415771484375E-10;-0,59869384765625;8;628;9,09823179244995E-08;-8,71700048446655E-08;100 nA
-0,550537109375;321,703526187777;1,1749267578125E-09;-0,548828125;8;629;9,09823179244995E-08;-8,71700048446655E-08;100 nA
-0,50048828125;322,204014186513;1,5228271484375E-09;-0,498931884765625;8;630;9,09823179244995E-08;-8,71700048446655E-08;100 nA
-0,450439453125;322,704502185249;2,0721435546875E-09;-0,449005126953125;8;631;9,09823179244995E-08;-8,71700048446655E-08;100 nA
-0,400390625;323,204990183986;2,838134765625E-09;-0,39910888671875;8;632;9,09823179244995E-08;-8,71700048446655E-08;100 nA
-0,350341796875;323,705478182722;3,5186767578125E-09;-0,349212646484375;8;633;9,09823179244995E-08;-8,71700048446655E-08;100 nA
-0,30029296875;324,205966181459;3,985595703125E-09;-0,299285888671875;8;634;9,09823179244995E-08;-8,71700048446655E-08;100 nA
-0,250244140625;324,706454180195;4,248046875E-09;-0,249359130859375;8;635;9,09823179244995E-08;-8,71700048446655E-08;100 nA
-0,2001953125;325,206942178931;4,3853759765625E-09;-0,199493408203125;8;636;9,09823179244995E-08;-8,71700048446655E-08;100 nA
-0,150146484375;325,707430177668;4,449462890625E-09;-0,149658203125;8;637;9,09823179244995E-08;-8,71700048446655E-08;100 nA
-0,10009765625;326,207918176404;4,852294921875E-09;-0,09967041015625;8;638;9,09823179244995E-08;-8,71700048446655E-08;100 nA
-0,050048828125;326,708406175141;6,0882568359375E-09;-0,049835205078125;8;639;9,09823179244995E-08;-8,71700048446655E-08;100 nA
0;327,208894173877;8,4197998046875E-09;9,76562499999944E-05;8;640;9,09823179244995E-08;-8,71700048446655E-08;100 nA
0,050048828125;327,709382172613;1,1798095703125E-08;0,050018310546875;9;641;9,07577946782112E-08;-8,69179889559746E-08;100 nA
0,10009765625;328,20987017135;1,14715576171875E-08;0,100006103515625;9;642;9,07577946782112E-08;-8,69179889559746E-08;100 nA
0,150146484375;328,710358170086;6,54296875E-09;0,1500244140625;9;643;9,07577946782112E-08;-8,69179889559746E-08;100 nA
0,2001953125;329,210846168823;4,931640625E-09;0,200042724609375;9;644;9,07577946782112E-08;-8,69179889559746E-08;100 nA
0,250244140625;329,711334167559;4,82177734375E-09;0,25006103515625;9;645;9,07577946782112E-08;-8,69179889559746E-08;100 nA
0,30029296875;330,211822166295;4,8736572265625E-09;0,300048828125;9;646;9,07577946782112E-08;-8,69179889559746E-08;100 nA
0,350341796875;330,712310165032;5,0750732421875E-09;0,350067138671875;9;647;9,07577946782112E-08;-8,69179889559746E-08;100 nA
0,400390625;331,212798163768;5,21240234375E-09;0,40008544921875;9;648;9,07577946782112E-08;-8,69179889559746E-08;100 nA
0,450439453125;331,713286162504;5,4168701171875E-09;0,450103759765625;9;649;9,07577946782112E-08;-8,69179889559746E-08;100 nA
0,50048828125;332,213774161241;5,6121826171875E-09;0,50006103515625;9;650;9,07577946782112E-08;-8,69179889559746E-08;100 nA
0,550537109375;332,714262159977;5,8135986328125E-09;0,55010986328125;9;651;9,07577946782112E-08;-8,69179889559746E-08;100 nA
0,6005859375;333,214750158714;5,96923828125E-09;0,60009765625;9;652;9,07577946782112E-08;-8,69179889559746E-08;100 nA
0,650634765625;333,71523815745;6,146240234375E-09;0,650054931640625;9;653;9,07577946782112E-08;-8,69179889559746E-08;100 nA
0,70068359375;334,215726156186;6,1431884765625E-09;0,699981689453125;9;654;9,07577946782112E-08;-8,69179889559746E-08;100 nA
0,750732421875;334,716214154923;6,0699462890625E-09;0,74993896484375;9;655;9,07577946782112E-08;-8,69179889559746E-08;100 nA
0,80078125;335,216702153659;5,963134765625E-09;0,8001708984375;9;656;9,07577946782112E-08;-8,69179889559746E-08;100 nA
0,850830078125;335,717190152396;5,841064453125E-09;0,84930419921875;9;657;9,07577946782112E-08;-8,69179889559746E-08;100 nA
0,90087890625;336,217678151132;5,7342529296875E-09;0,89996337890625;9;658;9,07577946782112E-08;-8,69179889559746E-08;100 nA
0,950927734375;336,718166149868;5,6304931640625E-09;0,94970703125;9;659;9,07577946782112E-08;-8,69179889559746E-08;100 nA
1,0009765625;337,218654148605;5,56640625E-09;0,999755859375;9;660;9,07577946782112E-08;-8,69179889559746E-08;100 nA
0,950927734375;337,719142147341;3,3538818359375E-09;0,94940185546875;9;661;9,07577946782112E-08;-8,69179889559746E-08;100 nA
0,90087890625;338,219630146078;2,1148681640625E-09;0,89935302734375;9;662;9,07577946782112E-08;-8,69179889559746E-08;100 nA
0,850830078125;338,720118144814;1,2847900390625E-09;0,84991455078125;9;663;9,07577946782112E-08;-8,69179889559746E-08;100 nA
0,80078125;339,22060614355;6,7138671875E-10;0,8001708984375;9;664;9,07577946782112E-08;-8,69179889559746E-08;100 nA
0,750732421875;339,721094142287;1,40380859375E-10;0,749908447265625;9;665;9,07577946782112E-08;-8,69179889559746E-08;100 nA
0,70068359375;340,221582141023;-3,692626953125E-10;0,699981689453125;9;666;9,07577946782112E-08;-8,69179889559746E-08;100 nA
0,650634765625;340,722070139759;-7,9345703125E-10;0,650146484375;9;667;9,07577946782112E-08;-8,69179889559746E-08;100 nA
0,6005859375;341,222558138496;-1,1993408203125E-09;0,60015869140625;9;668;9,07577946782112E-08;-8,69179889559746E-08;100 nA
0,550537109375;341,723046137232;-1,6448974609375E-09;0,550201416015625;9;669;9,07577946782112E-08;-8,69179889559746E-08;100 nA
0,50048828125;342,223534135969;-2,0965576171875E-09;0,500213623046875;9;670;9,07577946782112E-08;-8,69179889559746E-08;100 nA
0,450439453125;342,724022134705;-2,5482177734375E-09;0,4501953125;9;671;9,07577946782112E-08;-8,69179889559746E-08;100 nA
0,400390625;343,224510133441;-3,02734375E-09;0,400177001953125;9;672;9,07577946782112E-08;-8,69179889559746E-08;100 nA
0,350341796875;343,724998132178;-3,4698486328125E-09;0,3502197265625;9;673;9,07577946782112E-08;-8,69179889559746E-08;100 nA
0,30029296875;344,225486130914;-3,7811279296875E-09;0,30010986328125;9;674;9,07577946782112E-08;-8,69179889559746E-08;100 nA
0,250244140625;344,725974129651;-4,132080078125E-09;0,250213623046875;9;675;9,07577946782112E-08;-8,69179889559746E-08;100 nA
0,2001953125;345,226462128387;-4,4342041015625E-09;0,200164794921875;9;676;9,07577946782112E-08;-8,69179889559746E-08;100 nA
0,150146484375;345,726950127123;-4,8126220703125E-09;0,15008544921875;9;677;9,07577946782112E-08;-8,69179889559746E-08;100 nA
0,10009765625;346,22743812586;-5,3985595703125E-09;0,100128173828125;9;678;9,07577946782112E-08;-8,69179889559746E-08;100 nA
0,050048828125;346,727926124596;-6,982421875E-09;0,050079345703125;9;679;9,07577946782112E-08;-8,69179889559746E-08;100 nA
0;347,228414123333;-9,87548828125E-09;0,000152587890625;9;680;9,07577946782112E-08;-8,69179889559746E-08;100 nA
-0,050048828125;347,728902122069;-1,258544921875E-08;-0,0497039794921875;9;681;9,07577946782112E-08;-8,69179889559746E-08;100 nA
-0,10009765625;348,229390120805;-1,47613525390625E-08;-0,099639892578125;9;682;9,07577946782112E-08;-8,69179889559746E-08;100 nA
-0,150146484375;348,729878119542;-1,19873046875E-08;-0,149566650390625;9;683;9,07577946782112E-08;-8,69179889559746E-08;100 nA
-0,2001953125;349,230366118278;-5,0201416015625E-09;-0,19952392578125;9;684;9,07577946782112E-08;-8,69179889559746E-08;100 nA
-0,250244140625;349,730854117014;-4,0924072265625E-09;-0,2493896484375;9;685;9,07577946782112E-08;-8,69179889559746E-08;100 nA
-0,30029296875;350,231342115751;-4,3426513671875E-09;-0,299285888671875;9;686;9,07577946782112E-08;-8,69179889559746E-08;100 nA
-0,350341796875;350,731830114487;-4,7027587890625E-09;-0,349212646484375;9;687;9,07577946782112E-08;-8,69179889559746E-08;100 nA
-0,400390625;351,232318113224;-4,864501953125E-09;-0,399139404296875;9;688;9,07577946782112E-08;-8,69179889559746E-08;100 nA
-0,450439453125;351,73280611196;-4,7637939453125E-09;-0,449005126953125;9;689;9,07577946782112E-08;-8,69179889559746E-08;100 nA
-0,50048828125;352,233294110696;-4,473876953125E-09;-0,4989013671875;9;690;9,07577946782112E-08;-8,69179889559746E-08;100 nA
-0,550537109375;352,733782109433;-4,3365478515625E-09;-0,548828125;9;691;9,07577946782112E-08;-8,69179889559746E-08;100 nA
-0,6005859375;353,234270108169;-4,217529296875E-09;-0,59869384765625;9;692;9,07577946782112E-08;-8,69179889559746E-08;100 nA
-0,650634765625;353,734758106906;-4,13818359375E-09;-0,648590087890625;9;693;9,07577946782112E-08;-8,69179889559746E-08;100 nA
-0,70068359375;354,235246105642;-4,1412353515625E-09;-0,698638916015625;9;694;9,07577946782112E-08;-8,69179889559746E-08;100 nA
-0,750732421875;354,735734104378;-4,01611328125E-09;-0,7486572265625;9;695;9,07577946782112E-08;-8,69179889559746E-08;100 nA
-0,80078125;355,236222103115;-3,9886474609375E-09;-0,79925537109375;9;696;9,07577946782112E-08;-8,69179889559746E-08;100 nA
-0,850830078125;355,736710101851;-3,9703369140625E-09;-0,848388671875;9;697;9,07577946782112E-08;-8,69179889559746E-08;100 nA
-0,90087890625;356,237198100588;-3,9947509765625E-09;-0,89874267578125;9;698;9,07577946782112E-08;-8,69179889559746E-08;100 nA
-0,950927734375;356,737686099324;-4,06494140625E-09;-0,94879150390625;9;699;9,07577946782112E-08;-8,69179889559746E-08;100 nA
-1,0009765625;357,23817409806;-4,1656494140625E-09;-0,99884033203125;9;700;9,07577946782112E-08;-8,69179889559746E-08;100 nA
-0,950927734375;357,738662096797;-2,593994140625E-09;-0,94879150390625;9;701;9,07577946782112E-08;-8,69179889559746E-08;100 nA
-0,90087890625;358,239150095533;-1,727294921875E-09;-0,8984375;9;702;9,07577946782112E-08;-8,69179889559746E-08;100 nA
-0,850830078125;358,739638094269;-1,153564453125E-09;-0,84869384765625;9;703;9,07577946782112E-08;-8,69179889559746E-08;100 nA
-0,80078125;359,240126093006;-6,988525390625E-10;-0,79864501953125;9;704;9,07577946782112E-08;-8,69179889559746E-08;100 nA
-0,750732421875;359,740614091742;-2,99072265625E-10;-0,74859619140625;9;705;9,07577946782112E-08;-8,69179889559746E-08;100 nA
-0,70068359375;360,241102090479;9,46044921875E-11;-0,6986083984375;9;706;9,07577946782112E-08;-8,69179889559746E-08;100 nA
-0,650634765625;360,741590089215;4,33349609375E-10;-0,648651123046875;9;707;9,07577946782112E-08;-8,69179889559746E-08;100 nA
-0,6005859375;361,242078087951;7,50732421875E-10;-0,598724365234375;9;708;9,07577946782112E-08;-8,69179889559746E-08;100 nA
-0,550537109375;361,742566086688;1,1016845703125E-09;-0,548797607421875;9;709;9,07577946782112E-08;-8,69179889559746E-08;100 nA
-0,50048828125;362,243054085424;1,5106201171875E-09;-0,4989013671875;9;710;9,07577946782112E-08;-8,69179889559746E-08;100 nA
-0,450439453125;362,743542084161;2,0599365234375E-09;-0,448974609375;9;711;9,07577946782112E-08;-8,69179889559746E-08;100 nA
-0,400390625;363,244030082897;2,8350830078125E-09;-0,39910888671875;9;712;9,07577946782112E-08;-8,69179889559746E-08;100 nA
-0,350341796875;363,744518081633;3,564453125E-09;-0,3492431640625;9;713;9,07577946782112E-08;-8,69179889559746E-08;100 nA
-0,30029296875;364,24500608037;4,0130615234375E-09;-0,299285888671875;9;714;9,07577946782112E-08;-8,69179889559746E-08;100 nA
-0,250244140625;364,745494079106;4,28466796875E-09;-0,249420166015625;9;715;9,07577946782112E-08;-8,69179889559746E-08;100 nA
-0,2001953125;365,245982077843;4,4342041015625E-09;-0,199493408203125;9;716;9,07577946782112E-08;-8,69179889559746E-08;100 nA
-0,150146484375;365,746470076579;4,4921875E-09;-0,14959716796875;9;717;9,07577946782112E-08;-8,69179889559746E-08;100 nA
-0,10009765625;366,246958075315;4,8858642578125E-09;-0,099700927734375;9;718;9,07577946782112E-08;-8,69179889559746E-08;100 nA
-0,050048828125;366,747446074052;6,1370849609375E-09;-0,049835205078125;9;719;9,07577946782112E-08;-8,69179889559746E-08;100 nA
0;367,247934072788;8,5418701171875E-09;0,000103759765625003;9;720;9,07577946782112E-08;-8,69179889559746E-08;100 nA
0,050048828125;367,748422071524;1,19049072265625E-08;0,050048828125;10;721;9,04630124568939E-08;-8,6439922451973E-08;100 nA
0,10009765625;368,248910070261;1,15478515625E-08;0,10003662109375;10;722;9,04630124568939E-08;-8,6439922451973E-08;100 nA
0,150146484375;368,749398068997;6,6009521484375E-09;0,1500244140625;10;723;9,04630124568939E-08;-8,6439922451973E-08;100 nA
0,2001953125;369,249886067734;5,0140380859375E-09;0,200103759765625;10;724;9,04630124568939E-08;-8,6439922451973E-08;100 nA
0,250244140625;369,75037406647;4,888916015625E-09;0,250152587890625;10;725;9,04630124568939E-08;-8,6439922451973E-08;100 nA
0,30029296875;370,250862065206;4,9896240234375E-09;0,300079345703125;10;726;9,04630124568939E-08;-8,6439922451973E-08;100 nA
0,350341796875;370,751350063943;5,145263671875E-09;0,35015869140625;10;727;9,04630124568939E-08;-8,6439922451973E-08;100 nA
0,400390625;371,251838062679;5,291748046875E-09;0,400146484375;10;728;9,04630124568939E-08;-8,6439922451973E-08;100 nA
0,450439453125;371,752326061416;5,45654296875E-09;0,45013427734375;10;729;9,04630124568939E-08;-8,6439922451973E-08;100 nA
0,50048828125;372,252814060152;5,6610107421875E-09;0,5001220703125;10;730;9,04630124568939E-08;-8,6439922451973E-08;100 nA
0,550537109375;372,753302058888;5,889892578125E-09;0,55010986328125;10;731;9,04630124568939E-08;-8,6439922451973E-08;100 nA
0,6005859375;373,253790057625;6,0455322265625E-09;0,600128173828125;10;732;9,04630124568939E-08;-8,6439922451973E-08;100 nA
0,650634765625;373,754278056361;6,1187744140625E-09;0,6500244140625;10;733;9,04630124568939E-08;-8,6439922451973E-08;100 nA
0,70068359375;374,254766055098;6,1004638671875E-09;0,699981689453125;10;734;9,04630124568939E-08;-8,6439922451973E-08;100 nA
0,750732421875;374,755254053834;5,987548828125E-09;0,7498779296875;10;735;9,04630124568939E-08;-8,6439922451973E-08;100 nA
0,80078125;375,25574205257;5,877685546875E-09;0,8001708984375;10;736;9,04630124568939E-08;-8,6439922451973E-08;100 nA
0,850830078125;375,756230051307;5,7708740234375E-09;0,8502197265625;10;737;9,04630124568939E-08;-8,6439922451973E-08;100 nA
0,90087890625;376,256718050043;5,6488037109375E-09;0,899658203125;10;738;9,04630124568939E-08;-8,6439922451973E-08;100 nA
0,950927734375;376,757206048779;5,5328369140625E-09;0,94970703125;10;739;9,04630124568939E-08;-8,6439922451973E-08;100 nA
1,0009765625;377,257694047516;5,5084228515625E-09;0,99945068359375;10;740;9,04630124568939E-08;-8,6439922451973E-08;100 nA
0,950927734375;377,758182046252;3,28369140625E-09;0,94940185546875;10;741;9,04630124568939E-08;-8,6439922451973E-08;100 nA
0,90087890625;378,258670044989;1,96533203125E-09;0,89935302734375;10;742;9,04630124568939E-08;-8,6439922451973E-08;100 nA
0,850830078125;378,759158043725;1,123046875E-09;0,84991455078125;10;743;9,04630124568939E-08;-8,6439922451973E-08;100 nA
0,80078125;379,259646042461;5,035400390625E-10;0,8001708984375;10;744;9,04630124568939E-08;-8,6439922451973E-08;100 nA
0,750732421875;379,760134041198;-3,0517578125E-12;0,749908447265625;10;745;9,04630124568939E-08;-8,6439922451973E-08;100 nA
0,70068359375;380,260622039934;-4,547119140625E-10;0,699981689453125;10;746;9,04630124568939E-08;-8,6439922451973E-08;100 nA
0,650634765625;380,761110038671;-8,544921875E-10;0,65008544921875;10;747;9,04630124568939E-08;-8,6439922451973E-08;100 nA
0,6005859375;381,261598037407;-1,318359375E-09;0,60009765625;10;748;9,04630124568939E-08;-8,6439922451973E-08;100 nA
0,550537109375;381,762086036143;-1,7486572265625E-09;0,55023193359375;10;749;9,04630124568939E-08;-8,6439922451973E-08;100 nA
0,50048828125;382,26257403488;-2,2491455078125E-09;0,5001220703125;10;750;9,04630124568939E-08;-8,6439922451973E-08;100 nA
0,450439453125;382,763062033616;-2,6947021484375E-09;0,450164794921875;10;751;9,04630124568939E-08;-8,6439922451973E-08;100 nA
0,400390625;383,263550032353;-3,0975341796875E-09;0,400177001953125;10;752;9,04630124568939E-08;-8,6439922451973E-08;100 nA
0,350341796875;383,764038031089;-3,5308837890625E-09;0,35015869140625;10;753;9,04630124568939E-08;-8,6439922451973E-08;100 nA
0,30029296875;384,264526029825;-3,8360595703125E-09;0,300140380859375;10;754;9,04630124568939E-08;-8,6439922451973E-08;100 nA
0,250244140625;384,765014028562;-4,168701171875E-09;0,250091552734375;10;755;9,04630124568939E-08;-8,6439922451973E-08;100 nA
0,2001953125;385,265502027298;-4,498291015625E-09;0,200103759765625;10;756;9,04630124568939E-08;-8,6439922451973E-08;100 nA
0,150146484375;385,765990026035;-4,8431396484375E-09;0,150115966796875;10;757;9,04630124568939E-08;-8,6439922451973E-08;100 nA
0,10009765625;386,266478024771;-5,426025390625E-09;0,100128173828125;10;758;9,04630124568939E-08;-8,6439922451973E-08;100 nA
0,050048828125;386,766966023507;-7,0068359375E-09;0,05010986328125;10;759;9,04630124568939E-08;-8,6439922451973E-08;100 nA
0;387,267454022244;-9,8297119140625E-09;0,000140380859374997;10;760;9,04630124568939E-08;-8,6439922451973E-08;100 nA
-0,050048828125;387,76794202098;-1,25762939453125E-08;-0,049774169921875;10;761;9,04630124568939E-08;-8,6439922451973E-08;100 nA
-0,10009765625;388,268430019716;-1,4739990234375E-08;-0,099700927734375;10;762;9,04630124568939E-08;-8,6439922451973E-08;100 nA
-0,150146484375;388,768918018453;-1,1865234375E-08;-0,1495361328125;10;763;9,04630124568939E-08;-8,6439922451973E-08;100 nA
-0,2001953125;389,269406017189;-4,925537109375E-09;-0,199432373046875;10;764;9,04630124568939E-08;-8,6439922451973E-08;100 nA
-0,250244140625;389,769894015926;-4,0374755859375E-09;-0,2493896484375;10;765;9,04630124568939E-08;-8,6439922451973E-08;100 nA
-0,30029296875;390,270382014662;-4,302978515625E-09;-0,29931640625;10;766;9,04630124568939E-08;-8,6439922451973E-08;100 nA
-0,350341796875;390,770870013398;-4,6417236328125E-09;-0,34918212890625;10;767;9,04630124568939E-08;-8,6439922451973E-08;100 nA
-0,400390625;391,271358012135;-4,7821044921875E-09;-0,399078369140625;10;768;9,04630124568939E-08;-8,6439922451973E-08;100 nA
-0,450439453125;391,771846010871;-4,6112060546875E-09;-0,448944091796875;10;769;9,04630124568939E-08;-8,6439922451973E-08;100 nA
-0,50048828125;392,272334009608;-4,3670654296875E-09;-0,4989013671875;10;770;9,04630124568939E-08;-8,6439922451973E-08;100 nA
-0,550537109375;392,772822008344;-4,180908203125E-09;-0,548797607421875;10;771;9,04630124568939E-08;-8,6439922451973E-08;100 nA
-0,6005859375;393,27331000708;-4,058837890625E-09;-0,5986328125;10;772;9,04630124568939E-08;-8,6439922451973E-08;100 nA
-0,650634765625;393,773798005817;-3,9825439453125E-09;-0,64862060546875;10;773;9,04630124568939E-08;-8,6439922451973E-08;100 nA
-0,70068359375;394,274286004553;-3,9520263671875E-09;-0,6986083984375;10;774;9,04630124568939E-08;-8,6439922451973E-08;100 nA
-0,750732421875;394,77477400329;-3,9520263671875E-09;-0,7486572265625;10;775;9,04630124568939E-08;-8,6439922451973E-08;100 nA
-0,80078125;395,275262002026;-3,9337158203125E-09;-0,7977294921875;10;776;9,04630124568939E-08;-8,6439922451973E-08;100 nA
-0,850830078125;395,775750000762;-3,94287109375E-09;-0,848388671875;10;777;9,04630124568939E-08;-8,6439922451973E-08;100 nA
-0,90087890625;396,276237999499;-3,9581298828125E-09;-0,89874267578125;10;778;9,04630124568939E-08;-8,6439922451973E-08;100 nA
-0,950927734375;396,776725998235;-4,0191650390625E-09;-0,9490966796875;10;779;9,04630124568939E-08;-8,6439922451973E-08;100 nA
-1,0009765625;397,277213996971;-4,08935546875E-09;-0,99884033203125;10;780;9,04630124568939E-08;-8,6439922451973E-08;100 nA
-0,950927734375;397,777701995708;-2,532958984375E-09;-0,948486328125;10;781;9,04630124568939E-08;-8,6439922451973E-08;100 nA
-0,90087890625;398,278189994444;-1,6845703125E-09;-0,89874267578125;10;782;9,04630124568939E-08;-8,6439922451973E-08;100 nA
-0,850830078125;398,778677993181;-1,116943359375E-09;-0,8489990234375;10;783;9,04630124568939E-08;-8,6439922451973E-08;100 nA
-0,80078125;399,279165991917;-6,439208984375E-10;-0,79864501953125;10;784;9,04630124568939E-08;-8,6439922451973E-08;100 nA
-0,750732421875;399,779653990653;-2,532958984375E-10;-0,7486572265625;10;785;9,04630124568939E-08;-8,6439922451973E-08;100 nA
-0,70068359375;400,28014198939;7,32421875E-11;-0,6986083984375;10;786;9,04630124568939E-08;-8,6439922451973E-08;100 nA
-0,650634765625;400,780629988126;3,936767578125E-10;-0,648651123046875;10;787;9,04630124568939E-08;-8,6439922451973E-08;100 nA
-0,6005859375;401,281117986863;7,568359375E-10;-0,59869384765625;10;788;9,04630124568939E-08;-8,6439922451973E-08;100 nA
-0,550537109375;401,781605985599;1,104736328125E-09;-0,548797607421875;10;789;9,04630124568939E-08;-8,6439922451973E-08;100 nA
-0,50048828125;402,282093984335;1,5716552734375E-09;-0,4989013671875;10;790;9,04630124568939E-08;-8,6439922451973E-08;100 nA
-0,450439453125;402,782581983072;2,1148681640625E-09;-0,449005126953125;10;791;9,04630124568939E-08;-8,6439922451973E-08;100 nA
-0,400390625;403,283069981808;2,8228759765625E-09;-0,39910888671875;10;792;9,04630124568939E-08;-8,6439922451973E-08;100 nA
-0,350341796875;403,783557980545;3,5247802734375E-09;-0,349273681640625;10;793;9,04630124568939E-08;-8,6439922451973E-08;100 nA
-0,30029296875;404,284045979281;3,9947509765625E-09;-0,299346923828125;10;794;9,04630124568939E-08;-8,6439922451973E-08;100 nA
-0,250244140625;404,784533978017;4,278564453125E-09;-0,2493896484375;10;795;9,04630124568939E-08;-8,6439922451973E-08;100 nA
-0,2001953125;405,285021976754;4,412841796875E-09;-0,199554443359375;10;796;9,04630124568939E-08;-8,6439922451973E-08;100 nA
-0,150146484375;405,78550997549;4,4769287109375E-09;-0,149627685546875;10;797;9,04630124568939E-08;-8,6439922451973E-08;100 nA
-0,10009765625;406,285997974226;4,815673828125E-09;-0,099700927734375;10;798;9,04630124568939E-08;-8,6439922451973E-08;100 nA
-0,050048828125;406,786485972963;6,0882568359375E-09;-0,049835205078125;10;799;9,04630124568939E-08;-8,6439922451973E-08;100 nA
0;407,286973971699;8,4625244140625E-09;9,46044921874972E-05;10;800;9,04630124568939E-08;-8,6439922451973E-08;100 nA
