Potential applied (V);Time (s);WE(1).Current (A);WE(1).Potential (V);Scan;Index;Q+;Q-;Current range
0,050048828125;7,36369198140846;1,8310546875E-09;0,05010986328125;1;1;1,26435607671738E-07;-1,81634724140167E-07;100 nA
0,10009765625;7,86417998014485;2,44140625E-09;0,100189208984375;1;2;1,26435607671738E-07;-1,81634724140167E-07;100 nA
0,150146484375;8,36466797888124;3,265380859375E-09;0,150177001953125;1;3;1,26435607671738E-07;-1,81634724140167E-07;100 nA
0,2001953125;8,86515597761763;4,119873046875E-09;0,20013427734375;1;4;1,26435607671738E-07;-1,81634724140167E-07;100 nA
0,250244140625;9,36564397635402;4,974365234375E-09;0,25018310546875;1;5;1,26435607671738E-07;-1,81634724140167E-07;100 nA
0,30029296875;9,86613197509041;6,256103515625E-09;0,30010986328125;1;6;1,26435607671738E-07;-1,81634724140167E-07;100 nA
0,350341796875;10,3666199738268;6,65283203125E-09;0,350189208984375;1;7;1,26435607671738E-07;-1,81634724140167E-07;100 nA
0,400390625;10,8671079725632;3,997802734375E-09;0,400146484375;1;8;1,26435607671738E-07;-1,81634724140167E-07;100 nA
0,450439453125;11,3675959712996;7,14111328125E-09;0,450103759765625;1;9;1,26435607671738E-07;-1,81634724140167E-07;100 nA
0,50048828125;11,868083970036;7,6904296875E-09;0,50018310546875;1;10;1,26435607671738E-07;-1,81634724140167E-07;100 nA
0,550537109375;12,3685719687724;8,9111328125E-09;0,550140380859375;1;11;1,26435607671738E-07;-1,81634724140167E-07;100 nA
0,6005859375;12,8690599675087;1,092529296875E-08;0,600189208984375;1;12;1,26435607671738E-07;-1,81634724140167E-07;100 nA
0,650634765625;13,3695479662451;1,0040283203125E-08;0,65008544921875;1;13;1,26435607671738E-07;-1,81634724140167E-07;100 nA
0,70068359375;13,8700359649815;9,368896484375E-09;0,70001220703125;1;14;1,26435607671738E-07;-1,81634724140167E-07;100 nA
0,750732421875;14,3705239637179;9,94873046875E-09;0,7498779296875;1;15;1,26435607671738E-07;-1,81634724140167E-07;100 nA
0,80078125;14,8710119624543;1,01318359375E-08;0,8001708984375;1;16;1,26435607671738E-07;-1,81634724140167E-07;100 nA
0,850830078125;15,3714999611907;1,0528564453125E-08;0,84991455078125;1;17;1,26435607671738E-07;-1,81634724140167E-07;100 nA
0,90087890625;15,8719879599271;1,104736328125E-08;0,899658203125;1;18;1,26435607671738E-07;-1,81634724140167E-07;100 nA
0,950927734375;16,3724759586635;1,177978515625E-08;0,94970703125;1;19;1,26435607671738E-07;-1,81634724140167E-07;100 nA
1,0009765625;16,8729639573999;1,2847900390625E-08;0,9991455078125;1;20;1,26435607671738E-07;-1,81634724140167E-07;100 nA
0,950927734375;17,3734519561363;6,805419921875E-09;0,94940185546875;1;21;1,26435607671738E-07;-1,81634724140167E-07;100 nA
0,90087890625;17,8739399548726;3,173828125E-09;0,89996337890625;1;22;1,26435607671738E-07;-1,81634724140167E-07;100 nA
0,850830078125;18,374427953609;1,495361328125E-09;0,84991455078125;1;23;1,26435607671738E-07;-1,81634724140167E-07;100 nA
0,80078125;18,8749159523454;2,13623046875E-10;0,799560546875;1;24;1,26435607671738E-07;-1,81634724140167E-07;100 nA
0,750732421875;19,3754039510818;-7,62939453125E-10;0,749786376953125;1;25;1,26435607671738E-07;-1,81634724140167E-07;100 nA
0,70068359375;19,8758919498182;-1,678466796875E-09;0,699920654296875;1;26;1,26435607671738E-07;-1,81634724140167E-07;100 nA
0,650634765625;20,3763799485546;-2,410888671875E-09;0,649993896484375;1;27;1,26435607671738E-07;-1,81634724140167E-07;100 nA
0,6005859375;20,876867947291;-3,96728515625E-09;0,600067138671875;1;28;1,26435607671738E-07;-1,81634724140167E-07;100 nA
0,550537109375;21,3773559460274;-5,950927734375E-09;0,55010986328125;1;29;1,26435607671738E-07;-1,81634724140167E-07;100 nA
0,50048828125;21,8778439447638;-7,415771484375E-09;0,50006103515625;1;30;1,26435607671738E-07;-1,81634724140167E-07;100 nA
0,450439453125;22,3783319435001;-8,4228515625E-09;0,450103759765625;1;31;1,26435607671738E-07;-1,81634724140167E-07;100 nA
0,400390625;22,8788199422365;-6,988525390625E-09;0,400054931640625;1;32;1,26435607671738E-07;-1,81634724140167E-07;100 nA
0,350341796875;23,3793079409729;-6,317138671875E-09;0,35009765625;1;33;1,26435607671738E-07;-1,81634724140167E-07;100 nA
0,30029296875;23,8797959397093;-6,561279296875E-09;0,29998779296875;1;34;1,26435607671738E-07;-1,81634724140167E-07;100 nA
0,250244140625;24,3802839384457;-7,110595703125E-09;0,250030517578125;1;35;1,26435607671738E-07;-1,81634724140167E-07;100 nA
0,2001953125;24,8807719371821;-7,354736328125E-09;0,200042724609375;1;36;1,26435607671738E-07;-1,81634724140167E-07;100 nA
0,150146484375;25,3812599359185;-7,904052734375E-09;0,1500244140625;1;37;1,26435607671738E-07;-1,81634724140167E-07;100 nA
0,10009765625;25,8817479346549;-8,23974609375E-09;0,0999755859375;1;38;1,26435607671738E-07;-1,81634724140167E-07;100 nA
0,050048828125;26,3822359333913;-8,453369140625E-09;0,04998779296875;1;39;1,26435607671738E-07;-1,81634724140167E-07;100 nA
0;26,8827239321276;-9,002685546875E-09;0,000103759765625003;1;40;1,26435607671738E-07;-1,81634724140167E-07;100 nA
-0,050048828125;27,383211930864;-9,521484375E-09;-0,049896240234375;1;41;1,26435607671738E-07;-1,81634724140167E-07;100 nA
-0,10009765625;27,8836999296004;-9,918212890625E-09;-0,099822998046875;1;42;1,26435607671738E-07;-1,81634724140167E-07;100 nA
-0,150146484375;28,3841879283368;-1,0284423828125E-08;-0,14959716796875;1;43;1,26435607671738E-07;-1,81634724140167E-07;100 nA
-0,2001953125;28,8846759270732;-1,055908203125E-08;-0,199462890625;1;44;1,26435607671738E-07;-1,81634724140167E-07;100 nA
-0,250244140625;29,3851639258096;-1,0833740234375E-08;-0,2493896484375;1;45;1,26435607671738E-07;-1,81634724140167E-07;100 nA
-0,30029296875;29,885651924546;-1,123046875E-08;-0,299346923828125;1;46;1,26435607671738E-07;-1,81634724140167E-07;100 nA
-0,350341796875;30,3861399232824;-1,15966796875E-08;-0,34918212890625;1;47;1,26435607671738E-07;-1,81634724140167E-07;100 nA
-0,400390625;30,8866279220188;-1,1993408203125E-08;-0,399139404296875;1;48;1,26435607671738E-07;-1,81634724140167E-07;100 nA
-0,450439453125;31,3871159207552;-1,2420654296875E-08;-0,448944091796875;1;49;1,26435607671738E-07;-1,81634724140167E-07;100 nA
-0,50048828125;31,8876039194915;-1,300048828125E-08;-0,498870849609375;1;50;1,26435607671738E-07;-1,81634724140167E-07;100 nA
-0,550537109375;32,3880919182279;-1,35498046875E-08;-0,5487060546875;1;51;1,26435607671738E-07;-1,81634724140167E-07;100 nA
-0,6005859375;32,8885799169643;-1,40380859375E-08;-0,5986328125;1;52;1,26435607671738E-07;-1,81634724140167E-07;100 nA
-0,650634765625;33,3890679157007;-1,2969970703125E-08;-0,648590087890625;1;53;1,26435607671738E-07;-1,81634724140167E-07;100 nA
-0,70068359375;33,8895559144371;-1,104736328125E-08;-0,698577880859375;1;54;1,26435607671738E-07;-1,81634724140167E-07;100 nA
-0,750732421875;34,3900439131735;-1,0894775390625E-08;-0,748504638671875;1;55;1,26435607671738E-07;-1,81634724140167E-07;100 nA
-0,80078125;34,8905319119099;-1,1566162109375E-08;-0,79864501953125;1;56;1,26435607671738E-07;-1,81634724140167E-07;100 nA
-0,850830078125;35,3910199106463;-1,2481689453125E-08;-0,8489990234375;1;57;1,26435607671738E-07;-1,81634724140167E-07;100 nA
-0,90087890625;35,8915079093827;-1,3702392578125E-08;-0,89813232421875;1;58;1,26435607671738E-07;-1,81634724140167E-07;100 nA
-0,950927734375;36,391995908119;-1,52587890625E-08;-0,948486328125;1;59;1,26435607671738E-07;-1,81634724140167E-07;100 nA
-1,0009765625;36,8924839068554;-1,7242431640625E-08;-0,99853515625;1;60;1,26435607671738E-07;-1,81634724140167E-07;100 nA
-0,950927734375;37,3929719055918;-9,8876953125E-09;-0,9490966796875;1;61;1,26435607671738E-07;-1,81634724140167E-07;100 nA
-0,90087890625;37,8934599043282;-5,706787109375E-09;-0,89874267578125;1;62;1,26435607671738E-07;-1,81634724140167E-07;100 nA
-0,850830078125;38,3939479030646;-3,23486328125E-09;-0,84869384765625;1;63;1,26435607671738E-07;-1,81634724140167E-07;100 nA
-0,80078125;38,894435901801;-1,3427734375E-09;-0,79864501953125;1;64;1,26435607671738E-07;-1,81634724140167E-07;100 nA
-0,750732421875;39,3949239005374;-9,1552734375E-11;-0,74853515625;1;65;1,26435607671738E-07;-1,81634724140167E-07;100 nA
-0,70068359375;39,8954118992738;7,32421875E-10;-0,698577880859375;1;66;1,26435607671738E-07;-1,81634724140167E-07;100 nA
-0,650634765625;40,3958998980102;1,861572265625E-09;-0,6485595703125;1;67;1,26435607671738E-07;-1,81634724140167E-07;100 nA
-0,6005859375;40,8963878967465;2,716064453125E-09;-0,5986328125;1;68;1,26435607671738E-07;-1,81634724140167E-07;100 nA
-0,550537109375;41,3968758954829;4,119873046875E-09;-0,5487060546875;1;69;1,26435607671738E-07;-1,81634724140167E-07;100 nA
-0,50048828125;41,8973638942193;5,55419921875E-09;-0,498779296875;1;70;1,26435607671738E-07;-1,81634724140167E-07;100 nA
-0,450439453125;42,3978518929557;6,65283203125E-09;-0,448944091796875;1;71;1,26435607671738E-07;-1,81634724140167E-07;100 nA
-0,400390625;42,8983398916921;7,01904296875E-09;-0,39898681640625;1;72;1,26435607671738E-07;-1,81634724140167E-07;100 nA
-0,350341796875;43,3988278904285;7,080078125E-09;-0,349090576171875;1;73;1,26435607671738E-07;-1,81634724140167E-07;100 nA
-0,30029296875;43,8993158891649;6,7138671875E-09;-0,2991943359375;1;74;1,26435607671738E-07;-1,81634724140167E-07;100 nA
-0,250244140625;44,3998038879013;6,7138671875E-09;-0,249298095703125;1;75;1,26435607671738E-07;-1,81634724140167E-07;100 nA
-0,2001953125;44,9002918866377;7,110595703125E-09;-0,19940185546875;1;76;1,26435607671738E-07;-1,81634724140167E-07;100 nA
-0,150146484375;45,4007798853741;7,171630859375E-09;-0,149566650390625;1;77;1,26435607671738E-07;-1,81634724140167E-07;100 nA
-0,10009765625;45,9012678841104;7,537841796875E-09;-0,099609375;1;78;1,26435607671738E-07;-1,81634724140167E-07;100 nA
-0,050048828125;46,4017558828468;7,781982421875E-09;-0,0497161865234375;1;79;1,26435607671738E-07;-1,81634724140167E-07;100 nA
0;46,9022438815832;8,270263671875E-09;0,000143432617187494;1;80;1,26435607671738E-07;-1,81634724140167E-07;100 nA
0,050048828125;47,4027318803196;8,544921875E-09;0,050079345703125;2;81;1,52599439024925E-07;-1,69919803738594E-07;100 nA
0,10009765625;47,903219879056;8,7890625E-09;0,10009765625;2;82;1,52599439024925E-07;-1,69919803738594E-07;100 nA
0,150146484375;48,4037078777924;8,7890625E-09;0,150054931640625;2;83;1,52599439024925E-07;-1,69919803738594E-07;100 nA
0,2001953125;48,9041958765288;9,002685546875E-09;0,200042724609375;2;84;1,52599439024925E-07;-1,69919803738594E-07;100 nA
0,250244140625;49,4046838752652;8,97216796875E-09;0,250030517578125;2;85;1,52599439024925E-07;-1,69919803738594E-07;100 nA
0,30029296875;49,9051718740016;9,063720703125E-09;0,29998779296875;2;86;1,52599439024925E-07;-1,69919803738594E-07;100 nA
0,350341796875;50,4056598727379;9,1552734375E-09;0,350067138671875;2;87;1,52599439024925E-07;-1,69919803738594E-07;100 nA
0,400390625;50,9061478714743;9,124755859375E-09;0,399993896484375;2;88;1,52599439024925E-07;-1,69919803738594E-07;100 nA
0,450439453125;51,4066358702107;9,27734375E-09;0,45001220703125;2;89;1,52599439024925E-07;-1,69919803738594E-07;100 nA
0,50048828125;51,9071238689471;9,46044921875E-09;0,5;2;90;1,52599439024925E-07;-1,69919803738594E-07;100 nA
0,550537109375;52,4076118676835;1,1383056640625E-08;0,550048828125;2;91;1,52599439024925E-07;-1,69919803738594E-07;100 nA
0,6005859375;52,9080998664199;1,18408203125E-08;0,5999755859375;2;92;1,52599439024925E-07;-1,69919803738594E-07;100 nA
0,650634765625;53,4085878651563;1,0772705078125E-08;0,64996337890625;2;93;1,52599439024925E-07;-1,69919803738594E-07;100 nA
0,70068359375;53,9090758638927;1,0345458984375E-08;0,699798583984375;2;94;1,52599439024925E-07;-1,69919803738594E-07;100 nA
0,750732421875;54,4095638626291;1,0711669921875E-08;0,749755859375;2;95;1,52599439024925E-07;-1,69919803738594E-07;100 nA
0,80078125;54,9100518613654;1,1199951171875E-08;0,79986572265625;2;96;1,52599439024925E-07;-1,69919803738594E-07;100 nA
0,850830078125;55,4105398601018;1,165771484375E-08;0,84991455078125;2;97;1,52599439024925E-07;-1,69919803738594E-07;100 nA
0,90087890625;55,9110278588382;1,20849609375E-08;0,89996337890625;2;98;1,52599439024925E-07;-1,69919803738594E-07;100 nA
0,950927734375;56,4115158575746;1,300048828125E-08;0,95001220703125;2;99;1,52599439024925E-07;-1,69919803738594E-07;100 nA
1,0009765625;56,912003856311;1,4312744140625E-08;1,00006103515625;2;100;1,52599439024925E-07;-1,69919803738594E-07;100 nA
0,950927734375;57,4124918550474;7,720947265625E-09;0,94970703125;2;101;1,52599439024925E-07;-1,69919803738594E-07;100 nA
0,90087890625;57,9129798537838;4,364013671875E-09;0,89935302734375;2;102;1,52599439024925E-07;-1,69919803738594E-07;100 nA
0,850830078125;58,4134678525202;2,227783203125E-09;0,84991455078125;2;103;1,52599439024925E-07;-1,69919803738594E-07;100 nA
0,80078125;58,9139558512566;9,1552734375E-10;0,79986572265625;2;104;1,52599439024925E-07;-1,69919803738594E-07;100 nA
0,750732421875;59,4144438499929;-1,52587890625E-10;0,749908447265625;2;105;1,52599439024925E-07;-1,69919803738594E-07;100 nA
0,70068359375;59,9149318487293;-1,129150390625E-09;0,699981689453125;2;106;1,52599439024925E-07;-1,69919803738594E-07;100 nA
0,650634765625;60,4154198474657;-2,044677734375E-09;0,65008544921875;2;107;1,52599439024925E-07;-1,69919803738594E-07;100 nA
0,6005859375;60,9159078462021;-2,99072265625E-09;0,600189208984375;2;108;1,52599439024925E-07;-1,69919803738594E-07;100 nA
0,550537109375;61,4163958449385;-5,096435546875E-09;0,5501708984375;2;109;1,52599439024925E-07;-1,69919803738594E-07;100 nA
0,50048828125;61,9168838436749;-6,622314453125E-09;0,500152587890625;2;110;1,52599439024925E-07;-1,69919803738594E-07;100 nA
0,450439453125;62,4173718424113;-7,720947265625E-09;0,450164794921875;2;111;1,52599439024925E-07;-1,69919803738594E-07;100 nA
0,400390625;62,9178598411477;-6,378173828125E-09;0,4002685546875;2;112;1,52599439024925E-07;-1,69919803738594E-07;100 nA
0,350341796875;63,4183478398841;-5,9814453125E-09;0,35015869140625;2;113;1,52599439024925E-07;-1,69919803738594E-07;100 nA
0,30029296875;63,9188358386205;-6,072998046875E-09;0,300079345703125;2;114;1,52599439024925E-07;-1,69919803738594E-07;100 nA
0,250244140625;64,4193238373568;-6,34765625E-09;0,250091552734375;2;115;1,52599439024925E-07;-1,69919803738594E-07;100 nA
0,2001953125;64,9198118360932;-6,927490234375E-09;0,2000732421875;2;116;1,52599439024925E-07;-1,69919803738594E-07;100 nA
0,150146484375;65,4202998348296;-7,049560546875E-09;0,150115966796875;2;117;1,52599439024925E-07;-1,69919803738594E-07;100 nA
0,10009765625;65,920787833566;-7,843017578125E-09;0,100128173828125;2;118;1,52599439024925E-07;-1,69919803738594E-07;100 nA
0,050048828125;66,4212758323024;-8,270263671875E-09;0,050079345703125;2;119;1,52599439024925E-07;-1,69919803738594E-07;100 nA
0;66,9217638310388;-9,033203125E-09;0,000131225585937506;2;120;1,52599439024925E-07;-1,69919803738594E-07;100 nA
-0,050048828125;67,4222518297752;-9,6435546875E-09;-0,049774169921875;2;121;1,52599439024925E-07;-1,69919803738594E-07;100 nA
-0,10009765625;67,9227398285116;-9,857177734375E-09;-0,099639892578125;2;122;1,52599439024925E-07;-1,69919803738594E-07;100 nA
-0,150146484375;68,423227827248;-1,019287109375E-08;-0,149566650390625;2;123;1,52599439024925E-07;-1,69919803738594E-07;100 nA
-0,2001953125;68,9237158259843;-1,0528564453125E-08;-0,199462890625;2;124;1,52599439024925E-07;-1,69919803738594E-07;100 nA
-0,250244140625;69,4242038247207;-1,07421875E-08;-0,249359130859375;2;125;1,52599439024925E-07;-1,69919803738594E-07;100 nA
-0,30029296875;69,9246918234571;-1,092529296875E-08;-0,299224853515625;2;126;1,52599439024925E-07;-1,69919803738594E-07;100 nA
-0,350341796875;70,4251798221935;-1,1566162109375E-08;-0,349273681640625;2;127;1,52599439024925E-07;-1,69919803738594E-07;100 nA
-0,400390625;70,9256678209299;-1,1688232421875E-08;-0,399200439453125;2;128;1,52599439024925E-07;-1,69919803738594E-07;100 nA
-0,450439453125;71,4261558196663;-1,202392578125E-08;-0,448974609375;2;129;1,52599439024925E-07;-1,69919803738594E-07;100 nA
-0,50048828125;71,9266438184027;-1,2420654296875E-08;-0,49884033203125;2;130;1,52599439024925E-07;-1,69919803738594E-07;100 nA
-0,550537109375;72,4271318171391;-1,287841796875E-08;-0,548797607421875;2;131;1,52599439024925E-07;-1,69919803738594E-07;100 nA
-0,6005859375;72,9276198158755;-1,2847900390625E-08;-0,59857177734375;2;132;1,52599439024925E-07;-1,69919803738594E-07;100 nA
-0,650634765625;73,4281078146118;-1,123046875E-08;-0,648590087890625;2;133;1,52599439024925E-07;-1,69919803738594E-07;100 nA
-0,70068359375;73,9285958133482;-1,0284423828125E-08;-0,69854736328125;2;134;1,52599439024925E-07;-1,69919803738594E-07;100 nA
-0,750732421875;74,4290838120846;-1,007080078125E-08;-0,748504638671875;2;135;1,52599439024925E-07;-1,69919803738594E-07;100 nA
-0,80078125;74,929571810821;-1,0528564453125E-08;-0,79833984375;2;136;1,52599439024925E-07;-1,69919803738594E-07;100 nA
-0,850830078125;75,4300598095574;-1,153564453125E-08;-0,84930419921875;2;137;1,52599439024925E-07;-1,69919803738594E-07;100 nA
-0,90087890625;75,9305478082938;-1,26953125E-08;-0,89874267578125;2;138;1,52599439024925E-07;-1,69919803738594E-07;100 nA
-0,950927734375;76,4310358070302;-1,416015625E-08;-0,9490966796875;2;139;1,52599439024925E-07;-1,69919803738594E-07;100 nA
-1,0009765625;76,9315238057666;-1,6143798828125E-08;-0,99884033203125;2;140;1,52599439024925E-07;-1,69919803738594E-07;100 nA
-0,950927734375;77,432011804503;-9,124755859375E-09;-0,94879150390625;2;141;1,52599439024925E-07;-1,69919803738594E-07;100 nA
-0,90087890625;77,9324998032394;-5,157470703125E-09;-0,8984375;2;142;1,52599439024925E-07;-1,69919803738594E-07;100 nA
-0,850830078125;78,4329878019757;-2,50244140625E-09;-0,8489990234375;2;143;1,52599439024925E-07;-1,69919803738594E-07;100 nA
-0,80078125;78,9334758007121;-1,0986328125E-09;-0,79833984375;2;144;1,52599439024925E-07;-1,69919803738594E-07;100 nA
-0,750732421875;79,4339637994485;9,1552734375E-11;-0,74847412109375;2;145;1,52599439024925E-07;-1,69919803738594E-07;100 nA
-0,70068359375;79,9344517981849;1,03759765625E-09;-0,698516845703125;2;146;1,52599439024925E-07;-1,69919803738594E-07;100 nA
-0,650634765625;80,4349397969213;1,617431640625E-09;-0,648529052734375;2;147;1,52599439024925E-07;-1,69919803738594E-07;100 nA
-0,6005859375;80,9354277956577;2,593994140625E-09;-0,598663330078125;2;148;1,52599439024925E-07;-1,69919803738594E-07;100 nA
-0,550537109375;81,4359157943941;3,936767578125E-09;-0,548797607421875;2;149;1,52599439024925E-07;-1,69919803738594E-07;100 nA
-0,50048828125;81,9364037931305;5,18798828125E-09;-0,49884033203125;2;150;1,52599439024925E-07;-1,69919803738594E-07;100 nA
-0,450439453125;82,4368917918669;6,28662109375E-09;-0,448974609375;2;151;1,52599439024925E-07;-1,69919803738594E-07;100 nA
-0,400390625;82,9373797906032;6,622314453125E-09;-0,399078369140625;2;152;1,52599439024925E-07;-1,69919803738594E-07;100 nA
-0,350341796875;83,4378677893396;6,500244140625E-09;-0,349151611328125;2;153;1,52599439024925E-07;-1,69919803738594E-07;100 nA
-0,30029296875;83,938355788076;6,378173828125E-09;-0,29925537109375;2;154;1,52599439024925E-07;-1,69919803738594E-07;100 nA
-0,250244140625;84,4388437868124;6,4697265625E-09;-0,2493896484375;2;155;1,52599439024925E-07;-1,69919803738594E-07;100 nA
-0,2001953125;84,9393317855488;6,53076171875E-09;-0,199493408203125;2;156;1,52599439024925E-07;-1,69919803738594E-07;100 nA
-0,150146484375;85,4398197842852;6,7138671875E-09;-0,149627685546875;2;157;1,52599439024925E-07;-1,69919803738594E-07;100 nA
-0,10009765625;85,9403077830216;7,049560546875E-09;-0,099822998046875;2;158;1,52599439024925E-07;-1,69919803738594E-07;100 nA
-0,050048828125;86,440795781758;7,38525390625E-09;-0,050018310546875;2;159;1,52599439024925E-07;-1,69919803738594E-07;100 nA
0;86,9412837804944;7,781982421875E-09;0,000119018554687503;2;160;1,52599439024925E-07;-1,69919803738594E-07;100 nA
0,050048828125;87,4417717792307;8,30078125E-09;0,050115966796875;3;161;1,5745647251606E-07;-1,68484076857567E-07;100 nA
0,10009765625;87,9422597779671;8,575439453125E-09;0,100067138671875;3;162;1,5745647251606E-07;-1,68484076857567E-07;100 nA
0,150146484375;88,4427477767035;8,819580078125E-09;0,150115966796875;3;163;1,5745647251606E-07;-1,68484076857567E-07;100 nA
0,2001953125;88,9432357754399;9,002685546875E-09;0,2000732421875;3;164;1,5745647251606E-07;-1,68484076857567E-07;100 nA
0,250244140625;89,4437237741763;9,063720703125E-09;0,250030517578125;3;165;1,5745647251606E-07;-1,68484076857567E-07;100 nA
0,30029296875;89,9442117729127;9,33837890625E-09;0,300048828125;3;166;1,5745647251606E-07;-1,68484076857567E-07;100 nA
0,350341796875;90,4446997716491;9,490966796875E-09;0,35015869140625;3;167;1,5745647251606E-07;-1,68484076857567E-07;100 nA
0,400390625;90,9451877703855;9,46044921875E-09;0,400146484375;3;168;1,5745647251606E-07;-1,68484076857567E-07;100 nA
0,450439453125;91,4456757691219;9,552001953125E-09;0,4500732421875;3;169;1,5745647251606E-07;-1,68484076857567E-07;100 nA
0,50048828125;91,9461637678583;1,0101318359375E-08;0,5001220703125;3;170;1,5745647251606E-07;-1,68484076857567E-07;100 nA
0,550537109375;92,4466517665946;1,202392578125E-08;0,5501708984375;3;171;1,5745647251606E-07;-1,68484076857567E-07;100 nA
0,6005859375;92,947139765331;1,1871337890625E-08;0,600128173828125;3;172;1,5745647251606E-07;-1,68484076857567E-07;100 nA
0,650634765625;93,4476277640674;1,20849609375E-08;0,650177001953125;3;173;1,5745647251606E-07;-1,68484076857567E-07;100 nA
0,70068359375;93,9481157628038;1,1322021484375E-08;0,699981689453125;3;174;1,5745647251606E-07;-1,68484076857567E-07;100 nA
0,750732421875;94,4486037615402;1,1474609375E-08;0,749847412109375;3;175;1,5745647251606E-07;-1,68484076857567E-07;100 nA
0,80078125;94,9490917602766;1,1810302734375E-08;0,799560546875;3;176;1,5745647251606E-07;-1,68484076857567E-07;100 nA
0,850830078125;95,449579759013;1,2237548828125E-08;0,84991455078125;3;177;1,5745647251606E-07;-1,68484076857567E-07;100 nA
0,90087890625;95,9500677577494;1,25732421875E-08;0,89996337890625;3;178;1,5745647251606E-07;-1,68484076857567E-07;100 nA
0,950927734375;96,4505557564858;1,3336181640625E-08;0,94970703125;3;179;1,5745647251606E-07;-1,68484076857567E-07;100 nA
1,0009765625;96,9510437552221;1,4556884765625E-08;0,99945068359375;3;180;1,5745647251606E-07;-1,68484076857567E-07;100 nA
0,950927734375;97,4515317539585;7,843017578125E-09;0,94970703125;3;181;1,5745647251606E-07;-1,68484076857567E-07;100 nA
0,90087890625;97,9520197526949;3,875732421875E-09;0,89996337890625;3;182;1,5745647251606E-07;-1,68484076857567E-07;100 nA
0,850830078125;98,4525077514313;2,0751953125E-09;0,84991455078125;3;183;1,5745647251606E-07;-1,68484076857567E-07;100 nA
0,80078125;98,9529957501677;7,01904296875E-10;0,79986572265625;3;184;1,5745647251606E-07;-1,68484076857567E-07;100 nA
0,750732421875;99,4534837489041;-3,96728515625E-10;0,749755859375;3;185;1,5745647251606E-07;-1,68484076857567E-07;100 nA
0,70068359375;99,9539717476405;-1,434326171875E-09;0,6998291015625;3;186;1,5745647251606E-07;-1,68484076857567E-07;100 nA
0,650634765625;100,454459746377;-2,0751953125E-09;0,649993896484375;3;187;1,5745647251606E-07;-1,68484076857567E-07;100 nA
0,6005859375;100,954947745113;-3,2958984375E-09;0,600006103515625;3;188;1,5745647251606E-07;-1,68484076857567E-07;100 nA
0,550537109375;101,45543574385;-5,584716796875E-09;0,54998779296875;3;189;1,5745647251606E-07;-1,68484076857567E-07;100 nA
0,50048828125;101,955923742586;-7,01904296875E-09;0,499969482421875;3;190;1,5745647251606E-07;-1,68484076857567E-07;100 nA
0,450439453125;102,456411741322;-7,965087890625E-09;0,449981689453125;3;191;1,5745647251606E-07;-1,68484076857567E-07;100 nA
0,400390625;102,956899740059;-6,988525390625E-09;0,400054931640625;3;192;1,5745647251606E-07;-1,68484076857567E-07;100 nA
0,350341796875;103,457387738795;-6,2255859375E-09;0,35003662109375;3;193;1,5745647251606E-07;-1,68484076857567E-07;100 nA
0,30029296875;103,957875737532;-6,378173828125E-09;0,300048828125;3;194;1,5745647251606E-07;-1,68484076857567E-07;100 nA
0,250244140625;104,458363736268;-6,378173828125E-09;0,250152587890625;3;195;1,5745647251606E-07;-1,68484076857567E-07;100 nA
0,2001953125;104,958851735004;-6,866455078125E-09;0,2000732421875;3;196;1,5745647251606E-07;-1,68484076857567E-07;100 nA
0,150146484375;105,459339733741;-7,110595703125E-09;0,150146484375;3;197;1,5745647251606E-07;-1,68484076857567E-07;100 nA
0,10009765625;105,959827732477;-7,476806640625E-09;0,10015869140625;3;198;1,5745647251606E-07;-1,68484076857567E-07;100 nA
0,050048828125;106,460315731214;-8,23974609375E-09;0,050140380859375;3;199;1,5745647251606E-07;-1,68484076857567E-07;100 nA
0;106,96080372995;-8,72802734375E-09;0,0001373291015625;3;200;1,5745647251606E-07;-1,68484076857567E-07;100 nA
-0,050048828125;107,461291728686;-9,27734375E-09;-0,0497283935546875;3;201;1,5745647251606E-07;-1,68484076857567E-07;100 nA
-0,10009765625;107,961779727423;-9,552001953125E-09;-0,099639892578125;3;202;1,5745647251606E-07;-1,68484076857567E-07;100 nA
-0,150146484375;108,462267726159;-9,979248046875E-09;-0,1495361328125;3;203;1,5745647251606E-07;-1,68484076857567E-07;100 nA
-0,2001953125;108,962755724895;-9,735107421875E-09;-0,199371337890625;3;204;1,5745647251606E-07;-1,68484076857567E-07;100 nA
-0,250244140625;109,463243723632;-1,0040283203125E-08;-0,249237060546875;3;205;1,5745647251606E-07;-1,68484076857567E-07;100 nA
-0,30029296875;109,963731722368;-1,031494140625E-08;-0,299163818359375;3;206;1,5745647251606E-07;-1,68484076857567E-07;100 nA
-0,350341796875;110,464219721105;-1,0589599609375E-08;-0,34912109375;3;207;1,5745647251606E-07;-1,68484076857567E-07;100 nA
-0,400390625;110,964707719841;-1,123046875E-08;-0,3990478515625;3;208;1,5745647251606E-07;-1,68484076857567E-07;100 nA
-0,450439453125;111,465195718577;-1,1566162109375E-08;-0,448944091796875;3;209;1,5745647251606E-07;-1,68484076857567E-07;100 nA
-0,50048828125;111,965683717314;-1,20849609375E-08;-0,498870849609375;3;210;1,5745647251606E-07;-1,68484076857567E-07;100 nA
-0,550537109375;112,46617171605;-1,2603759765625E-08;-0,5487060546875;3;211;1,5745647251606E-07;-1,68484076857567E-07;100 nA
-0,6005859375;112,966659714787;-1,251220703125E-08;-0,5986328125;3;212;1,5745647251606E-07;-1,68484076857567E-07;100 nA
-0,650634765625;113,467147713523;-1,092529296875E-08;-0,648651123046875;3;213;1,5745647251606E-07;-1,68484076857567E-07;100 nA
-0,70068359375;113,967635712259;-9,94873046875E-09;-0,69854736328125;3;214;1,5745647251606E-07;-1,68484076857567E-07;100 nA
-0,750732421875;114,468123710996;-1,0040283203125E-08;-0,748565673828125;3;215;1,5745647251606E-07;-1,68484076857567E-07;100 nA
-0,80078125;114,968611709732;-1,080322265625E-08;-0,7989501953125;3;216;1,5745647251606E-07;-1,68484076857567E-07;100 nA
-0,850830078125;115,469099708469;-1,1566162109375E-08;-0,848388671875;3;217;1,5745647251606E-07;-1,68484076857567E-07;100 nA
-0,90087890625;115,969587707205;-1,25732421875E-08;-0,89874267578125;3;218;1,5745647251606E-07;-1,68484076857567E-07;100 nA
-0,950927734375;116,470075705941;-1,4007568359375E-08;-0,94879150390625;3;219;1,5745647251606E-07;-1,68484076857567E-07;100 nA
-1,0009765625;116,970563704678;-1,593017578125E-08;-0,9991455078125;3;220;1,5745647251606E-07;-1,68484076857567E-07;100 nA
-0,950927734375;117,471051703414;-8,941650390625E-09;-0,94879150390625;3;221;1,5745647251606E-07;-1,68484076857567E-07;100 nA
-0,90087890625;117,97153970215;-5,55419921875E-09;-0,8990478515625;3;222;1,5745647251606E-07;-1,68484076857567E-07;100 nA
-0,850830078125;118,472027700887;-3,021240234375E-09;-0,84869384765625;3;223;1,5745647251606E-07;-1,68484076857567E-07;100 nA
-0,80078125;118,972515699623;-1,617431640625E-09;-0,79864501953125;3;224;1,5745647251606E-07;-1,68484076857567E-07;100 nA
-0,750732421875;119,47300369836;-6,103515625E-11;-0,748626708984375;3;225;1,5745647251606E-07;-1,68484076857567E-07;100 nA
-0,70068359375;119,973491697096;7,62939453125E-10;-0,6986083984375;3;226;1,5745647251606E-07;-1,68484076857567E-07;100 nA
-0,650634765625;120,473979695832;1,5869140625E-09;-0,64862060546875;3;227;1,5745647251606E-07;-1,68484076857567E-07;100 nA
-0,6005859375;120,974467694569;2,532958984375E-09;-0,598663330078125;3;228;1,5745647251606E-07;-1,68484076857567E-07;100 nA
-0,550537109375;121,474955693305;3,90625E-09;-0,54876708984375;3;229;1,5745647251606E-07;-1,68484076857567E-07;100 nA
-0,50048828125;121,975443692042;5,18798828125E-09;-0,498779296875;3;230;1,5745647251606E-07;-1,68484076857567E-07;100 nA
-0,450439453125;122,475931690778;6,378173828125E-09;-0,448944091796875;3;231;1,5745647251606E-07;-1,68484076857567E-07;100 nA
-0,400390625;122,976419689514;6,8359375E-09;-0,399078369140625;3;232;1,5745647251606E-07;-1,68484076857567E-07;100 nA
-0,350341796875;123,476907688251;6,683349609375E-09;-0,34918212890625;3;233;1,5745647251606E-07;-1,68484076857567E-07;100 nA
-0,30029296875;123,977395686987;6,805419921875E-09;-0,29925537109375;3;234;1,5745647251606E-07;-1,68484076857567E-07;100 nA
-0,250244140625;124,477883685724;6,77490234375E-09;-0,24932861328125;3;235;1,5745647251606E-07;-1,68484076857567E-07;100 nA
-0,2001953125;124,97837168446;6,77490234375E-09;-0,19940185546875;3;236;1,5745647251606E-07;-1,68484076857567E-07;100 nA
-0,150146484375;125,478859683196;7,171630859375E-09;-0,1495361328125;3;237;1,5745647251606E-07;-1,68484076857567E-07;100 nA
-0,10009765625;125,979347681933;7,415771484375E-09;-0,099639892578125;3;238;1,5745647251606E-07;-1,68484076857567E-07;100 nA
-0,050048828125;126,479835680669;8,056640625E-09;-0,0497222900390625;3;239;1,5745647251606E-07;-1,68484076857567E-07;100 nA
0;126,980323679406;8,23974609375E-09;0,000131225585937506;3;240;1,5745647251606E-07;-1,68484076857567E-07;100 nA
0,050048828125;127,480811678142;8,453369140625E-09;0,050079345703125;4;241;1,5336312353611E-07;-1,64161622524261E-07;100 nA
0,10009765625;127,981299676878;8,85009765625E-09;0,100067138671875;4;242;1,5336312353611E-07;-1,64161622524261E-07;100 nA
0,150146484375;128,481787675615;9,002685546875E-09;0,150115966796875;4;243;1,5336312353611E-07;-1,64161622524261E-07;100 nA
0,2001953125;128,982275674351;9,185791015625E-09;0,200103759765625;4;244;1,5336312353611E-07;-1,64161622524261E-07;100 nA
0,250244140625;129,482763673087;9,246826171875E-09;0,2501220703125;4;245;1,5336312353611E-07;-1,64161622524261E-07;100 nA
0,30029296875;129,983251671824;9,368896484375E-09;0,30010986328125;4;246;1,5336312353611E-07;-1,64161622524261E-07;100 nA
0,350341796875;130,48373967056;9,3994140625E-09;0,35009765625;4;247;1,5336312353611E-07;-1,64161622524261E-07;100 nA
0,400390625;130,984227669297;9,368896484375E-09;0,400115966796875;4;248;1,5336312353611E-07;-1,64161622524261E-07;100 nA
0,450439453125;131,484715668033;9,613037109375E-09;0,450103759765625;4;249;1,5336312353611E-07;-1,64161622524261E-07;100 nA
0,50048828125;131,985203666769;1,0009765625E-08;0,500091552734375;4;250;1,5336312353611E-07;-1,64161622524261E-07;100 nA
0,550537109375;132,485691665506;1,18408203125E-08;0,550079345703125;4;251;1,5336312353611E-07;-1,64161622524261E-07;100 nA
0,6005859375;132,986179664242;1,141357421875E-08;0,600067138671875;4;252;1,5336312353611E-07;-1,64161622524261E-07;100 nA
0,650634765625;133,486667662979;1,1260986328125E-08;0,649993896484375;4;253;1,5336312353611E-07;-1,64161622524261E-07;100 nA
0,70068359375;133,987155661715;1,0772705078125E-08;0,6998291015625;4;254;1,5336312353611E-07;-1,64161622524261E-07;100 nA
0,750732421875;134,487643660451;1,11083984375E-08;0,749786376953125;4;255;1,5336312353611E-07;-1,64161622524261E-07;100 nA
0,80078125;134,988131659188;1,1474609375E-08;0,799560546875;4;256;1,5336312353611E-07;-1,64161622524261E-07;100 nA
0,850830078125;135,488619657924;1,1871337890625E-08;0,84991455078125;4;257;1,5336312353611E-07;-1,64161622524261E-07;100 nA
0,90087890625;135,989107656661;1,2359619140625E-08;0,89935302734375;4;258;1,5336312353611E-07;-1,64161622524261E-07;100 nA
0,950927734375;136,489595655397;1,312255859375E-08;0,94970703125;4;259;1,5336312353611E-07;-1,64161622524261E-07;100 nA
1,0009765625;136,990083654133;1,446533203125E-08;0,9991455078125;4;260;1,5336312353611E-07;-1,64161622524261E-07;100 nA
0,950927734375;137,49057165287;7,6904296875E-09;0,94970703125;4;261;1,5336312353611E-07;-1,64161622524261E-07;100 nA
0,90087890625;137,991059651606;4,08935546875E-09;0,899658203125;4;262;1,5336312353611E-07;-1,64161622524261E-07;100 nA
0,850830078125;138,491547650342;1,77001953125E-09;0,84991455078125;4;263;1,5336312353611E-07;-1,64161622524261E-07;100 nA
0,80078125;138,992035649079;2,74658203125E-10;0,80047607421875;4;264;1,5336312353611E-07;-1,64161622524261E-07;100 nA
0,750732421875;139,492523647815;-7,62939453125E-10;0,749725341796875;4;265;1,5336312353611E-07;-1,64161622524261E-07;100 nA
0,70068359375;139,993011646552;-1,617431640625E-09;0,699859619140625;4;266;1,5336312353611E-07;-1,64161622524261E-07;100 nA
0,650634765625;140,493499645288;-2,13623046875E-09;0,64990234375;4;267;1,5336312353611E-07;-1,64161622524261E-07;100 nA
0,6005859375;140,993987644024;-3,41796875E-09;0,60003662109375;4;268;1,5336312353611E-07;-1,64161622524261E-07;100 nA
0,550537109375;141,494475642761;-5,18798828125E-09;0,550018310546875;4;269;1,5336312353611E-07;-1,64161622524261E-07;100 nA
0,50048828125;141,994963641497;-6,7138671875E-09;0,500030517578125;4;270;1,5336312353611E-07;-1,64161622524261E-07;100 nA
0,450439453125;142,495451640234;-7,8125E-09;0,450042724609375;4;271;1,5336312353611E-07;-1,64161622524261E-07;100 nA
0,400390625;142,99593963897;-6,89697265625E-09;0,400054931640625;4;272;1,5336312353611E-07;-1,64161622524261E-07;100 nA
0,350341796875;143,496427637706;-6,134033203125E-09;0,350067138671875;4;273;1,5336312353611E-07;-1,64161622524261E-07;100 nA
0,30029296875;143,996915636443;-6,072998046875E-09;0,300048828125;4;274;1,5336312353611E-07;-1,64161622524261E-07;100 nA
0,250244140625;144,497403635179;-6,28662109375E-09;0,250091552734375;4;275;1,5336312353611E-07;-1,64161622524261E-07;100 nA
0,2001953125;144,997891633916;-6,561279296875E-09;0,2000732421875;4;276;1,5336312353611E-07;-1,64161622524261E-07;100 nA
0,150146484375;145,498379632652;-7,14111328125E-09;0,150115966796875;4;277;1,5336312353611E-07;-1,64161622524261E-07;100 nA
0,10009765625;145,998867631388;-7,171630859375E-09;0,10009765625;4;278;1,5336312353611E-07;-1,64161622524261E-07;100 nA
0,050048828125;146,499355630125;-7,99560546875E-09;0,050140380859375;4;279;1,5336312353611E-07;-1,64161622524261E-07;100 nA
0;146,999843628861;-8,6669921875E-09;0,0001220703125;4;280;1,5336312353611E-07;-1,64161622524261E-07;100 nA
-0,050048828125;147,500331627597;-9,1552734375E-09;-0,0497161865234375;4;281;1,5336312353611E-07;-1,64161622524261E-07;100 nA
-0,10009765625;148,000819626334;-9,552001953125E-09;-0,099609375;4;282;1,5336312353611E-07;-1,64161622524261E-07;100 nA
-0,150146484375;148,50130762507;-9,918212890625E-09;-0,149566650390625;4;283;1,5336312353611E-07;-1,64161622524261E-07;100 nA
-0,2001953125;149,001795623807;-1,0040283203125E-08;-0,19940185546875;4;284;1,5336312353611E-07;-1,64161622524261E-07;100 nA
-0,250244140625;149,502283622543;-1,025390625E-08;-0,249267578125;4;285;1,5336312353611E-07;-1,64161622524261E-07;100 nA
-0,30029296875;150,002771621279;-1,043701171875E-08;-0,299224853515625;4;286;1,5336312353611E-07;-1,64161622524261E-07;100 nA
-0,350341796875;150,503259620016;-1,06201171875E-08;-0,349151611328125;4;287;1,5336312353611E-07;-1,64161622524261E-07;100 nA
-0,400390625;151,003747618752;-1,1077880859375E-08;-0,399017333984375;4;288;1,5336312353611E-07;-1,64161622524261E-07;100 nA
-0,450439453125;151,504235617489;-1,1016845703125E-08;-0,448822021484375;4;289;1,5336312353611E-07;-1,64161622524261E-07;100 nA
-0,50048828125;152,004723616225;-1,153564453125E-08;-0,498779296875;4;290;1,5336312353611E-07;-1,64161622524261E-07;100 nA
-0,550537109375;152,505211614961;-1,20849609375E-08;-0,54864501953125;4;291;1,5336312353611E-07;-1,64161622524261E-07;100 nA
-0,6005859375;153,005699613698;-1,171875E-08;-0,598541259765625;4;292;1,5336312353611E-07;-1,64161622524261E-07;100 nA
-0,650634765625;153,506187612434;-1,0040283203125E-08;-0,648529052734375;4;293;1,5336312353611E-07;-1,64161622524261E-07;100 nA
-0,70068359375;154,006675611171;-9,521484375E-09;-0,698486328125;4;294;1,5336312353611E-07;-1,64161622524261E-07;100 nA
-0,750732421875;154,507163609907;-9,857177734375E-09;-0,74853515625;4;295;1,5336312353611E-07;-1,64161622524261E-07;100 nA
-0,80078125;155,007651608643;-1,0498046875E-08;-0,79864501953125;4;296;1,5336312353611E-07;-1,64161622524261E-07;100 nA
-0,850830078125;155,50813960738;-1,1138916015625E-08;-0,8489990234375;4;297;1,5336312353611E-07;-1,64161622524261E-07;100 nA
-0,90087890625;156,008627606116;-1,2176513671875E-08;-0,8984375;4;298;1,5336312353611E-07;-1,64161622524261E-07;100 nA
-0,950927734375;156,509115604852;-1,348876953125E-08;-0,948486328125;4;299;1,5336312353611E-07;-1,64161622524261E-07;100 nA
-1,0009765625;157,009603603589;-1,5167236328125E-08;-0,9991455078125;4;300;1,5336312353611E-07;-1,64161622524261E-07;100 nA
-0,950927734375;157,510091602325;-8,758544921875E-09;-0,948486328125;4;301;1,5336312353611E-07;-1,64161622524261E-07;100 nA
-0,90087890625;158,010579601062;-5,0048828125E-09;-0,89874267578125;4;302;1,5336312353611E-07;-1,64161622524261E-07;100 nA
-0,850830078125;158,511067599798;-2,86865234375E-09;-0,84869384765625;4;303;1,5336312353611E-07;-1,64161622524261E-07;100 nA
-0,80078125;159,011555598534;-1,434326171875E-09;-0,7989501953125;4;304;1,5336312353611E-07;-1,64161622524261E-07;100 nA
-0,750732421875;159,512043597271;-6,103515625E-11;-0,748565673828125;4;305;1,5336312353611E-07;-1,64161622524261E-07;100 nA
-0,70068359375;160,012531596007;7,9345703125E-10;-0,698577880859375;4;306;1,5336312353611E-07;-1,64161622524261E-07;100 nA
-0,650634765625;160,513019594744;1,5869140625E-09;-0,648651123046875;4;307;1,5336312353611E-07;-1,64161622524261E-07;100 nA
-0,6005859375;161,01350759348;2,410888671875E-09;-0,598663330078125;4;308;1,5336312353611E-07;-1,64161622524261E-07;100 nA
-0,550537109375;161,513995592216;3,387451171875E-09;-0,548736572265625;4;309;1,5336312353611E-07;-1,64161622524261E-07;100 nA
-0,50048828125;162,014483590953;5,035400390625E-09;-0,498870849609375;4;310;1,5336312353611E-07;-1,64161622524261E-07;100 nA
-0,450439453125;162,514971589689;5,7373046875E-09;-0,44903564453125;4;311;1,5336312353611E-07;-1,64161622524261E-07;100 nA
-0,400390625;163,015459588426;6,2255859375E-09;-0,39923095703125;4;312;1,5336312353611E-07;-1,64161622524261E-07;100 nA
-0,350341796875;163,515947587162;6,195068359375E-09;-0,349365234375;4;313;1,5336312353611E-07;-1,64161622524261E-07;100 nA
-0,30029296875;164,016435585898;6,317138671875E-09;-0,299346923828125;4;314;1,5336312353611E-07;-1,64161622524261E-07;100 nA
-0,250244140625;164,516923584635;6,53076171875E-09;-0,24945068359375;4;315;1,5336312353611E-07;-1,64161622524261E-07;100 nA
-0,2001953125;165,017411583371;6,591796875E-09;-0,199554443359375;4;316;1,5336312353611E-07;-1,64161622524261E-07;100 nA
-0,150146484375;165,517899582107;6,805419921875E-09;-0,149658203125;4;317;1,5336312353611E-07;-1,64161622524261E-07;100 nA
-0,10009765625;166,018387580844;7,14111328125E-09;-0,0997314453125;4;318;1,5336312353611E-07;-1,64161622524261E-07;100 nA
-0,050048828125;166,51887557958;7,659912109375E-09;-0,049774169921875;4;319;1,5336312353611E-07;-1,64161622524261E-07;100 nA
0;167,019363578317;7,99560546875E-09;0,000125122070312497;4;320;1,5336312353611E-07;-1,64161622524261E-07;100 nA
0,050048828125;167,519851577053;8,30078125E-09;0,050079345703125;5;321;1,56937167048454E-07;-1,64421275258064E-07;100 nA
0,10009765625;168,020339575789;8,819580078125E-09;0,100067138671875;5;322;1,56937167048454E-07;-1,64421275258064E-07;100 nA
0,150146484375;168,520827574526;8,7890625E-09;0,150054931640625;5;323;1,56937167048454E-07;-1,64421275258064E-07;100 nA
0,2001953125;169,021315573262;8,941650390625E-09;0,200103759765625;5;324;1,56937167048454E-07;-1,64421275258064E-07;100 nA
0,250244140625;169,521803571999;9,21630859375E-09;0,250091552734375;5;325;1,56937167048454E-07;-1,64421275258064E-07;100 nA
0,30029296875;170,022291570735;9,521484375E-09;0,300140380859375;5;326;1,56937167048454E-07;-1,64421275258064E-07;100 nA
0,350341796875;170,522779569471;9,490966796875E-09;0,35015869140625;5;327;1,56937167048454E-07;-1,64421275258064E-07;100 nA
0,400390625;171,023267568208;9,46044921875E-09;0,400177001953125;5;328;1,56937167048454E-07;-1,64421275258064E-07;100 nA
0,450439453125;171,523755566944;9,8876953125E-09;0,45013427734375;5;329;1,56937167048454E-07;-1,64421275258064E-07;100 nA
0,50048828125;172,024243565681;1,0650634765625E-08;0,500152587890625;5;330;1,56937167048454E-07;-1,64421275258064E-07;100 nA
0,550537109375;172,524731564417;1,2237548828125E-08;0,550140380859375;5;331;1,56937167048454E-07;-1,64421275258064E-07;100 nA
0,6005859375;173,025219563153;1,1627197265625E-08;0,6002197265625;5;332;1,56937167048454E-07;-1,64421275258064E-07;100 nA
0,650634765625;173,52570756189;1,1474609375E-08;0,65008544921875;5;333;1,56937167048454E-07;-1,64421275258064E-07;100 nA
0,70068359375;174,026195560626;1,129150390625E-08;0,699981689453125;5;334;1,56937167048454E-07;-1,64421275258064E-07;100 nA
0,750732421875;174,526683559362;1,1474609375E-08;0,749847412109375;5;335;1,56937167048454E-07;-1,64421275258064E-07;100 nA
0,80078125;175,027171558099;1,1627197265625E-08;0,799560546875;5;336;1,56937167048454E-07;-1,64421275258064E-07;100 nA
0,850830078125;175,527659556835;1,202392578125E-08;0,8502197265625;5;337;1,56937167048454E-07;-1,64421275258064E-07;100 nA
0,90087890625;176,028147555572;1,251220703125E-08;0,899658203125;5;338;1,56937167048454E-07;-1,64421275258064E-07;100 nA
0,950927734375;176,528635554308;1,3153076171875E-08;0,94970703125;5;339;1,56937167048454E-07;-1,64421275258064E-07;100 nA
1,0009765625;177,029123553044;1,4434814453125E-08;0,99945068359375;5;340;1,56937167048454E-07;-1,64421275258064E-07;100 nA
0,950927734375;177,529611551781;7,62939453125E-09;0,94940185546875;5;341;1,56937167048454E-07;-1,64421275258064E-07;100 nA
0,90087890625;178,030099550517;3,936767578125E-09;0,89935302734375;5;342;1,56937167048454E-07;-1,64421275258064E-07;100 nA
0,850830078125;178,530587549254;1,983642578125E-09;0,8489990234375;5;343;1,56937167048454E-07;-1,64421275258064E-07;100 nA
0,80078125;179,03107554799;7,01904296875E-10;0,79986572265625;5;344;1,56937167048454E-07;-1,64421275258064E-07;100 nA
0,750732421875;179,531563546726;-3,96728515625E-10;0,749786376953125;5;345;1,56937167048454E-07;-1,64421275258064E-07;100 nA
0,70068359375;180,032051545463;-1,77001953125E-09;0,699798583984375;5;346;1,56937167048454E-07;-1,64421275258064E-07;100 nA
0,650634765625;180,532539544199;-2,593994140625E-09;0,64996337890625;5;347;1,56937167048454E-07;-1,64421275258064E-07;100 nA
0,6005859375;181,033027542936;-3,204345703125E-09;0,599945068359375;5;348;1,56937167048454E-07;-1,64421275258064E-07;100 nA
0,550537109375;181,533515541672;-5,0048828125E-09;0,54998779296875;5;349;1,56937167048454E-07;-1,64421275258064E-07;100 nA
0,50048828125;182,034003540408;-6,40869140625E-09;0,500030517578125;5;350;1,56937167048454E-07;-1,64421275258064E-07;100 nA
0,450439453125;182,534491539145;-7,6904296875E-09;0,450042724609375;5;351;1,56937167048454E-07;-1,64421275258064E-07;100 nA
0,400390625;183,034979537881;-6,8359375E-09;0,40008544921875;5;352;1,56937167048454E-07;-1,64421275258064E-07;100 nA
0,350341796875;183,535467536617;-6,04248046875E-09;0,350128173828125;5;353;1,56937167048454E-07;-1,64421275258064E-07;100 nA
0,30029296875;184,035955535354;-5,9814453125E-09;0,300079345703125;5;354;1,56937167048454E-07;-1,64421275258064E-07;100 nA
0,250244140625;184,53644353409;-6,16455078125E-09;0,250152587890625;5;355;1,56937167048454E-07;-1,64421275258064E-07;100 nA
0,2001953125;185,036931532827;-6,65283203125E-09;0,2000732421875;5;356;1,56937167048454E-07;-1,64421275258064E-07;100 nA
0,150146484375;185,537419531563;-6,988525390625E-09;0,150054931640625;5;357;1,56937167048454E-07;-1,64421275258064E-07;100 nA
0,10009765625;186,037907530299;-7,354736328125E-09;0,10015869140625;5;358;1,56937167048454E-07;-1,64421275258064E-07;100 nA
0,050048828125;186,538395529036;-7,965087890625E-09;0,050140380859375;5;359;1,56937167048454E-07;-1,64421275258064E-07;100 nA
0;187,038883527772;-8,514404296875E-09;0,000140380859374997;5;360;1,56937167048454E-07;-1,64421275258064E-07;100 nA
-0,050048828125;187,539371526509;-9,1552734375E-09;-0,049725341796875;5;361;1,56937167048454E-07;-1,64421275258064E-07;100 nA
-0,10009765625;188,039859525245;-9,765625E-09;-0,099609375;5;362;1,56937167048454E-07;-1,64421275258064E-07;100 nA
-0,150146484375;188,540347523981;-1,0040283203125E-08;-0,14959716796875;5;363;1,56937167048454E-07;-1,64421275258064E-07;100 nA
-0,2001953125;189,040835522718;-9,8876953125E-09;-0,199432373046875;5;364;1,56937167048454E-07;-1,64421275258064E-07;100 nA
-0,250244140625;189,541323521454;-9,8876953125E-09;-0,249298095703125;5;365;1,56937167048454E-07;-1,64421275258064E-07;100 nA
-0,30029296875;190,041811520191;-1,0345458984375E-08;-0,299163818359375;5;366;1,56937167048454E-07;-1,64421275258064E-07;100 nA
-0,350341796875;190,542299518927;-1,06201171875E-08;-0,349090576171875;5;367;1,56937167048454E-07;-1,64421275258064E-07;100 nA
-0,400390625;191,042787517663;-1,0833740234375E-08;-0,399017333984375;5;368;1,56937167048454E-07;-1,64421275258064E-07;100 nA
-0,450439453125;191,5432755164;-1,1138916015625E-08;-0,448883056640625;5;369;1,56937167048454E-07;-1,64421275258064E-07;100 nA
-0,50048828125;192,043763515136;-1,1932373046875E-08;-0,498779296875;5;370;1,56937167048454E-07;-1,64421275258064E-07;100 nA
-0,550537109375;192,544251513873;-1,2298583984375E-08;-0,548675537109375;5;371;1,56937167048454E-07;-1,64421275258064E-07;100 nA
-0,6005859375;193,044739512609;-1,190185546875E-08;-0,59869384765625;5;372;1,56937167048454E-07;-1,64421275258064E-07;100 nA
-0,650634765625;193,545227511345;-1,031494140625E-08;-0,648590087890625;5;373;1,56937167048454E-07;-1,64421275258064E-07;100 nA
-0,70068359375;194,045715510082;-9,613037109375E-09;-0,698577880859375;5;374;1,56937167048454E-07;-1,64421275258064E-07;100 nA
-0,750732421875;194,546203508818;-9,94873046875E-09;-0,74853515625;5;375;1,56937167048454E-07;-1,64421275258064E-07;100 nA
-0,80078125;195,046691507554;-1,055908203125E-08;-0,79833984375;5;376;1,56937167048454E-07;-1,64421275258064E-07;100 nA
-0,850830078125;195,547179506291;-1,1138916015625E-08;-0,84869384765625;5;377;1,56937167048454E-07;-1,64421275258064E-07;100 nA
-0,90087890625;196,047667505027;-1,20849609375E-08;-0,89874267578125;5;378;1,56937167048454E-07;-1,64421275258064E-07;100 nA
-0,950927734375;196,548155503764;-1,3336181640625E-08;-0,9490966796875;5;379;1,56937167048454E-07;-1,64421275258064E-07;100 nA
-1,0009765625;197,0486435025;-1,5106201171875E-08;-0,99884033203125;5;380;1,56937167048454E-07;-1,64421275258064E-07;100 nA
-0,950927734375;197,549131501236;-8,6669921875E-09;-0,94879150390625;5;381;1,56937167048454E-07;-1,64421275258064E-07;100 nA
-0,90087890625;198,049619499973;-5,218505859375E-09;-0,89874267578125;5;382;1,56937167048454E-07;-1,64421275258064E-07;100 nA
-0,850830078125;198,550107498709;-3,082275390625E-09;-0,84869384765625;5;383;1,56937167048454E-07;-1,64421275258064E-07;100 nA
-0,80078125;199,050595497446;-1,64794921875E-09;-0,79864501953125;5;384;1,56937167048454E-07;-1,64421275258064E-07;100 nA
-0,750732421875;199,551083496182;-4,2724609375E-10;-0,7486572265625;5;385;1,56937167048454E-07;-1,64421275258064E-07;100 nA
-0,70068359375;200,051571494918;5,18798828125E-10;-0,698699951171875;5;386;1,56937167048454E-07;-1,64421275258064E-07;100 nA
-0,650634765625;200,552059493655;1,373291015625E-09;-0,64874267578125;5;387;1,56937167048454E-07;-1,64421275258064E-07;100 nA
-0,6005859375;201,052547492391;2,25830078125E-09;-0,598785400390625;5;388;1,56937167048454E-07;-1,64421275258064E-07;100 nA
-0,550537109375;201,553035491128;3,570556640625E-09;-0,54876708984375;5;389;1,56937167048454E-07;-1,64421275258064E-07;100 nA
-0,50048828125;202,053523489864;5,096435546875E-09;-0,498931884765625;5;390;1,56937167048454E-07;-1,64421275258064E-07;100 nA
-0,450439453125;202,5540114886;6,317138671875E-09;-0,448974609375;5;391;1,56937167048454E-07;-1,64421275258064E-07;100 nA
-0,400390625;203,054499487337;6,866455078125E-09;-0,3990478515625;5;392;1,56937167048454E-07;-1,64421275258064E-07;100 nA
-0,350341796875;203,554987486073;6,77490234375E-09;-0,349212646484375;5;393;1,56937167048454E-07;-1,64421275258064E-07;100 nA
-0,30029296875;204,055475484809;6,744384765625E-09;-0,29925537109375;5;394;1,56937167048454E-07;-1,64421275258064E-07;100 nA
-0,250244140625;204,555963483546;6,866455078125E-09;-0,24932861328125;5;395;1,56937167048454E-07;-1,64421275258064E-07;100 nA
-0,2001953125;205,056451482282;6,9580078125E-09;-0,199432373046875;5;396;1,56937167048454E-07;-1,64421275258064E-07;100 nA
-0,150146484375;205,556939481019;7,232666015625E-09;-0,14959716796875;5;397;1,56937167048454E-07;-1,64421275258064E-07;100 nA
-0,10009765625;206,057427479755;7,6904296875E-09;-0,099639892578125;5;398;1,56937167048454E-07;-1,64421275258064E-07;100 nA
-0,050048828125;206,557915478491;7,99560546875E-09;-0,049774169921875;5;399;1,56937167048454E-07;-1,64421275258064E-07;100 nA
0;207,058403477228;8,11767578125E-09;0,000140380859374997;5;400;1,56937167048454E-07;-1,64421275258064E-07;100 nA
0,050048828125;207,558891475964;8,544921875E-09;0,050079345703125;6;401;1,53622776269913E-07;-1,61794200539589E-07;100 nA
0,10009765625;208,059379474701;8,6669921875E-09;0,100128173828125;6;402;1,53622776269913E-07;-1,61794200539589E-07;100 nA
0,150146484375;208,559867473437;8,97216796875E-09;0,150146484375;6;403;1,53622776269913E-07;-1,61794200539589E-07;100 nA
0,2001953125;209,060355472173;9,063720703125E-09;0,2001953125;6;404;1,53622776269913E-07;-1,61794200539589E-07;100 nA
0,250244140625;209,56084347091;9,21630859375E-09;0,250091552734375;6;405;1,53622776269913E-07;-1,61794200539589E-07;100 nA
0,30029296875;210,061331469646;9,33837890625E-09;0,30010986328125;6;406;1,53622776269913E-07;-1,61794200539589E-07;100 nA
0,350341796875;210,561819468383;9,429931640625E-09;0,35015869140625;6;407;1,53622776269913E-07;-1,61794200539589E-07;100 nA
0,400390625;211,062307467119;9,796142578125E-09;0,40020751953125;6;408;1,53622776269913E-07;-1,61794200539589E-07;100 nA
0,450439453125;211,562795465855;9,613037109375E-09;0,450103759765625;6;409;1,53622776269913E-07;-1,61794200539589E-07;100 nA
0,50048828125;212,063283464592;1,025390625E-08;0,500152587890625;6;410;1,53622776269913E-07;-1,61794200539589E-07;100 nA
0,550537109375;212,563771463328;1,2054443359375E-08;0,550079345703125;6;411;1,53622776269913E-07;-1,61794200539589E-07;100 nA
0,6005859375;213,064259462064;1,129150390625E-08;0,60009765625;6;412;1,53622776269913E-07;-1,61794200539589E-07;100 nA
0,650634765625;213,564747460801;1,116943359375E-08;0,6500244140625;6;413;1,53622776269913E-07;-1,61794200539589E-07;100 nA
0,70068359375;214,065235459537;1,07421875E-08;0,699859619140625;6;414;1,53622776269913E-07;-1,61794200539589E-07;100 nA
0,750732421875;214,565723458274;1,1077880859375E-08;0,749847412109375;6;415;1,53622776269913E-07;-1,61794200539589E-07;100 nA
0,80078125;215,06621145701;1,1505126953125E-08;0,8001708984375;6;416;1,53622776269913E-07;-1,61794200539589E-07;100 nA
0,850830078125;215,566699455746;1,1871337890625E-08;0,849609375;6;417;1,53622776269913E-07;-1,61794200539589E-07;100 nA
0,90087890625;216,067187454483;1,239013671875E-08;0,899658203125;6;418;1,53622776269913E-07;-1,61794200539589E-07;100 nA
0,950927734375;216,567675453219;1,312255859375E-08;0,95001220703125;6;419;1,53622776269913E-07;-1,61794200539589E-07;100 nA
1,0009765625;217,068163451956;1,46484375E-08;0,999755859375;6;420;1,53622776269913E-07;-1,61794200539589E-07;100 nA
0,950927734375;217,568651450692;7,75146484375E-09;0,9490966796875;6;421;1,53622776269913E-07;-1,61794200539589E-07;100 nA
0,90087890625;218,069139449428;3,753662109375E-09;0,89996337890625;6;422;1,53622776269913E-07;-1,61794200539589E-07;100 nA
0,850830078125;218,569627448165;1,708984375E-09;0,84991455078125;6;423;1,53622776269913E-07;-1,61794200539589E-07;100 nA
0,80078125;219,070115446901;4,2724609375E-10;0,79986572265625;6;424;1,53622776269913E-07;-1,61794200539589E-07;100 nA
0,750732421875;219,570603445638;-4,8828125E-10;0,749725341796875;6;425;1,53622776269913E-07;-1,61794200539589E-07;100 nA
0,70068359375;220,071091444374;-1,3427734375E-09;0,6998291015625;6;426;1,53622776269913E-07;-1,61794200539589E-07;100 nA
0,650634765625;220,57157944311;-2,166748046875E-09;0,6500244140625;6;427;1,53622776269913E-07;-1,61794200539589E-07;100 nA
0,6005859375;221,072067441847;-3,35693359375E-09;0,600067138671875;6;428;1,53622776269913E-07;-1,61794200539589E-07;100 nA
0,550537109375;221,572555440583;-5,096435546875E-09;0,550079345703125;6;429;1,53622776269913E-07;-1,61794200539589E-07;100 nA
0,50048828125;222,073043439319;-6,34765625E-09;0,5001220703125;6;430;1,53622776269913E-07;-1,61794200539589E-07;100 nA
0,450439453125;222,573531438056;-7,568359375E-09;0,450103759765625;6;431;1,53622776269913E-07;-1,61794200539589E-07;100 nA
0,400390625;223,074019436792;-6,591796875E-09;0,40008544921875;6;432;1,53622776269913E-07;-1,61794200539589E-07;100 nA
0,350341796875;223,574507435529;-6,134033203125E-09;0,350128173828125;6;433;1,53622776269913E-07;-1,61794200539589E-07;100 nA
0,30029296875;224,074995434265;-6,103515625E-09;0,300079345703125;6;434;1,53622776269913E-07;-1,61794200539589E-07;100 nA
0,250244140625;224,575483433001;-6,378173828125E-09;0,250152587890625;6;435;1,53622776269913E-07;-1,61794200539589E-07;100 nA
0,2001953125;225,075971431738;-6,622314453125E-09;0,2000732421875;6;436;1,53622776269913E-07;-1,61794200539589E-07;100 nA
0,150146484375;225,576459430474;-6,988525390625E-09;0,150115966796875;6;437;1,53622776269913E-07;-1,61794200539589E-07;100 nA
0,10009765625;226,076947429211;-7,568359375E-09;0,10009765625;6;438;1,53622776269913E-07;-1,61794200539589E-07;100 nA
0,050048828125;226,577435427947;-8,056640625E-09;0,050140380859375;6;439;1,53622776269913E-07;-1,61794200539589E-07;100 nA
0;227,077923426683;-8,85009765625E-09;0,000146484375000006;6;440;1,53622776269913E-07;-1,61794200539589E-07;100 nA
-0,050048828125;227,57841142542;-9,490966796875E-09;-0,0497161865234375;6;441;1,53622776269913E-07;-1,61794200539589E-07;100 nA
-0,10009765625;228,078899424156;-9,857177734375E-09;-0,099609375;6;442;1,53622776269913E-07;-1,61794200539589E-07;100 nA
-0,150146484375;228,579387422893;-1,0040283203125E-08;-0,1495361328125;6;443;1,53622776269913E-07;-1,61794200539589E-07;100 nA
-0,2001953125;229,079875421629;-9,674072265625E-09;-0,19940185546875;6;444;1,53622776269913E-07;-1,61794200539589E-07;100 nA
-0,250244140625;229,580363420365;-9,796142578125E-09;-0,249267578125;6;445;1,53622776269913E-07;-1,61794200539589E-07;100 nA
-0,30029296875;230,080851419102;-1,007080078125E-08;-0,2991943359375;6;446;1,53622776269913E-07;-1,61794200539589E-07;100 nA
-0,350341796875;230,581339417838;-1,043701171875E-08;-0,349090576171875;6;447;1,53622776269913E-07;-1,61794200539589E-07;100 nA
-0,400390625;231,081827416574;-1,0650634765625E-08;-0,399017333984375;6;448;1,53622776269913E-07;-1,61794200539589E-07;100 nA
-0,450439453125;231,582315415311;-1,1138916015625E-08;-0,448883056640625;6;449;1,53622776269913E-07;-1,61794200539589E-07;100 nA
-0,50048828125;232,082803414047;-1,1566162109375E-08;-0,498779296875;6;450;1,53622776269913E-07;-1,61794200539589E-07;100 nA
-0,550537109375;232,583291412784;-1,1962890625E-08;-0,5487060546875;6;451;1,53622776269913E-07;-1,61794200539589E-07;100 nA
-0,6005859375;233,08377941152;-1,13525390625E-08;-0,59857177734375;6;452;1,53622776269913E-07;-1,61794200539589E-07;100 nA
-0,650634765625;233,584267410256;-1,0009765625E-08;-0,64849853515625;6;453;1,53622776269913E-07;-1,61794200539589E-07;100 nA
-0,70068359375;234,084755408993;-9,368896484375E-09;-0,698516845703125;6;454;1,53622776269913E-07;-1,61794200539589E-07;100 nA
-0,750732421875;234,585243407729;-9,8876953125E-09;-0,74853515625;6;455;1,53622776269913E-07;-1,61794200539589E-07;100 nA
-0,80078125;235,085731406466;-1,01318359375E-08;-0,79864501953125;6;456;1,53622776269913E-07;-1,61794200539589E-07;100 nA
-0,850830078125;235,586219405202;-1,0894775390625E-08;-0,8489990234375;6;457;1,53622776269913E-07;-1,61794200539589E-07;100 nA
-0,90087890625;236,086707403938;-1,18408203125E-08;-0,89874267578125;6;458;1,53622776269913E-07;-1,61794200539589E-07;100 nA
-0,950927734375;236,587195402675;-1,3031005859375E-08;-0,9490966796875;6;459;1,53622776269913E-07;-1,61794200539589E-07;100 nA
-1,0009765625;237,087683401411;-1,4678955078125E-08;-0,99884033203125;6;460;1,53622776269913E-07;-1,61794200539589E-07;100 nA
-0,950927734375;237,588171400148;-8,392333984375E-09;-0,94879150390625;6;461;1,53622776269913E-07;-1,61794200539589E-07;100 nA
-0,90087890625;238,088659398884;-4,791259765625E-09;-0,89874267578125;6;462;1,53622776269913E-07;-1,61794200539589E-07;100 nA
-0,850830078125;238,58914739762;-2,9296875E-09;-0,8489990234375;6;463;1,53622776269913E-07;-1,61794200539589E-07;100 nA
-0,80078125;239,089635396357;-1,373291015625E-09;-0,79833984375;6;464;1,53622776269913E-07;-1,61794200539589E-07;100 nA
-0,750732421875;239,590123395093;-2,44140625E-10;-0,74859619140625;6;465;1,53622776269913E-07;-1,61794200539589E-07;100 nA
-0,70068359375;240,090611393829;7,9345703125E-10;-0,6986083984375;6;466;1,53622776269913E-07;-1,61794200539589E-07;100 nA
-0,650634765625;240,591099392566;1,678466796875E-09;-0,64862060546875;6;467;1,53622776269913E-07;-1,61794200539589E-07;100 nA
-0,6005859375;241,091587391302;2,50244140625E-09;-0,5986328125;6;468;1,53622776269913E-07;-1,61794200539589E-07;100 nA
-0,550537109375;241,592075390039;3,570556640625E-09;-0,548797607421875;6;469;1,53622776269913E-07;-1,61794200539589E-07;100 nA
-0,50048828125;242,092563388775;5,0048828125E-09;-0,498870849609375;6;470;1,53622776269913E-07;-1,61794200539589E-07;100 nA
-0,450439453125;242,593051387511;5,9814453125E-09;-0,449005126953125;6;471;1,53622776269913E-07;-1,61794200539589E-07;100 nA
-0,400390625;243,093539386248;6,53076171875E-09;-0,399078369140625;6;472;1,53622776269913E-07;-1,61794200539589E-07;100 nA
-0,350341796875;243,594027384984;6,622314453125E-09;-0,349212646484375;6;473;1,53622776269913E-07;-1,61794200539589E-07;100 nA
-0,30029296875;244,094515383721;6,2255859375E-09;-0,299285888671875;6;474;1,53622776269913E-07;-1,61794200539589E-07;100 nA
-0,250244140625;244,595003382457;6,28662109375E-09;-0,2493896484375;6;475;1,53622776269913E-07;-1,61794200539589E-07;100 nA
-0,2001953125;245,095491381193;6,53076171875E-09;-0,199462890625;6;476;1,53622776269913E-07;-1,61794200539589E-07;100 nA
-0,150146484375;245,59597937993;6,9580078125E-09;-0,149627685546875;6;477;1,53622776269913E-07;-1,61794200539589E-07;100 nA
-0,10009765625;246,096467378666;6,927490234375E-09;-0,099761962890625;6;478;1,53622776269913E-07;-1,61794200539589E-07;100 nA
-0,050048828125;246,596955377403;7,2021484375E-09;-0,04986572265625;6;479;1,53622776269913E-07;-1,61794200539589E-07;100 nA
0;247,097443376139;7,720947265625E-09;0,000128173828124994;6;480;1,53622776269913E-07;-1,61794200539589E-07;100 nA
0,050048828125;247,597931374875;8,056640625E-09;0,050018310546875;7;481;1,53729692101479E-07;-1,62206590175629E-07;100 nA
0,10009765625;248,098419373612;7,87353515625E-09;0,099945068359375;7;482;1,53729692101479E-07;-1,62206590175629E-07;100 nA
0,150146484375;248,598907372348;8,148193359375E-09;0,14990234375;7;483;1,53729692101479E-07;-1,62206590175629E-07;100 nA
0,2001953125;249,099395371084;8,392333984375E-09;0,199951171875;7;484;1,53729692101479E-07;-1,62206590175629E-07;100 nA
0,250244140625;249,599883369821;8,6669921875E-09;0,25;7;485;1,53729692101479E-07;-1,62206590175629E-07;100 nA
0,30029296875;250,100371368557;8,85009765625E-09;0,299957275390625;7;486;1,53729692101479E-07;-1,62206590175629E-07;100 nA
0,350341796875;250,600859367294;8,758544921875E-09;0,3499755859375;7;487;1,53729692101479E-07;-1,62206590175629E-07;100 nA
0,400390625;251,10134736603;9,246826171875E-09;0,4000244140625;7;488;1,53729692101479E-07;-1,62206590175629E-07;100 nA
0,450439453125;251,601835364766;9,124755859375E-09;0,449981689453125;7;489;1,53729692101479E-07;-1,62206590175629E-07;100 nA
0,50048828125;252,102323363503;1,031494140625E-08;0,5;7;490;1,53729692101479E-07;-1,62206590175629E-07;100 nA
0,550537109375;252,602811362239;1,1962890625E-08;0,549957275390625;7;491;1,53729692101479E-07;-1,62206590175629E-07;100 nA
0,6005859375;253,103299360976;1,1138916015625E-08;0,60009765625;7;492;1,53729692101479E-07;-1,62206590175629E-07;100 nA
0,650634765625;253,603787359712;1,104736328125E-08;0,649993896484375;7;493;1,53729692101479E-07;-1,62206590175629E-07;100 nA
0,70068359375;254,104275358448;1,080322265625E-08;0,699859619140625;7;494;1,53729692101479E-07;-1,62206590175629E-07;100 nA
0,750732421875;254,604763357185;1,116943359375E-08;0,7498779296875;7;495;1,53729692101479E-07;-1,62206590175629E-07;100 nA
0,80078125;255,105251355921;1,15966796875E-08;0,79986572265625;7;496;1,53729692101479E-07;-1,62206590175629E-07;100 nA
0,850830078125;255,605739354658;1,2115478515625E-08;0,84991455078125;7;497;1,53729692101479E-07;-1,62206590175629E-07;100 nA
0,90087890625;256,106227353394;1,263427734375E-08;0,89935302734375;7;498;1,53729692101479E-07;-1,62206590175629E-07;100 nA
0,950927734375;256,60671535213;1,336669921875E-08;0,9503173828125;7;499;1,53729692101479E-07;-1,62206590175629E-07;100 nA
1,0009765625;257,107203350867;1,4923095703125E-08;0,9991455078125;7;500;1,53729692101479E-07;-1,62206590175629E-07;100 nA
0,950927734375;257,607691349603;8,087158203125E-09;0,94940185546875;7;501;1,53729692101479E-07;-1,62206590175629E-07;100 nA
0,90087890625;258,108179348339;4,39453125E-09;0,89935302734375;7;502;1,53729692101479E-07;-1,62206590175629E-07;100 nA
0,850830078125;258,608667347076;2,44140625E-09;0,8502197265625;7;503;1,53729692101479E-07;-1,62206590175629E-07;100 nA
0,80078125;259,109155345812;1,03759765625E-09;0,79986572265625;7;504;1,53729692101479E-07;-1,62206590175629E-07;100 nA
0,750732421875;259,609643344549;-1,220703125E-10;0,749908447265625;7;505;1,53729692101479E-07;-1,62206590175629E-07;100 nA
0,70068359375;260,110131343285;-9,765625E-10;0,699981689453125;7;506;1,53729692101479E-07;-1,62206590175629E-07;100 nA
0,650634765625;260,610619342021;-1,953125E-09;0,65008544921875;7;507;1,53729692101479E-07;-1,62206590175629E-07;100 nA
0,6005859375;261,111107340758;-2,655029296875E-09;0,6002197265625;7;508;1,53729692101479E-07;-1,62206590175629E-07;100 nA
0,550537109375;261,611595339494;-4,302978515625E-09;0,5501708984375;7;509;1,53729692101479E-07;-1,62206590175629E-07;100 nA
0,50048828125;262,112083338231;-5,889892578125E-09;0,500213623046875;7;510;1,53729692101479E-07;-1,62206590175629E-07;100 nA
0,450439453125;262,612571336967;-7,049560546875E-09;0,4501953125;7;511;1,53729692101479E-07;-1,62206590175629E-07;100 nA
0,400390625;263,113059335703;-6,40869140625E-09;0,400115966796875;7;512;1,53729692101479E-07;-1,62206590175629E-07;100 nA
0,350341796875;263,61354733444;-5,67626953125E-09;0,350128173828125;7;513;1,53729692101479E-07;-1,62206590175629E-07;100 nA
0,30029296875;264,114035333176;-5,79833984375E-09;0,300140380859375;7;514;1,53729692101479E-07;-1,62206590175629E-07;100 nA
0,250244140625;264,614523331913;-6,256103515625E-09;0,25006103515625;7;515;1,53729692101479E-07;-1,62206590175629E-07;100 nA
0,2001953125;265,115011330649;-6,591796875E-09;0,200164794921875;7;516;1,53729692101479E-07;-1,62206590175629E-07;100 nA
0,150146484375;265,615499329385;-6,8359375E-09;0,15008544921875;7;517;1,53729692101479E-07;-1,62206590175629E-07;100 nA
0,10009765625;266,115987328122;-7,598876953125E-09;0,10009765625;7;518;1,53729692101479E-07;-1,62206590175629E-07;100 nA
0,050048828125;266,616475326858;-8,026123046875E-09;0,05010986328125;7;519;1,53729692101479E-07;-1,62206590175629E-07;100 nA
0;267,116963325595;-8,72802734375E-09;0,000128173828124994;7;520;1,53729692101479E-07;-1,62206590175629E-07;100 nA
-0,050048828125;267,617451324331;-9,307861328125E-09;-0,0498046875;7;521;1,53729692101479E-07;-1,62206590175629E-07;100 nA
-0,10009765625;268,117939323067;-9,735107421875E-09;-0,099700927734375;7;522;1,53729692101479E-07;-1,62206590175629E-07;100 nA
-0,150146484375;268,618427321804;-1,007080078125E-08;-0,149566650390625;7;523;1,53729692101479E-07;-1,62206590175629E-07;100 nA
-0,2001953125;269,11891532054;-1,0284423828125E-08;-0,199462890625;7;524;1,53729692101479E-07;-1,62206590175629E-07;100 nA
-0,250244140625;269,619403319276;-1,043701171875E-08;-0,249359130859375;7;525;1,53729692101479E-07;-1,62206590175629E-07;100 nA
-0,30029296875;270,119891318013;-1,0589599609375E-08;-0,299224853515625;7;526;1,53729692101479E-07;-1,62206590175629E-07;100 nA
-0,350341796875;270,620379316749;-1,0833740234375E-08;-0,3492431640625;7;527;1,53729692101479E-07;-1,62206590175629E-07;100 nA
-0,400390625;271,120867315486;-1,129150390625E-08;-0,399078369140625;7;528;1,53729692101479E-07;-1,62206590175629E-07;100 nA
-0,450439453125;271,621355314222;-1,1627197265625E-08;-0,448974609375;7;529;1,53729692101479E-07;-1,62206590175629E-07;100 nA
-0,50048828125;272,121843312958;-1,1962890625E-08;-0,498870849609375;7;530;1,53729692101479E-07;-1,62206590175629E-07;100 nA
-0,550537109375;272,622331311695;-1,2481689453125E-08;-0,548828125;7;531;1,53729692101479E-07;-1,62206590175629E-07;100 nA
-0,6005859375;273,122819310431;-1,1749267578125E-08;-0,59869384765625;7;532;1,53729692101479E-07;-1,62206590175629E-07;100 nA
-0,650634765625;273,623307309168;-1,031494140625E-08;-0,648590087890625;7;533;1,53729692101479E-07;-1,62206590175629E-07;100 nA
-0,70068359375;274,123795307904;-9,765625E-09;-0,698638916015625;7;534;1,53729692101479E-07;-1,62206590175629E-07;100 nA
-0,750732421875;274,62428330664;-9,765625E-09;-0,7486572265625;7;535;1,53729692101479E-07;-1,62206590175629E-07;100 nA
-0,80078125;275,124771305377;-1,03759765625E-08;-0,79864501953125;7;536;1,53729692101479E-07;-1,62206590175629E-07;100 nA
-0,850830078125;275,625259304113;-1,104736328125E-08;-0,84869384765625;7;537;1,53729692101479E-07;-1,62206590175629E-07;100 nA
-0,90087890625;276,12574730285;-1,1871337890625E-08;-0,8990478515625;7;538;1,53729692101479E-07;-1,62206590175629E-07;100 nA
-0,950927734375;276,626235301586;-1,30615234375E-08;-0,9490966796875;7;539;1,53729692101479E-07;-1,62206590175629E-07;100 nA
-1,0009765625;277,126723300322;-1,46484375E-08;-0,99884033203125;7;540;1,53729692101479E-07;-1,62206590175629E-07;100 nA
-0,950927734375;277,627211299059;-8,36181640625E-09;-0,948486328125;7;541;1,53729692101479E-07;-1,62206590175629E-07;100 nA
-0,90087890625;278,127699297795;-4,791259765625E-09;-0,8990478515625;7;542;1,53729692101479E-07;-1,62206590175629E-07;100 nA
-0,850830078125;278,628187296531;-2,716064453125E-09;-0,8489990234375;7;543;1,53729692101479E-07;-1,62206590175629E-07;100 nA
-0,80078125;279,128675295268;-9,765625E-10;-0,79864501953125;7;544;1,53729692101479E-07;-1,62206590175629E-07;100 nA
-0,750732421875;279,629163294004;-6,103515625E-11;-0,748565673828125;7;545;1,53729692101479E-07;-1,62206590175629E-07;100 nA
-0,70068359375;280,129651292741;1,129150390625E-09;-0,698516845703125;7;546;1,53729692101479E-07;-1,62206590175629E-07;100 nA
-0,650634765625;280,630139291477;1,8310546875E-09;-0,6485595703125;7;547;1,53729692101479E-07;-1,62206590175629E-07;100 nA
-0,6005859375;281,130627290213;4,180908203125E-09;-0,5986328125;7;548;1,53729692101479E-07;-1,62206590175629E-07;100 nA
-0,550537109375;281,63111528895;-1,0986328125E-09;-0,548675537109375;7;549;1,53729692101479E-07;-1,62206590175629E-07;100 nA
-0,50048828125;282,131603287686;3,204345703125E-09;-0,49884033203125;7;550;1,53729692101479E-07;-1,62206590175629E-07;100 nA
-0,450439453125;282,632091286423;6,622314453125E-09;-0,448974609375;7;551;1,53729692101479E-07;-1,62206590175629E-07;100 nA
-0,400390625;283,132579285159;6,7138671875E-09;-0,3990478515625;7;552;1,53729692101479E-07;-1,62206590175629E-07;100 nA
-0,350341796875;283,633067283895;7,354736328125E-09;-0,34918212890625;7;553;1,53729692101479E-07;-1,62206590175629E-07;100 nA
-0,30029296875;284,133555282632;6,561279296875E-09;-0,299285888671875;7;554;1,53729692101479E-07;-1,62206590175629E-07;100 nA
-0,250244140625;284,634043281368;7,049560546875E-09;-0,249237060546875;7;555;1,53729692101479E-07;-1,62206590175629E-07;100 nA
-0,2001953125;285,134531280105;7,2021484375E-09;-0,199462890625;7;556;1,53729692101479E-07;-1,62206590175629E-07;100 nA
-0,150146484375;285,635019278841;7,2021484375E-09;-0,14959716796875;7;557;1,53729692101479E-07;-1,62206590175629E-07;100 nA
-0,10009765625;286,135507277577;7,598876953125E-09;-0,09967041015625;7;558;1,53729692101479E-07;-1,62206590175629E-07;100 nA
-0,050048828125;286,635995276314;7,843017578125E-09;-0,0497222900390625;7;559;1,53729692101479E-07;-1,62206590175629E-07;100 nA
0;287,13648327505;8,514404296875E-09;0,000155639648437497;7;560;1,53729692101479E-07;-1,62206590175629E-07;100 nA
0,050048828125;287,636971273786;8,6669921875E-09;0,050140380859375;8;561;1,54432281851768E-07;-1,59304589033127E-07;100 nA
0,10009765625;288,137459272523;8,6669921875E-09;0,10009765625;8;562;1,54432281851768E-07;-1,59304589033127E-07;100 nA
0,150146484375;288,637947271259;9,1552734375E-09;0,15008544921875;8;563;1,54432281851768E-07;-1,59304589033127E-07;100 nA
0,2001953125;289,138435269996;8,9111328125E-09;0,20013427734375;8;564;1,54432281851768E-07;-1,59304589033127E-07;100 nA
0,250244140625;289,638923268732;9,27734375E-09;0,250091552734375;8;565;1,54432281851768E-07;-1,59304589033127E-07;100 nA
0,30029296875;290,139411267468;9,552001953125E-09;0,30010986328125;8;566;1,54432281851768E-07;-1,59304589033127E-07;100 nA
0,350341796875;290,639899266205;9,6435546875E-09;0,35015869140625;8;567;1,54432281851768E-07;-1,59304589033127E-07;100 nA
0,400390625;291,140387264941;9,765625E-09;0,400177001953125;8;568;1,54432281851768E-07;-1,59304589033127E-07;100 nA
0,450439453125;291,640875263678;9,8876953125E-09;0,4500732421875;8;569;1,54432281851768E-07;-1,59304589033127E-07;100 nA
0,50048828125;292,141363262414;1,0345458984375E-08;0,500091552734375;8;570;1,54432281851768E-07;-1,59304589033127E-07;100 nA
0,550537109375;292,64185126115;1,20849609375E-08;0,55010986328125;8;571;1,54432281851768E-07;-1,59304589033127E-07;100 nA
0,6005859375;293,142339259887;1,1138916015625E-08;0,600067138671875;8;572;1,54432281851768E-07;-1,59304589033127E-07;100 nA
0,650634765625;293,642827258623;1,0894775390625E-08;0,649993896484375;8;573;1,54432281851768E-07;-1,59304589033127E-07;100 nA
0,70068359375;294,14331525736;1,07421875E-08;0,6998291015625;8;574;1,54432281851768E-07;-1,59304589033127E-07;100 nA
0,750732421875;294,643803256096;1,11083984375E-08;0,749755859375;8;575;1,54432281851768E-07;-1,59304589033127E-07;100 nA
0,80078125;295,144291254832;1,1474609375E-08;0,79986572265625;8;576;1,54432281851768E-07;-1,59304589033127E-07;100 nA
0,850830078125;295,644779253569;1,1932373046875E-08;0,84991455078125;8;577;1,54432281851768E-07;-1,59304589033127E-07;100 nA
0,90087890625;296,145267252305;1,2481689453125E-08;0,899658203125;8;578;1,54432281851768E-07;-1,59304589033127E-07;100 nA
0,950927734375;296,645755251041;1,3214111328125E-08;0,95001220703125;8;579;1,54432281851768E-07;-1,59304589033127E-07;100 nA
1,0009765625;297,146243249778;1,4373779296875E-08;0,99945068359375;8;580;1,54432281851768E-07;-1,59304589033127E-07;100 nA
0,950927734375;297,646731248514;7,904052734375E-09;0,94970703125;8;581;1,54432281851768E-07;-1,59304589033127E-07;100 nA
0,90087890625;298,147219247251;4,150390625E-09;0,899658203125;8;582;1,54432281851768E-07;-1,59304589033127E-07;100 nA
0,850830078125;298,647707245987;1,8310546875E-09;0,8502197265625;8;583;1,54432281851768E-07;-1,59304589033127E-07;100 nA
0,80078125;299,148195244723;6,40869140625E-10;0,8001708984375;8;584;1,54432281851768E-07;-1,59304589033127E-07;100 nA
0,750732421875;299,64868324346;-8,85009765625E-10;0,749725341796875;8;585;1,54432281851768E-07;-1,59304589033127E-07;100 nA
0,70068359375;300,149171242196;-1,678466796875E-09;0,6998291015625;8;586;1,54432281851768E-07;-1,59304589033127E-07;100 nA
0,650634765625;300,649659240933;-2,3193359375E-09;0,64996337890625;8;587;1,54432281851768E-07;-1,59304589033127E-07;100 nA
0,6005859375;301,150147239669;-3,204345703125E-09;0,599945068359375;8;588;1,54432281851768E-07;-1,59304589033127E-07;100 nA
0,550537109375;301,650635238405;-4,852294921875E-09;0,550018310546875;8;589;1,54432281851768E-07;-1,59304589033127E-07;100 nA
0,50048828125;302,151123237142;-6,317138671875E-09;0,499969482421875;8;590;1,54432281851768E-07;-1,59304589033127E-07;100 nA
0,450439453125;302,651611235878;-7,232666015625E-09;0,450042724609375;8;591;1,54432281851768E-07;-1,59304589033127E-07;100 nA
0,400390625;303,152099234615;-6,89697265625E-09;0,400054931640625;8;592;1,54432281851768E-07;-1,59304589033127E-07;100 nA
0,350341796875;303,652587233351;-6,011962890625E-09;0,35009765625;8;593;1,54432281851768E-07;-1,59304589033127E-07;100 nA
0,30029296875;304,153075232087;-6,04248046875E-09;0,300018310546875;8;594;1,54432281851768E-07;-1,59304589033127E-07;100 nA
0,250244140625;304,653563230824;-6,16455078125E-09;0,250091552734375;8;595;1,54432281851768E-07;-1,59304589033127E-07;100 nA
0,2001953125;305,15405122956;-6,683349609375E-09;0,200042724609375;8;596;1,54432281851768E-07;-1,59304589033127E-07;100 nA
0,150146484375;305,654539228296;-7,110595703125E-09;0,1500244140625;8;597;1,54432281851768E-07;-1,59304589033127E-07;100 nA
0,10009765625;306,155027227033;-7,598876953125E-09;0,10009765625;8;598;1,54432281851768E-07;-1,59304589033127E-07;100 nA
0,050048828125;306,655515225769;-7,9345703125E-09;0,050140380859375;8;599;1,54432281851768E-07;-1,59304589033127E-07;100 nA
0;307,156003224506;-8,85009765625E-09;0,0001373291015625;8;600;1,54432281851768E-07;-1,59304589033127E-07;100 nA
-0,050048828125;307,656491223242;-9,307861328125E-09;-0,0497283935546875;8;601;1,54432281851768E-07;-1,59304589033127E-07;100 nA
-0,10009765625;308,156979221978;-9,552001953125E-09;-0,09967041015625;8;602;1,54432281851768E-07;-1,59304589033127E-07;100 nA
-0,150146484375;308,657467220715;-9,8876953125E-09;-0,1495361328125;8;603;1,54432281851768E-07;-1,59304589033127E-07;100 nA
-0,2001953125;309,157955219451;-1,0101318359375E-08;-0,19940185546875;8;604;1,54432281851768E-07;-1,59304589033127E-07;100 nA
-0,250244140625;309,658443218188;-1,0223388671875E-08;-0,249267578125;8;605;1,54432281851768E-07;-1,59304589033127E-07;100 nA
-0,30029296875;310,158931216924;-1,03759765625E-08;-0,2991943359375;8;606;1,54432281851768E-07;-1,59304589033127E-07;100 nA
-0,350341796875;310,65941921566;-1,055908203125E-08;-0,349151611328125;8;607;1,54432281851768E-07;-1,59304589033127E-07;100 nA
-0,400390625;311,159907214397;-1,0894775390625E-08;-0,399017333984375;8;608;1,54432281851768E-07;-1,59304589033127E-07;100 nA
-0,450439453125;311,660395213133;-1,13525390625E-08;-0,448883056640625;8;609;1,54432281851768E-07;-1,59304589033127E-07;100 nA
-0,50048828125;312,16088321187;-1,165771484375E-08;-0,498809814453125;8;610;1,54432281851768E-07;-1,59304589033127E-07;100 nA
-0,550537109375;312,661371210606;-1,2054443359375E-08;-0,5487060546875;8;611;1,54432281851768E-07;-1,59304589033127E-07;100 nA
-0,6005859375;313,161859209342;-1,1322021484375E-08;-0,598602294921875;8;612;1,54432281851768E-07;-1,59304589033127E-07;100 nA
-0,650634765625;313,662347208079;-9,307861328125E-09;-0,648468017578125;8;613;1,54432281851768E-07;-1,59304589033127E-07;100 nA
-0,70068359375;314,162835206815;-8,72802734375E-09;-0,698455810546875;8;614;1,54432281851768E-07;-1,59304589033127E-07;100 nA
-0,750732421875;314,663323205551;-9,09423828125E-09;-0,748504638671875;8;615;1,54432281851768E-07;-1,59304589033127E-07;100 nA
-0,80078125;315,163811204288;-9,429931640625E-09;-0,79833984375;8;616;1,54432281851768E-07;-1,59304589033127E-07;100 nA
-0,850830078125;315,664299203024;-1,03759765625E-08;-0,84869384765625;8;617;1,54432281851768E-07;-1,59304589033127E-07;100 nA
-0,90087890625;316,164787201761;-1,116943359375E-08;-0,89874267578125;8;618;1,54432281851768E-07;-1,59304589033127E-07;100 nA
-0,950927734375;316,665275200497;-1,2542724609375E-08;-0,9490966796875;8;619;1,54432281851768E-07;-1,59304589033127E-07;100 nA
-1,0009765625;317,165763199233;-1,4251708984375E-08;-0,99822998046875;8;620;1,54432281851768E-07;-1,59304589033127E-07;100 nA
-0,950927734375;317,66625119797;-8,087158203125E-09;-0,9490966796875;8;621;1,54432281851768E-07;-1,59304589033127E-07;100 nA
-0,90087890625;318,166739196706;-4,608154296875E-09;-0,89874267578125;8;622;1,54432281851768E-07;-1,59304589033127E-07;100 nA
-0,850830078125;318,667227195443;-2,593994140625E-09;-0,8489990234375;8;623;1,54432281851768E-07;-1,59304589033127E-07;100 nA
-0,80078125;319,167715194179;-1,03759765625E-09;-0,79864501953125;8;624;1,54432281851768E-07;-1,59304589033127E-07;100 nA
-0,750732421875;319,668203192915;6,103515625E-11;-0,74859619140625;8;625;1,54432281851768E-07;-1,59304589033127E-07;100 nA
-0,70068359375;320,168691191652;7,9345703125E-10;-0,6986083984375;8;626;1,54432281851768E-07;-1,59304589033127E-07;100 nA
-0,650634765625;320,669179190388;1,64794921875E-09;-0,64862060546875;8;627;1,54432281851768E-07;-1,59304589033127E-07;100 nA
-0,6005859375;321,169667189125;2,349853515625E-09;-0,598663330078125;8;628;1,54432281851768E-07;-1,59304589033127E-07;100 nA
-0,550537109375;321,670155187861;3,5400390625E-09;-0,54876708984375;8;629;1,54432281851768E-07;-1,59304589033127E-07;100 nA
-0,50048828125;322,170643186597;4,8828125E-09;-0,49884033203125;8;630;1,54432281851768E-07;-1,59304589033127E-07;100 nA
-0,450439453125;322,671131185334;6,134033203125E-09;-0,448974609375;8;631;1,54432281851768E-07;-1,59304589033127E-07;100 nA
-0,400390625;323,17161918407;6,500244140625E-09;-0,39910888671875;8;632;1,54432281851768E-07;-1,59304589033127E-07;100 nA
-0,350341796875;323,672107182806;6,65283203125E-09;-0,349212646484375;8;633;1,54432281851768E-07;-1,59304589033127E-07;100 nA
-0,30029296875;324,172595181543;6,561279296875E-09;-0,299285888671875;8;634;1,54432281851768E-07;-1,59304589033127E-07;100 nA
-0,250244140625;324,673083180279;6,4697265625E-09;-0,24945068359375;8;635;1,54432281851768E-07;-1,59304589033127E-07;100 nA
-0,2001953125;325,173571179016;6,439208984375E-09;-0,19952392578125;8;636;1,54432281851768E-07;-1,59304589033127E-07;100 nA
-0,150146484375;325,674059177752;6,9580078125E-09;-0,149658203125;8;637;1,54432281851768E-07;-1,59304589033127E-07;100 nA
-0,10009765625;326,174547176488;6,89697265625E-09;-0,099761962890625;8;638;1,54432281851768E-07;-1,59304589033127E-07;100 nA
-0,050048828125;326,675035175225;7,354736328125E-09;-0,0499267578125;8;639;1,54432281851768E-07;-1,59304589033127E-07;100 nA
0;327,175523173961;7,476806640625E-09;0,000128173828124994;8;640;1,54432281851768E-07;-1,59304589033127E-07;100 nA
0,050048828125;327,676011172698;7,598876953125E-09;0,050018310546875;9;641;1,51117891073227E-07;-1,56570598483086E-07;100 nA
0,10009765625;328,176499171434;7,781982421875E-09;0,099945068359375;9;642;1,51117891073227E-07;-1,56570598483086E-07;100 nA
0,150146484375;328,67698717017;8,087158203125E-09;0,14990234375;9;643;1,51117891073227E-07;-1,56570598483086E-07;100 nA
0,2001953125;329,177475168907;8,1787109375E-09;0,199920654296875;9;644;1,51117891073227E-07;-1,56570598483086E-07;100 nA
0,250244140625;329,677963167643;8,575439453125E-09;0,249969482421875;9;645;1,51117891073227E-07;-1,56570598483086E-07;100 nA
0,30029296875;330,17845116638;8,6669921875E-09;0,29998779296875;9;646;1,51117891073227E-07;-1,56570598483086E-07;100 nA
0,350341796875;330,678939165116;8,9111328125E-09;0,35003662109375;9;647;1,51117891073227E-07;-1,56570598483086E-07;100 nA
0,400390625;331,179427163852;9,063720703125E-09;0,399993896484375;9;648;1,51117891073227E-07;-1,56570598483086E-07;100 nA
0,450439453125;331,679915162589;9,21630859375E-09;0,449951171875;9;649;1,51117891073227E-07;-1,56570598483086E-07;100 nA
0,50048828125;332,180403161325;1,007080078125E-08;0,5;9;650;1,51117891073227E-07;-1,56570598483086E-07;100 nA
0,550537109375;332,680891160061;1,01318359375E-08;0,550018310546875;9;651;1,51117891073227E-07;-1,56570598483086E-07;100 nA
0,6005859375;333,181379158798;1,15966796875E-08;0,600067138671875;9;652;1,51117891073227E-07;-1,56570598483086E-07;100 nA
0,650634765625;333,681867157534;1,11083984375E-08;0,6500244140625;9;653;1,51117891073227E-07;-1,56570598483086E-07;100 nA
0,70068359375;334,182355156271;1,0406494140625E-08;0,699920654296875;9;654;1,51117891073227E-07;-1,56570598483086E-07;100 nA
0,750732421875;334,682843155007;1,1810302734375E-08;0,74981689453125;9;655;1,51117891073227E-07;-1,56570598483086E-07;100 nA
0,80078125;335,183331153743;1,165771484375E-08;0,799560546875;9;656;1,51117891073227E-07;-1,56570598483086E-07;100 nA
0,850830078125;335,68381915248;1,202392578125E-08;0,84991455078125;9;657;1,51117891073227E-07;-1,56570598483086E-07;100 nA
0,90087890625;336,184307151216;1,23291015625E-08;0,89996337890625;9;658;1,51117891073227E-07;-1,56570598483086E-07;100 nA
0,950927734375;336,684795149953;1,4862060546875E-08;0,94940185546875;9;659;1,51117891073227E-07;-1,56570598483086E-07;100 nA
1,0009765625;337,185283148689;1,5594482421875E-08;1,00006103515625;9;660;1,51117891073227E-07;-1,56570598483086E-07;100 nA
0,950927734375;337,685771147425;8,6669921875E-09;0,94970703125;9;661;1,51117891073227E-07;-1,56570598483086E-07;100 nA
0,90087890625;338,186259146162;4,425048828125E-09;0,899658203125;9;662;1,51117891073227E-07;-1,56570598483086E-07;100 nA
0,850830078125;338,686747144898;2,685546875E-09;0,84991455078125;9;663;1,51117891073227E-07;-1,56570598483086E-07;100 nA
0,80078125;339,187235143635;8,85009765625E-10;0,79986572265625;9;664;1,51117891073227E-07;-1,56570598483086E-07;100 nA
0,750732421875;339,687723142371;0;0,74981689453125;9;665;1,51117891073227E-07;-1,56570598483086E-07;100 nA
0,70068359375;340,188211141107;-1,068115234375E-09;0,699981689453125;9;666;1,51117891073227E-07;-1,56570598483086E-07;100 nA
0,650634765625;340,688699139844;-2,0751953125E-09;0,6500244140625;9;667;1,51117891073227E-07;-1,56570598483086E-07;100 nA
0,6005859375;341,18918713858;-2,899169921875E-09;0,60009765625;9;668;1,51117891073227E-07;-1,56570598483086E-07;100 nA
0,550537109375;341,689675137317;-4,364013671875E-09;0,550140380859375;9;669;1,51117891073227E-07;-1,56570598483086E-07;100 nA
0,50048828125;342,190163136053;-6,103515625E-09;0,500152587890625;9;670;1,51117891073227E-07;-1,56570598483086E-07;100 nA
0,450439453125;342,690651134789;-7,171630859375E-09;0,450164794921875;9;671;1,51117891073227E-07;-1,56570598483086E-07;100 nA
0,400390625;343,191139133526;-6,591796875E-09;0,400177001953125;9;672;1,51117891073227E-07;-1,56570598483086E-07;100 nA
0,350341796875;343,691627132262;-5,706787109375E-09;0,350189208984375;9;673;1,51117891073227E-07;-1,56570598483086E-07;100 nA
0,30029296875;344,192115130998;-5,584716796875E-09;0,300140380859375;9;674;1,51117891073227E-07;-1,56570598483086E-07;100 nA
0,250244140625;344,692603129735;-5,706787109375E-09;0,250152587890625;9;675;1,51117891073227E-07;-1,56570598483086E-07;100 nA
0,2001953125;345,193091128471;-6,65283203125E-09;0,20013427734375;9;676;1,51117891073227E-07;-1,56570598483086E-07;100 nA
0,150146484375;345,693579127208;-7,354736328125E-09;0,15008544921875;9;677;1,51117891073227E-07;-1,56570598483086E-07;100 nA
0,10009765625;346,194067125944;-7,2021484375E-09;0,100128173828125;9;678;1,51117891073227E-07;-1,56570598483086E-07;100 nA
0,050048828125;346,69455512468;-9,368896484375E-09;0,0501708984375;9;679;1,51117891073227E-07;-1,56570598483086E-07;100 nA
0;347,195043123417;-8,11767578125E-09;0,000131225585937506;9;680;1,51117891073227E-07;-1,56570598483086E-07;100 nA
-0,050048828125;347,695531122153;-8,575439453125E-09;-0,04970703125;9;681;1,51117891073227E-07;-1,56570598483086E-07;100 nA
-0,10009765625;348,19601912089;-8,148193359375E-09;-0,099609375;9;682;1,51117891073227E-07;-1,56570598483086E-07;100 nA
-0,150146484375;348,696507119626;-9,552001953125E-09;-0,149444580078125;9;683;1,51117891073227E-07;-1,56570598483086E-07;100 nA
-0,2001953125;349,196995118362;-9,8876953125E-09;-0,199432373046875;9;684;1,51117891073227E-07;-1,56570598483086E-07;100 nA
-0,250244140625;349,697483117099;-9,857177734375E-09;-0,249267578125;9;685;1,51117891073227E-07;-1,56570598483086E-07;100 nA
-0,30029296875;350,197971115835;-1,007080078125E-08;-0,299224853515625;9;686;1,51117891073227E-07;-1,56570598483086E-07;100 nA
-0,350341796875;350,698459114572;-1,0284423828125E-08;-0,34906005859375;9;687;1,51117891073227E-07;-1,56570598483086E-07;100 nA
-0,400390625;351,198947113308;-1,0650634765625E-08;-0,399017333984375;9;688;1,51117891073227E-07;-1,56570598483086E-07;100 nA
-0,450439453125;351,699435112044;-1,1077880859375E-08;-0,44891357421875;9;689;1,51117891073227E-07;-1,56570598483086E-07;100 nA
-0,50048828125;352,199923110781;-1,141357421875E-08;-0,498779296875;9;690;1,51117891073227E-07;-1,56570598483086E-07;100 nA
-0,550537109375;352,700411109517;-1,2054443359375E-08;-0,5487060546875;9;691;1,51117891073227E-07;-1,56570598483086E-07;100 nA
-0,6005859375;353,200899108253;-1,1260986328125E-08;-0,59857177734375;9;692;1,51117891073227E-07;-1,56570598483086E-07;100 nA
-0,650634765625;353,70138710699;-9,490966796875E-09;-0,6485595703125;9;693;1,51117891073227E-07;-1,56570598483086E-07;100 nA
-0,70068359375;354,201875105726;-9,246826171875E-09;-0,698577880859375;9;694;1,51117891073227E-07;-1,56570598483086E-07;100 nA
-0,750732421875;354,702363104463;-9,429931640625E-09;-0,74853515625;9;695;1,51117891073227E-07;-1,56570598483086E-07;100 nA
-0,80078125;355,202851103199;-9,94873046875E-09;-0,79864501953125;9;696;1,51117891073227E-07;-1,56570598483086E-07;100 nA
-0,850830078125;355,703339101935;-1,0589599609375E-08;-0,84869384765625;9;697;1,51117891073227E-07;-1,56570598483086E-07;100 nA
-0,90087890625;356,203827100672;-1,1505126953125E-08;-0,8990478515625;9;698;1,51117891073227E-07;-1,56570598483086E-07;100 nA
-0,950927734375;356,704315099408;-1,263427734375E-08;-0,9490966796875;9;699;1,51117891073227E-07;-1,56570598483086E-07;100 nA
-1,0009765625;357,204803098145;-1,42822265625E-08;-0,99853515625;9;700;1,51117891073227E-07;-1,56570598483086E-07;100 nA
-0,950927734375;357,705291096881;-8,1787109375E-09;-0,948486328125;9;701;1,51117891073227E-07;-1,56570598483086E-07;100 nA
-0,90087890625;358,205779095617;-4,69970703125E-09;-0,89874267578125;9;702;1,51117891073227E-07;-1,56570598483086E-07;100 nA
-0,850830078125;358,706267094354;-2,685546875E-09;-0,848388671875;9;703;1,51117891073227E-07;-1,56570598483086E-07;100 nA
-0,80078125;359,20675509309;-1,3427734375E-09;-0,79864501953125;9;704;1,51117891073227E-07;-1,56570598483086E-07;100 nA
-0,750732421875;359,707243091827;0;-0,748565673828125;9;705;1,51117891073227E-07;-1,56570598483086E-07;100 nA
-0,70068359375;360,207731090563;8,544921875E-10;-0,698577880859375;9;706;1,51117891073227E-07;-1,56570598483086E-07;100 nA
-0,650634765625;360,708219089299;1,40380859375E-09;-0,64862060546875;9;707;1,51117891073227E-07;-1,56570598483086E-07;100 nA
-0,6005859375;361,208707088036;2,288818359375E-09;-0,598663330078125;9;708;1,51117891073227E-07;-1,56570598483086E-07;100 nA
-0,550537109375;361,709195086772;3,41796875E-09;-0,54876708984375;9;709;1,51117891073227E-07;-1,56570598483086E-07;100 nA
-0,50048828125;362,209683085508;4,69970703125E-09;-0,498870849609375;9;710;1,51117891073227E-07;-1,56570598483086E-07;100 nA
-0,450439453125;362,710171084245;5,828857421875E-09;-0,448944091796875;9;711;1,51117891073227E-07;-1,56570598483086E-07;100 nA
-0,400390625;363,210659082981;6,011962890625E-09;-0,399200439453125;9;712;1,51117891073227E-07;-1,56570598483086E-07;100 nA
-0,350341796875;363,711147081718;6,011962890625E-09;-0,349365234375;9;713;1,51117891073227E-07;-1,56570598483086E-07;100 nA
-0,30029296875;364,211635080454;6,011962890625E-09;-0,299407958984375;9;714;1,51117891073227E-07;-1,56570598483086E-07;100 nA
-0,250244140625;364,71212307919;6,04248046875E-09;-0,249542236328125;9;715;1,51117891073227E-07;-1,56570598483086E-07;100 nA
-0,2001953125;365,212611077927;6,256103515625E-09;-0,199615478515625;9;716;1,51117891073227E-07;-1,56570598483086E-07;100 nA
-0,150146484375;365,713099076663;6,927490234375E-09;-0,14971923828125;9;717;1,51117891073227E-07;-1,56570598483086E-07;100 nA
-0,10009765625;366,2135870754;6,89697265625E-09;-0,099853515625;9;718;1,51117891073227E-07;-1,56570598483086E-07;100 nA
-0,050048828125;366,714075074136;7,232666015625E-09;-0,04986572265625;9;719;1,51117891073227E-07;-1,56570598483086E-07;100 nA
0;367,214563072872;7,720947265625E-09;0,000115966796875006;9;720;1,51117891073227E-07;-1,56570598483086E-07;100 nA
0,050048828125;367,715051071609;7,99560546875E-09;0,050079345703125;10;721;1,51102617383003E-07;-1,58693641424179E-07;100 nA
0,10009765625;368,215539070345;8,23974609375E-09;0,10003662109375;10;722;1,51102617383003E-07;-1,58693641424179E-07;100 nA
0,150146484375;368,716027069082;8,48388671875E-09;0,15008544921875;10;723;1,51102617383003E-07;-1,58693641424179E-07;100 nA
0,2001953125;369,216515067818;8,72802734375E-09;0,2000732421875;10;724;1,51102617383003E-07;-1,58693641424179E-07;100 nA
0,250244140625;369,717003066554;8,97216796875E-09;0,25006103515625;10;725;1,51102617383003E-07;-1,58693641424179E-07;100 nA
0,30029296875;370,217491065291;9,21630859375E-09;0,300079345703125;10;726;1,51102617383003E-07;-1,58693641424179E-07;100 nA
0,350341796875;370,717979064027;9,307861328125E-09;0,35009765625;10;727;1,51102617383003E-07;-1,58693641424179E-07;100 nA
0,400390625;371,218467062763;9,552001953125E-09;0,400115966796875;10;728;1,51102617383003E-07;-1,58693641424179E-07;100 nA
0,450439453125;371,7189550615;9,674072265625E-09;0,450103759765625;10;729;1,51102617383003E-07;-1,58693641424179E-07;100 nA
0,50048828125;372,219443060236;1,055908203125E-08;0,5001220703125;10;730;1,51102617383003E-07;-1,58693641424179E-07;100 nA
0,550537109375;372,719931058973;1,214599609375E-08;0,55010986328125;10;731;1,51102617383003E-07;-1,58693641424179E-07;100 nA
0,6005859375;373,220419057709;1,1077880859375E-08;0,600067138671875;10;732;1,51102617383003E-07;-1,58693641424179E-07;100 nA
0,650634765625;373,720907056445;1,1077880859375E-08;0,650054931640625;10;733;1,51102617383003E-07;-1,58693641424179E-07;100 nA
0,70068359375;374,221395055182;1,11083984375E-08;0,699920654296875;10;734;1,51102617383003E-07;-1,58693641424179E-07;100 nA
0,750732421875;374,721883053918;1,1444091796875E-08;0,7498779296875;10;735;1,51102617383003E-07;-1,58693641424179E-07;100 nA
0,80078125;375,222371052655;1,165771484375E-08;0,79986572265625;10;736;1,51102617383003E-07;-1,58693641424179E-07;100 nA
0,850830078125;375,722859051391;1,239013671875E-08;0,84991455078125;10;737;1,51102617383003E-07;-1,58693641424179E-07;100 nA
0,90087890625;376,223347050127;1,2847900390625E-08;0,899658203125;10;738;1,51102617383003E-07;-1,58693641424179E-07;100 nA
0,950927734375;376,723835048864;1,373291015625E-08;0,94970703125;10;739;1,51102617383003E-07;-1,58693641424179E-07;100 nA
1,0009765625;377,2243230476;1,0009765625E-08;0,99945068359375;10;740;1,51102617383003E-07;-1,58693641424179E-07;100 nA
0,950927734375;377,724811046337;8,148193359375E-09;0,94940185546875;10;741;1,51102617383003E-07;-1,58693641424179E-07;100 nA
0,90087890625;378,225299045073;3,021240234375E-09;0,89996337890625;10;742;1,51102617383003E-07;-1,58693641424179E-07;100 nA
0,850830078125;378,725787043809;2,471923828125E-09;0,849609375;10;743;1,51102617383003E-07;-1,58693641424179E-07;100 nA
0,80078125;379,226275042546;9,765625E-10;0,79986572265625;10;744;1,51102617383003E-07;-1,58693641424179E-07;100 nA
0,750732421875;379,726763041282;3,96728515625E-10;0,7498779296875;10;745;1,51102617383003E-07;-1,58693641424179E-07;100 nA
0,70068359375;380,227251040018;-6,103515625E-10;0,699951171875;10;746;1,51102617383003E-07;-1,58693641424179E-07;100 nA
0,650634765625;380,727739038755;5,79833984375E-10;0,65008544921875;10;747;1,51102617383003E-07;-1,58693641424179E-07;100 nA
0,6005859375;381,228227037491;-3,814697265625E-09;0,600128173828125;10;748;1,51102617383003E-07;-1,58693641424179E-07;100 nA
0,550537109375;381,728715036228;-4,852294921875E-09;0,55010986328125;10;749;1,51102617383003E-07;-1,58693641424179E-07;100 nA
0,50048828125;382,229203034964;-6,04248046875E-09;0,5001220703125;10;750;1,51102617383003E-07;-1,58693641424179E-07;100 nA
0,450439453125;382,7296910337;-7,232666015625E-09;0,45013427734375;10;751;1,51102617383003E-07;-1,58693641424179E-07;100 nA
0,400390625;383,230179032437;-6,866455078125E-09;0,40008544921875;10;752;1,51102617383003E-07;-1,58693641424179E-07;100 nA
0,350341796875;383,730667031173;-6,134033203125E-09;0,35009765625;10;753;1,51102617383003E-07;-1,58693641424179E-07;100 nA
0,30029296875;384,23115502991;-6,28662109375E-09;0,300079345703125;10;754;1,51102617383003E-07;-1,58693641424179E-07;100 nA
0,250244140625;384,731643028646;-6,40869140625E-09;0,25;10;755;1,51102617383003E-07;-1,58693641424179E-07;100 nA
0,2001953125;385,232131027382;-6,77490234375E-09;0,200042724609375;10;756;1,51102617383003E-07;-1,58693641424179E-07;100 nA
0,150146484375;385,732619026119;-7,293701171875E-09;0,1500244140625;10;757;1,51102617383003E-07;-1,58693641424179E-07;100 nA
0,10009765625;386,233107024855;-7,568359375E-09;0,10009765625;10;758;1,51102617383003E-07;-1,58693641424179E-07;100 nA
0,050048828125;386,733595023592;-8,209228515625E-09;0,050079345703125;10;759;1,51102617383003E-07;-1,58693641424179E-07;100 nA
0;387,234083022328;-9,002685546875E-09;0,000112915039062494;10;760;1,51102617383003E-07;-1,58693641424179E-07;100 nA
-0,050048828125;387,734571021064;-9,33837890625E-09;-0,049835205078125;10;761;1,51102617383003E-07;-1,58693641424179E-07;100 nA
-0,10009765625;388,235059019801;-1,007080078125E-08;-0,0997314453125;10;762;1,51102617383003E-07;-1,58693641424179E-07;100 nA
-0,150146484375;388,735547018537;-1,019287109375E-08;-0,14959716796875;10;763;1,51102617383003E-07;-1,58693641424179E-07;100 nA
-0,2001953125;389,236035017273;-1,0345458984375E-08;-0,1995849609375;10;764;1,51102617383003E-07;-1,58693641424179E-07;100 nA
-0,250244140625;389,73652301601;-1,0589599609375E-08;-0,24945068359375;10;765;1,51102617383003E-07;-1,58693641424179E-07;100 nA
-0,30029296875;390,237011014746;-1,06201171875E-08;-0,299285888671875;10;766;1,51102617383003E-07;-1,58693641424179E-07;100 nA
-0,350341796875;390,737499013483;-1,092529296875E-08;-0,3492431640625;10;767;1,51102617383003E-07;-1,58693641424179E-07;100 nA
-0,400390625;391,237987012219;-1,1077880859375E-08;-0,399078369140625;10;768;1,51102617383003E-07;-1,58693641424179E-07;100 nA
-0,450439453125;391,738475010955;-1,1322021484375E-08;-0,448944091796875;10;769;1,51102617383003E-07;-1,58693641424179E-07;100 nA
-0,50048828125;392,238963009692;-1,18408203125E-08;-0,49884033203125;10;770;1,51102617383003E-07;-1,58693641424179E-07;100 nA
-0,550537109375;392,739451008428;-1,2115478515625E-08;-0,548675537109375;10;771;1,51102617383003E-07;-1,58693641424179E-07;100 nA
-0,6005859375;393,239939007165;-1,116943359375E-08;-0,598602294921875;10;772;1,51102617383003E-07;-1,58693641424179E-07;100 nA
-0,650634765625;393,740427005901;-9,033203125E-09;-0,648529052734375;10;773;1,51102617383003E-07;-1,58693641424179E-07;100 nA
-0,70068359375;394,240915004637;-9,21630859375E-09;-0,698486328125;10;774;1,51102617383003E-07;-1,58693641424179E-07;100 nA
-0,750732421875;394,741403003374;-9,21630859375E-09;-0,748565673828125;10;775;1,51102617383003E-07;-1,58693641424179E-07;100 nA
-0,80078125;395,24189100211;-1,0040283203125E-08;-0,79864501953125;10;776;1,51102617383003E-07;-1,58693641424179E-07;100 nA
-0,850830078125;395,742379000847;-1,0345458984375E-08;-0,8489990234375;10;777;1,51102617383003E-07;-1,58693641424179E-07;100 nA
-0,90087890625;396,242866999583;-1,1199951171875E-08;-0,89874267578125;10;778;1,51102617383003E-07;-1,58693641424179E-07;100 nA
-0,950927734375;396,743354998319;-1,2298583984375E-08;-0,94879150390625;10;779;1,51102617383003E-07;-1,58693641424179E-07;100 nA
-1,0009765625;397,243842997056;-1,35498046875E-08;-0,9991455078125;10;780;1,51102617383003E-07;-1,58693641424179E-07;100 nA
-0,950927734375;397,744330995792;-7,659912109375E-09;-0,94818115234375;10;781;1,51102617383003E-07;-1,58693641424179E-07;100 nA
-0,90087890625;398,244818994528;-4,608154296875E-09;-0,89813232421875;10;782;1,51102617383003E-07;-1,58693641424179E-07;100 nA
-0,850830078125;398,745306993265;-2,288818359375E-09;-0,8489990234375;10;783;1,51102617383003E-07;-1,58693641424179E-07;100 nA
-0,80078125;399,245794992001;-9,1552734375E-10;-0,79833984375;10;784;1,51102617383003E-07;-1,58693641424179E-07;100 nA
-0,750732421875;399,746282990738;1,220703125E-10;-0,748504638671875;10;785;1,51102617383003E-07;-1,58693641424179E-07;100 nA
-0,70068359375;400,246770989474;8,85009765625E-10;-0,6986083984375;10;786;1,51102617383003E-07;-1,58693641424179E-07;100 nA
-0,650634765625;400,74725898821;1,52587890625E-09;-0,648590087890625;10;787;1,51102617383003E-07;-1,58693641424179E-07;100 nA
-0,6005859375;401,247746986947;2,288818359375E-09;-0,598602294921875;10;788;1,51102617383003E-07;-1,58693641424179E-07;100 nA
-0,550537109375;401,748234985683;3,47900390625E-09;-0,548828125;10;789;1,51102617383003E-07;-1,58693641424179E-07;100 nA
-0,50048828125;402,24872298442;4,57763671875E-09;-0,49884033203125;10;790;1,51102617383003E-07;-1,58693641424179E-07;100 nA
-0,450439453125;402,749210983156;5,859375E-09;-0,449005126953125;10;791;1,51102617383003E-07;-1,58693641424179E-07;100 nA
-0,400390625;403,249698981892;6,378173828125E-09;-0,399139404296875;10;792;1,51102617383003E-07;-1,58693641424179E-07;100 nA
-0,350341796875;403,750186980629;6,40869140625E-09;-0,349212646484375;10;793;1,51102617383003E-07;-1,58693641424179E-07;100 nA
-0,30029296875;404,250674979365;6,256103515625E-09;-0,29931640625;10;794;1,51102617383003E-07;-1,58693641424179E-07;100 nA
-0,250244140625;404,751162978102;5,9814453125E-09;-0,24945068359375;10;795;1,51102617383003E-07;-1,58693641424179E-07;100 nA
-0,2001953125;405,251650976838;6,195068359375E-09;-0,199615478515625;10;796;1,51102617383003E-07;-1,58693641424179E-07;100 nA
-0,150146484375;405,752138975574;6,439208984375E-09;-0,1497802734375;10;797;1,51102617383003E-07;-1,58693641424179E-07;100 nA
-0,10009765625;406,252626974311;6,8359375E-09;-0,09979248046875;10;798;1,51102617383003E-07;-1,58693641424179E-07;100 nA
-0,050048828125;406,753114973047;7,293701171875E-09;-0,04986572265625;10;799;1,51102617383003E-07;-1,58693641424179E-07;100 nA
0;407,253602971783;7,568359375E-09;0,000131225585937506;10;800;1,51102617383003E-07;-1,58693641424179E-07;100 nA
