Potential applied (V);Time (s);WE(1).Current (A);WE(1).Potential (V);Scan;Index;Q+;Q-;Current range
0,050048828125;7,40115098131389;3,387451171875E-09;0,050128173828125;1;1;2,40468978881836E-07;-3,36754322052002E-07;100 nA
0,10009765625;7,90163898005028;5,828857421875E-09;0,099945068359375;1;2;2,40468978881836E-07;-3,36754322052002E-07;100 nA
0,150146484375;8,40212697878667;7,904052734375E-09;0,149932861328125;1;3;2,40468978881836E-07;-3,36754322052002E-07;100 nA
0,2001953125;8,90261497752306;9,46044921875E-09;0,20001220703125;1;4;2,40468978881836E-07;-3,36754322052002E-07;100 nA
0,250244140625;9,40310297625945;1,0711669921875E-08;0,250030517578125;1;5;2,40468978881836E-07;-3,36754322052002E-07;100 nA
0,30029296875;9,90359097499584;1,1749267578125E-08;0,300018310546875;1;6;2,40468978881836E-07;-3,36754322052002E-07;100 nA
0,350341796875;10,4040789737322;1,2786865234375E-08;0,350128173828125;1;7;2,40468978881836E-07;-3,36754322052002E-07;100 nA
0,400390625;10,9045669724686;1,348876953125E-08;0,400115966796875;1;8;2,40468978881836E-07;-3,36754322052002E-07;100 nA
0,450439453125;11,405054971205;1,4373779296875E-08;0,45013427734375;1;9;2,40468978881836E-07;-3,36754322052002E-07;100 nA
0,50048828125;11,9055429699414;1,568603515625E-08;0,5001220703125;1;10;2,40468978881836E-07;-3,36754322052002E-07;100 nA
0,550537109375;12,4060309686778;1,654052734375E-08;0,550140380859375;1;11;2,40468978881836E-07;-3,36754322052002E-07;100 nA
0,6005859375;12,9065189674142;1,55029296875E-08;0,600189208984375;1;12;2,40468978881836E-07;-3,36754322052002E-07;100 nA
0,650634765625;13,4070069661506;1,3702392578125E-08;0,65008544921875;1;13;2,40468978881836E-07;-3,36754322052002E-07;100 nA
0,70068359375;13,907494964887;1,3824462890625E-08;0,70001220703125;1;14;2,40468978881836E-07;-3,36754322052002E-07;100 nA
0,750732421875;14,4079829636233;1,47705078125E-08;0,75;1;15;2,40468978881836E-07;-3,36754322052002E-07;100 nA
0,80078125;14,9084709623597;1,4892578125E-08;0,8001708984375;1;16;2,40468978881836E-07;-3,36754322052002E-07;100 nA
0,850830078125;15,4089589610961;1,513671875E-08;0,849609375;1;17;2,40468978881836E-07;-3,36754322052002E-07;100 nA
0,90087890625;15,9094469598325;1,5899658203125E-08;0,89935302734375;1;18;2,40468978881836E-07;-3,36754322052002E-07;100 nA
0,950927734375;16,4099349585689;1,6510009765625E-08;0,94940185546875;1;19;2,40468978881836E-07;-3,36754322052002E-07;100 nA
1,0009765625;16,9104229573053;1,788330078125E-08;0,99945068359375;1;20;2,40468978881836E-07;-3,36754322052002E-07;100 nA
0,950927734375;17,4109109560417;1,0955810546875E-08;0,94940185546875;1;21;2,40468978881836E-07;-3,36754322052002E-07;100 nA
0,90087890625;17,9113989547781;6,53076171875E-09;0,899658203125;1;22;2,40468978881836E-07;-3,36754322052002E-07;100 nA
0,850830078125;18,4118869535145;3,662109375E-09;0,8502197265625;1;23;2,40468978881836E-07;-3,36754322052002E-07;100 nA
0,80078125;18,9123749522508;1,800537109375E-09;0,799560546875;1;24;2,40468978881836E-07;-3,36754322052002E-07;100 nA
0,750732421875;19,4128629509872;3,96728515625E-10;0,749847412109375;1;25;2,40468978881836E-07;-3,36754322052002E-07;100 nA
0,70068359375;19,9133509497236;-8,85009765625E-10;0,69989013671875;1;26;2,40468978881836E-07;-3,36754322052002E-07;100 nA
0,650634765625;20,41383894846;-1,983642578125E-09;0,649993896484375;1;27;2,40468978881836E-07;-3,36754322052002E-07;100 nA
0,6005859375;20,9143269471964;-3,692626953125E-09;0,600006103515625;1;28;2,40468978881836E-07;-3,36754322052002E-07;100 nA
0,550537109375;21,4148149459328;-6,378173828125E-09;0,550048828125;1;29;2,40468978881836E-07;-3,36754322052002E-07;100 nA
0,50048828125;21,9153029446692;-9,58251953125E-09;0,500091552734375;1;30;2,40468978881836E-07;-3,36754322052002E-07;100 nA
0,450439453125;22,4157909434056;-1,1444091796875E-08;0,4500732421875;1;31;2,40468978881836E-07;-3,36754322052002E-07;100 nA
0,400390625;22,916278942142;-1,2603759765625E-08;0,4000244140625;1;32;2,40468978881836E-07;-3,36754322052002E-07;100 nA
0,350341796875;23,4167669408783;-1,30615234375E-08;0,35003662109375;1;33;2,40468978881836E-07;-3,36754322052002E-07;100 nA
0,30029296875;23,9172549396147;-1,28173828125E-08;0,2999267578125;1;34;2,40468978881836E-07;-3,36754322052002E-07;100 nA
0,250244140625;24,4177429383511;-1,3275146484375E-08;0,25;1;35;2,40468978881836E-07;-3,36754322052002E-07;100 nA
0,2001953125;24,9182309370875;-1,385498046875E-08;0,199981689453125;1;36;2,40468978881836E-07;-3,36754322052002E-07;100 nA
0,150146484375;25,4187189358239;-1,4404296875E-08;0,149993896484375;1;37;2,40468978881836E-07;-3,36754322052002E-07;100 nA
0,10009765625;25,9192069345603;-1,5167236328125E-08;0,10009765625;1;38;2,40468978881836E-07;-3,36754322052002E-07;100 nA
0,050048828125;26,4196949332967;-1,6387939453125E-08;0,05010986328125;1;39;2,40468978881836E-07;-3,36754322052002E-07;100 nA
0;26,9201829320331;-1,7364501953125E-08;0,000149536132812503;1;40;2,40468978881836E-07;-3,36754322052002E-07;100 nA
-0,050048828125;27,4206709307695;-1,8402099609375E-08;-0,049700927734375;1;41;2,40468978881836E-07;-3,36754322052002E-07;100 nA
-0,10009765625;27,9211589295059;-1,9378662109375E-08;-0,099639892578125;1;42;2,40468978881836E-07;-3,36754322052002E-07;100 nA
-0,150146484375;28,4216469282422;-2,0355224609375E-08;-0,149505615234375;1;43;2,40468978881836E-07;-3,36754322052002E-07;100 nA
-0,2001953125;28,9221349269786;-2,0904541015625E-08;-0,1993408203125;1;44;2,40468978881836E-07;-3,36754322052002E-07;100 nA
-0,250244140625;29,422622925715;-2,154541015625E-08;-0,24920654296875;1;45;2,40468978881836E-07;-3,36754322052002E-07;100 nA
-0,30029296875;29,9231109244514;-2,1942138671875E-08;-0,299163818359375;1;46;2,40468978881836E-07;-3,36754322052002E-07;100 nA
-0,350341796875;30,4235989231878;-2,2308349609375E-08;-0,349090576171875;1;47;2,40468978881836E-07;-3,36754322052002E-07;100 nA
-0,400390625;30,9240869219242;-2,2308349609375E-08;-0,399017333984375;1;48;2,40468978881836E-07;-3,36754322052002E-07;100 nA
-0,450439453125;31,4245749206606;-2,2369384765625E-08;-0,4488525390625;1;49;2,40468978881836E-07;-3,36754322052002E-07;100 nA
-0,50048828125;31,925062919397;-2,20947265625E-08;-0,49871826171875;1;50;2,40468978881836E-07;-3,36754322052002E-07;100 nA
-0,550537109375;32,4255509181334;-2,2674560546875E-08;-0,548614501953125;1;51;2,40468978881836E-07;-3,36754322052002E-07;100 nA
-0,6005859375;32,9260389168697;-2,33154296875E-08;-0,598480224609375;1;52;2,40468978881836E-07;-3,36754322052002E-07;100 nA
-0,650634765625;33,4265269156061;-2,45361328125E-08;-0,648406982421875;1;53;2,40468978881836E-07;-3,36754322052002E-07;100 nA
-0,70068359375;33,9270149143425;-2,57568359375E-08;-0,69842529296875;1;54;2,40468978881836E-07;-3,36754322052002E-07;100 nA
-0,750732421875;34,4275029130789;-2,77099609375E-08;-0,74847412109375;1;55;2,40468978881836E-07;-3,36754322052002E-07;100 nA
-0,80078125;34,9279909118153;-2,9876708984375E-08;-0,7989501953125;1;56;2,40468978881836E-07;-3,36754322052002E-07;100 nA
-0,850830078125;35,4284789105517;-3,1463623046875E-08;-0,84869384765625;1;57;2,40468978881836E-07;-3,36754322052002E-07;100 nA
-0,90087890625;35,9289669092881;-3,094482421875E-08;-0,89874267578125;1;58;2,40468978881836E-07;-3,36754322052002E-07;100 nA
-0,950927734375;36,4294549080245;-2,557373046875E-08;-0,948486328125;1;59;2,40468978881836E-07;-3,36754322052002E-07;100 nA
-1,0009765625;36,9299429067609;-2,4383544921875E-08;-0,99884033203125;1;60;2,40468978881836E-07;-3,36754322052002E-07;100 nA
-0,950927734375;37,4304309054972;-1,4434814453125E-08;-0,9490966796875;1;61;2,40468978881836E-07;-3,36754322052002E-07;100 nA
-0,90087890625;37,9309189042336;-8,72802734375E-09;-0,89874267578125;1;62;2,40468978881836E-07;-3,36754322052002E-07;100 nA
-0,850830078125;38,43140690297;-5,157470703125E-09;-0,84869384765625;1;63;2,40468978881836E-07;-3,36754322052002E-07;100 nA
-0,80078125;38,9318949017064;-2,899169921875E-09;-0,7989501953125;1;64;2,40468978881836E-07;-3,36754322052002E-07;100 nA
-0,750732421875;39,4323829004428;-8,85009765625E-10;-0,748565673828125;1;65;2,40468978881836E-07;-3,36754322052002E-07;100 nA
-0,70068359375;39,9328708991792;1,220703125E-09;-0,698516845703125;1;66;2,40468978881836E-07;-3,36754322052002E-07;100 nA
-0,650634765625;40,4333588979156;3,5400390625E-09;-0,648590087890625;1;67;2,40468978881836E-07;-3,36754322052002E-07;100 nA
-0,6005859375;40,933846896652;5,706787109375E-09;-0,598724365234375;1;68;2,40468978881836E-07;-3,36754322052002E-07;100 nA
-0,550537109375;41,4343348953884;8,331298828125E-09;-0,54888916015625;1;69;2,40468978881836E-07;-3,36754322052002E-07;100 nA
-0,50048828125;41,9348228941248;1,1138916015625E-08;-0,4990234375;1;70;2,40468978881836E-07;-3,36754322052002E-07;100 nA
-0,450439453125;42,4353108928611;1,3336181640625E-08;-0,4490966796875;1;71;2,40468978881836E-07;-3,36754322052002E-07;100 nA
-0,400390625;42,9357988915975;1,519775390625E-08;-0,399169921875;1;72;2,40468978881836E-07;-3,36754322052002E-07;100 nA
-0,350341796875;43,4362868903339;1,6510009765625E-08;-0,349273681640625;1;73;2,40468978881836E-07;-3,36754322052002E-07;100 nA
-0,30029296875;43,9367748890703;1,7608642578125E-08;-0,299346923828125;1;74;2,40468978881836E-07;-3,36754322052002E-07;100 nA
-0,250244140625;44,4372628878067;1,7578125E-08;-0,249420166015625;1;75;2,40468978881836E-07;-3,36754322052002E-07;100 nA
-0,2001953125;44,9377508865431;1,74560546875E-08;-0,199462890625;1;76;2,40468978881836E-07;-3,36754322052002E-07;100 nA
-0,150146484375;45,4382388852795;1,72119140625E-08;-0,149566650390625;1;77;2,40468978881836E-07;-3,36754322052002E-07;100 nA
-0,10009765625;45,9387268840159;1,7303466796875E-08;-0,09967041015625;1;78;2,40468978881836E-07;-3,36754322052002E-07;100 nA
-0,050048828125;46,4392148827523;1,739501953125E-08;-0,049835205078125;1;79;2,40468978881836E-07;-3,36754322052002E-07;100 nA
0;46,9397028814886;1,7547607421875E-08;0,000143432617187494;1;80;2,40468978881836E-07;-3,36754322052002E-07;100 nA
0,050048828125;47,440190880225;1,7852783203125E-08;0,050079345703125;2;81;3,06802615523338E-07;-3,13492491841316E-07;100 nA
0,10009765625;47,9406788789614;1,824951171875E-08;0,100128173828125;2;82;3,06802615523338E-07;-3,13492491841316E-07;100 nA
0,150146484375;48,4411668776978;1,8341064453125E-08;0,15008544921875;2;83;3,06802615523338E-07;-3,13492491841316E-07;100 nA
0,2001953125;48,9416548764342;1,861572265625E-08;0,200103759765625;2;84;3,06802615523338E-07;-3,13492491841316E-07;100 nA
0,250244140625;49,4421428751706;1,9317626953125E-08;0,250213623046875;2;85;3,06802615523338E-07;-3,13492491841316E-07;100 nA
0,30029296875;49,942630873907;1,9195556640625E-08;0,300140380859375;2;86;3,06802615523338E-07;-3,13492491841316E-07;100 nA
0,350341796875;50,4431188726434;1,959228515625E-08;0,350128173828125;2;87;3,06802615523338E-07;-3,13492491841316E-07;100 nA
0,400390625;50,9436068713798;2,032470703125E-08;0,400177001953125;2;88;3,06802615523338E-07;-3,13492491841316E-07;100 nA
0,450439453125;51,4440948701161;2,0751953125E-08;0,450164794921875;2;89;3,06802615523338E-07;-3,13492491841316E-07;100 nA
0,50048828125;51,9445828688525;2,08740234375E-08;0,500091552734375;2;90;3,06802615523338E-07;-3,13492491841316E-07;100 nA
0,550537109375;52,4450708675889;1,9622802734375E-08;0,550079345703125;2;91;3,06802615523338E-07;-3,13492491841316E-07;100 nA
0,6005859375;52,9455588663253;1,800537109375E-08;0,600067138671875;2;92;3,06802615523338E-07;-3,13492491841316E-07;100 nA
0,650634765625;53,4460468650617;1,7852783203125E-08;0,64996337890625;2;93;3,06802615523338E-07;-3,13492491841316E-07;100 nA
0,70068359375;53,9465348637981;1,824951171875E-08;0,69989013671875;2;94;3,06802615523338E-07;-3,13492491841316E-07;100 nA
0,750732421875;54,4470228625345;1,84326171875E-08;0,749755859375;2;95;3,06802615523338E-07;-3,13492491841316E-07;100 nA
0,80078125;54,9475108612709;1,8707275390625E-08;0,79986572265625;2;96;3,06802615523338E-07;-3,13492491841316E-07;100 nA
0,850830078125;55,4479988600073;1,9256591796875E-08;0,8502197265625;2;97;3,06802615523338E-07;-3,13492491841316E-07;100 nA
0,90087890625;55,9484868587436;1,9073486328125E-08;0,89996337890625;2;98;3,06802615523338E-07;-3,13492491841316E-07;100 nA
0,950927734375;56,44897485748;1,9256591796875E-08;0,95001220703125;2;99;3,06802615523338E-07;-3,13492491841316E-07;100 nA
1,0009765625;56,9494628562164;2,044677734375E-08;0,999755859375;2;100;3,06802615523338E-07;-3,13492491841316E-07;100 nA
0,950927734375;57,4499508549528;1,3153076171875E-08;0,9503173828125;2;101;3,06802615523338E-07;-3,13492491841316E-07;100 nA
0,90087890625;57,9504388536892;8,514404296875E-09;0,89996337890625;2;102;3,06802615523338E-07;-3,13492491841316E-07;100 nA
0,850830078125;58,4509268524256;5,7373046875E-09;0,849609375;2;103;3,06802615523338E-07;-3,13492491841316E-07;100 nA
0,80078125;58,951414851162;3,387451171875E-09;0,79986572265625;2;104;3,06802615523338E-07;-3,13492491841316E-07;100 nA
0,750732421875;59,4519028498984;1,983642578125E-09;0,74981689453125;2;105;3,06802615523338E-07;-3,13492491841316E-07;100 nA
0,70068359375;59,9523908486348;6,40869140625E-10;0,699981689453125;2;106;3,06802615523338E-07;-3,13492491841316E-07;100 nA
0,650634765625;60,4528788473712;-6,40869140625E-10;0,6500244140625;2;107;3,06802615523338E-07;-3,13492491841316E-07;100 nA
0,6005859375;60,9533668461075;-1,89208984375E-09;0,600189208984375;2;108;3,06802615523338E-07;-3,13492491841316E-07;100 nA
0,550537109375;61,4538548448439;-3,90625E-09;0,550201416015625;2;109;3,06802615523338E-07;-3,13492491841316E-07;100 nA
0,50048828125;61,9543428435803;-6,744384765625E-09;0,500152587890625;2;110;3,06802615523338E-07;-3,13492491841316E-07;100 nA
0,450439453125;62,4548308423167;-9,429931640625E-09;0,450164794921875;2;111;3,06802615523338E-07;-3,13492491841316E-07;100 nA
0,400390625;62,9553188410531;-1,0833740234375E-08;0,400299072265625;2;112;3,06802615523338E-07;-3,13492491841316E-07;100 nA
0,350341796875;63,4558068397895;-1,1993408203125E-08;0,350189208984375;2;113;3,06802615523338E-07;-3,13492491841316E-07;100 nA
0,30029296875;63,9562948385259;-1,0955810546875E-08;0,30010986328125;2;114;3,06802615523338E-07;-3,13492491841316E-07;100 nA
0,250244140625;64,4567828372623;-1,2847900390625E-08;0,2501220703125;2;115;3,06802615523338E-07;-3,13492491841316E-07;100 nA
0,2001953125;64,9572708359987;-1,3641357421875E-08;0,200042724609375;2;116;3,06802615523338E-07;-3,13492491841316E-07;100 nA
0,150146484375;65,457758834735;-1,13525390625E-08;0,15008544921875;2;117;3,06802615523338E-07;-3,13492491841316E-07;100 nA
0,10009765625;65,9582468334714;-1,5106201171875E-08;0,100067138671875;2;118;3,06802615523338E-07;-3,13492491841316E-07;100 nA
0,050048828125;66,4587348322078;-1,5960693359375E-08;0,05010986328125;2;119;3,06802615523338E-07;-3,13492491841316E-07;100 nA
0;66,9592228309442;-1,7059326171875E-08;0,000152587890625;2;120;3,06802615523338E-07;-3,13492491841316E-07;100 nA
-0,050048828125;67,4597108296806;-1,8280029296875E-08;-0,049835205078125;2;121;3,06802615523338E-07;-3,13492491841316E-07;100 nA
-0,10009765625;67,960198828417;-1,9287109375E-08;-0,09967041015625;2;122;3,06802615523338E-07;-3,13492491841316E-07;100 nA
-0,150146484375;68,4606868271534;-2,008056640625E-08;-0,14959716796875;2;123;3,06802615523338E-07;-3,13492491841316E-07;100 nA
-0,2001953125;68,9611748258898;-2,1331787109375E-08;-0,199554443359375;2;124;3,06802615523338E-07;-3,13492491841316E-07;100 nA
-0,250244140625;69,4616628246262;-2,142333984375E-08;-0,24945068359375;2;125;3,06802615523338E-07;-3,13492491841316E-07;100 nA
-0,30029296875;69,9621508233625;-2,30712890625E-08;-0,29925537109375;2;126;3,06802615523338E-07;-3,13492491841316E-07;100 nA
-0,350341796875;70,4626388220989;-2,28271484375E-08;-0,349212646484375;2;127;3,06802615523338E-07;-3,13492491841316E-07;100 nA
-0,400390625;70,9631268208353;-2,13623046875E-08;-0,3990478515625;2;128;3,06802615523338E-07;-3,13492491841316E-07;100 nA
-0,450439453125;71,4636148195717;-2,3193359375E-08;-0,448883056640625;2;129;3,06802615523338E-07;-3,13492491841316E-07;100 nA
-0,50048828125;71,9641028183081;-2,0599365234375E-08;-0,498779296875;2;130;3,06802615523338E-07;-3,13492491841316E-07;100 nA
-0,550537109375;72,4645908170445;-2,25830078125E-08;-0,5487060546875;2;131;3,06802615523338E-07;-3,13492491841316E-07;100 nA
-0,6005859375;72,9650788157809;-2,252197265625E-08;-0,598541259765625;2;132;3,06802615523338E-07;-3,13492491841316E-07;100 nA
-0,650634765625;73,4655668145173;-2,3834228515625E-08;-0,6484375;2;133;3,06802615523338E-07;-3,13492491841316E-07;100 nA
-0,70068359375;73,9660548132537;-2,5054931640625E-08;-0,698486328125;2;134;3,06802615523338E-07;-3,13492491841316E-07;100 nA
-0,750732421875;74,4665428119901;-2,6397705078125E-08;-0,748443603515625;2;135;3,06802615523338E-07;-3,13492491841316E-07;100 nA
-0,80078125;74,9670308107264;-2,850341796875E-08;-0,7989501953125;2;136;3,06802615523338E-07;-3,13492491841316E-07;100 nA
-0,850830078125;75,4675188094628;-2,911376953125E-08;-0,84808349609375;2;137;3,06802615523338E-07;-3,13492491841316E-07;100 nA
-0,90087890625;75,9680068081992;-2,4566650390625E-08;-0,89874267578125;2;138;3,06802615523338E-07;-3,13492491841316E-07;100 nA
-0,950927734375;76,4684948069356;-2,1728515625E-08;-0,94879150390625;2;139;3,06802615523338E-07;-3,13492491841316E-07;100 nA
-1,0009765625;76,968982805672;-2,1392822265625E-08;-0,9991455078125;2;140;3,06802615523338E-07;-3,13492491841316E-07;100 nA
-0,950927734375;77,4694708044084;-1,25732421875E-08;-0,94818115234375;2;141;3,06802615523338E-07;-3,13492491841316E-07;100 nA
-0,90087890625;77,9699588031448;-7,4462890625E-09;-0,89874267578125;2;142;3,06802615523338E-07;-3,13492491841316E-07;100 nA
-0,850830078125;78,4704468018812;-4,5166015625E-09;-0,84869384765625;2;143;3,06802615523338E-07;-3,13492491841316E-07;100 nA
-0,80078125;78,9709348006176;-2,3193359375E-09;-0,7989501953125;2;144;3,06802615523338E-07;-3,13492491841316E-07;100 nA
-0,750732421875;79,4714227993539;3,0517578125E-11;-0,748626708984375;2;145;3,06802615523338E-07;-3,13492491841316E-07;100 nA
-0,70068359375;79,9719107980903;1,312255859375E-09;-0,698699951171875;2;146;3,06802615523338E-07;-3,13492491841316E-07;100 nA
-0,650634765625;80,4723987968267;3,082275390625E-09;-0,64874267578125;2;147;3,06802615523338E-07;-3,13492491841316E-07;100 nA
-0,6005859375;80,9728867955631;5,584716796875E-09;-0,5987548828125;2;148;3,06802615523338E-07;-3,13492491841316E-07;100 nA
-0,550537109375;81,4733747942995;8,48388671875E-09;-0,548858642578125;2;149;3,06802615523338E-07;-3,13492491841316E-07;100 nA
-0,50048828125;81,9738627930359;1,116943359375E-08;-0,498870849609375;2;150;3,06802615523338E-07;-3,13492491841316E-07;100 nA
-0,450439453125;82,4743507917723;1,35498046875E-08;-0,448944091796875;2;151;3,06802615523338E-07;-3,13492491841316E-07;100 nA
-0,400390625;82,9748387905087;1,6204833984375E-08;-0,3990478515625;2;152;3,06802615523338E-07;-3,13492491841316E-07;100 nA
-0,350341796875;83,4753267892451;1,6357421875E-08;-0,349151611328125;2;153;3,06802615523338E-07;-3,13492491841316E-07;100 nA
-0,30029296875;83,9758147879814;1,7486572265625E-08;-0,299224853515625;2;154;3,06802615523338E-07;-3,13492491841316E-07;100 nA
-0,250244140625;84,4763027867178;1,751708984375E-08;-0,249298095703125;2;155;3,06802615523338E-07;-3,13492491841316E-07;100 nA
-0,2001953125;84,9767907854542;1,7303466796875E-08;-0,19940185546875;2;156;3,06802615523338E-07;-3,13492491841316E-07;100 nA
-0,150146484375;85,4772787841906;1,7578125E-08;-0,149505615234375;2;157;3,06802615523338E-07;-3,13492491841316E-07;100 nA
-0,10009765625;85,977766782927;1,727294921875E-08;-0,099609375;2;158;3,06802615523338E-07;-3,13492491841316E-07;100 nA
-0,050048828125;86,4782547816634;1,715087890625E-08;-0,04970703125;2;159;3,06802615523338E-07;-3,13492491841316E-07;100 nA
0;86,9787427803998;1,7486572265625E-08;0,0001373291015625;2;160;3,06802615523338E-07;-3,13492491841316E-07;100 nA
0,050048828125;87,4792307791362;1,7730712890625E-08;0,05010986328125;3;161;3,08452174067497E-07;-3,12957912683487E-07;100 nA
0,10009765625;87,9797187778726;1,800537109375E-08;0,0999755859375;3;162;3,08452174067497E-07;-3,12957912683487E-07;100 nA
0,150146484375;88,480206776609;1,7974853515625E-08;0,149993896484375;3;163;3,08452174067497E-07;-3,12957912683487E-07;100 nA
0,2001953125;88,9806947753453;1,849365234375E-08;0,199981689453125;3;164;3,08452174067497E-07;-3,12957912683487E-07;100 nA
0,250244140625;89,4811827740817;1,885986328125E-08;0,25;3;165;3,08452174067497E-07;-3,12957912683487E-07;100 nA
0,30029296875;89,9816707728181;1,89208984375E-08;0,299957275390625;3;166;3,08452174067497E-07;-3,12957912683487E-07;100 nA
0,350341796875;90,4821587715545;1,922607421875E-08;0,3499755859375;3;167;3,08452174067497E-07;-3,12957912683487E-07;100 nA
0,400390625;90,9826467702909;1,9561767578125E-08;0,399932861328125;3;168;3,08452174067497E-07;-3,12957912683487E-07;100 nA
0,450439453125;91,4831347690273;2,0782470703125E-08;0,449981689453125;3;169;3,08452174067497E-07;-3,12957912683487E-07;100 nA
0,50048828125;91,9836227677637;2,0111083984375E-08;0,5;3;170;3,08452174067497E-07;-3,12957912683487E-07;100 nA
0,550537109375;92,4841107665001;1,9287109375E-08;0,54998779296875;3;171;3,08452174067497E-07;-3,12957912683487E-07;100 nA
0,6005859375;92,9845987652365;1,8218994140625E-08;0,600006103515625;3;172;3,08452174067497E-07;-3,12957912683487E-07;100 nA
0,650634765625;93,4850867639728;1,96533203125E-08;0,64996337890625;3;173;3,08452174067497E-07;-3,12957912683487E-07;100 nA
0,70068359375;93,9855747627092;1,74560546875E-08;0,699981689453125;3;174;3,08452174067497E-07;-3,12957912683487E-07;100 nA
0,750732421875;94,4860627614456;1,94091796875E-08;0,74981689453125;3;175;3,08452174067497E-07;-3,12957912683487E-07;100 nA
0,80078125;94,986550760182;1,9073486328125E-08;0,79986572265625;3;176;3,08452174067497E-07;-3,12957912683487E-07;100 nA
0,850830078125;95,4870387589184;1,8707275390625E-08;0,84991455078125;3;177;3,08452174067497E-07;-3,12957912683487E-07;100 nA
0,90087890625;95,9875267576548;1,9500732421875E-08;0,899658203125;3;178;3,08452174067497E-07;-3,12957912683487E-07;100 nA
0,950927734375;96,4880147563912;2,0233154296875E-08;0,94940185546875;3;179;3,08452174067497E-07;-3,12957912683487E-07;100 nA
1,0009765625;96,9885027551276;2,1331787109375E-08;0,9991455078125;3;180;3,08452174067497E-07;-3,12957912683487E-07;100 nA
0,950927734375;97,488990753864;1,4129638671875E-08;0,94970703125;3;181;3,08452174067497E-07;-3,12957912683487E-07;100 nA
0,90087890625;97,9894787526003;9,46044921875E-09;0,89996337890625;3;182;3,08452174067497E-07;-3,12957912683487E-07;100 nA
0,850830078125;98,4899667513367;6,195068359375E-09;0,8502197265625;3;183;3,08452174067497E-07;-3,12957912683487E-07;100 nA
0,80078125;98,9904547500731;3,7841796875E-09;0,8001708984375;3;184;3,08452174067497E-07;-3,12957912683487E-07;100 nA
0,750732421875;99,4909427488095;1,922607421875E-09;0,7498779296875;3;185;3,08452174067497E-07;-3,12957912683487E-07;100 nA
0,70068359375;99,9914307475459;3,662109375E-10;0,699951171875;3;186;3,08452174067497E-07;-3,12957912683487E-07;100 nA
0,650634765625;100,491918746282;-7,62939453125E-10;0,649993896484375;3;187;3,08452174067497E-07;-3,12957912683487E-07;100 nA
0,6005859375;100,992406745019;-1,89208984375E-09;0,60009765625;3;188;3,08452174067497E-07;-3,12957912683487E-07;100 nA
0,550537109375;101,492894743755;-3,631591796875E-09;0,550079345703125;3;189;3,08452174067497E-07;-3,12957912683487E-07;100 nA
0,50048828125;101,993382742491;-6,439208984375E-09;0,500091552734375;3;190;3,08452174067497E-07;-3,12957912683487E-07;100 nA
0,450439453125;102,493870741228;-9,27734375E-09;0,450042724609375;3;191;3,08452174067497E-07;-3,12957912683487E-07;100 nA
0,400390625;102,994358739964;-1,1444091796875E-08;0,400054931640625;3;192;3,08452174067497E-07;-3,12957912683487E-07;100 nA
0,350341796875;103,494846738701;-1,2908935546875E-08;0,3499755859375;3;193;3,08452174067497E-07;-3,12957912683487E-07;100 nA
0,30029296875;103,995334737437;-1,3275146484375E-08;0,29998779296875;3;194;3,08452174067497E-07;-3,12957912683487E-07;100 nA
0,250244140625;104,495822736173;-1,3275146484375E-08;0,24993896484375;3;195;3,08452174067497E-07;-3,12957912683487E-07;100 nA
0,2001953125;104,99631073491;-1,336669921875E-08;0,199981689453125;3;196;3,08452174067497E-07;-3,12957912683487E-07;100 nA
0,150146484375;105,496798733646;-1,4007568359375E-08;0,150115966796875;3;197;3,08452174067497E-07;-3,12957912683487E-07;100 nA
0,10009765625;105,997286732383;-1,4617919921875E-08;0,100128173828125;3;198;3,08452174067497E-07;-3,12957912683487E-07;100 nA
0,050048828125;106,497774731119;-1,5380859375E-08;0,050140380859375;3;199;3,08452174067497E-07;-3,12957912683487E-07;100 nA
0;106,998262729855;-1,62353515625E-08;0,000131225585937506;3;200;3,08452174067497E-07;-3,12957912683487E-07;100 nA
-0,050048828125;107,498750728592;-1,7181396484375E-08;-0,04971923828125;3;201;3,08452174067497E-07;-3,12957912683487E-07;100 nA
-0,10009765625;107,999238727328;-1,8951416015625E-08;-0,099609375;3;202;3,08452174067497E-07;-3,12957912683487E-07;100 nA
-0,150146484375;108,499726726065;-1,9866943359375E-08;-0,149505615234375;3;203;3,08452174067497E-07;-3,12957912683487E-07;100 nA
-0,2001953125;109,000214724801;-2,0477294921875E-08;-0,199310302734375;3;204;3,08452174067497E-07;-3,12957912683487E-07;100 nA
-0,250244140625;109,500702723537;-2,1331787109375E-08;-0,249267578125;3;205;3,08452174067497E-07;-3,12957912683487E-07;100 nA
-0,30029296875;110,001190722274;-2,203369140625E-08;-0,2991943359375;3;206;3,08452174067497E-07;-3,12957912683487E-07;100 nA
-0,350341796875;110,50167872101;-2,239990234375E-08;-0,34906005859375;3;207;3,08452174067497E-07;-3,12957912683487E-07;100 nA
-0,400390625;111,002166719746;-2,2674560546875E-08;-0,399017333984375;3;208;3,08452174067497E-07;-3,12957912683487E-07;100 nA
-0,450439453125;111,502654718483;-2,2705078125E-08;-0,44891357421875;3;209;3,08452174067497E-07;-3,12957912683487E-07;100 nA
-0,50048828125;112,003142717219;-2,301025390625E-08;-0,49884033203125;3;210;3,08452174067497E-07;-3,12957912683487E-07;100 nA
-0,550537109375;112,503630715956;-2,288818359375E-08;-0,548736572265625;3;211;3,08452174067497E-07;-3,12957912683487E-07;100 nA
-0,6005859375;113,004118714692;-2,33154296875E-08;-0,59857177734375;3;212;3,08452174067497E-07;-3,12957912683487E-07;100 nA
-0,650634765625;113,504606713428;-2,398681640625E-08;-0,648590087890625;3;213;3,08452174067497E-07;-3,12957912683487E-07;100 nA
-0,70068359375;114,005094712165;-2,5238037109375E-08;-0,698638916015625;3;214;3,08452174067497E-07;-3,12957912683487E-07;100 nA
-0,750732421875;114,505582710901;-2,679443359375E-08;-0,748626708984375;3;215;3,08452174067497E-07;-3,12957912683487E-07;100 nA
-0,80078125;115,006070709638;-2,8289794921875E-08;-0,7989501953125;3;216;3,08452174067497E-07;-3,12957912683487E-07;100 nA
-0,850830078125;115,506558708374;-2,850341796875E-08;-0,8489990234375;3;217;3,08452174067497E-07;-3,12957912683487E-07;100 nA
-0,90087890625;116,00704670711;-2,2430419921875E-08;-0,8990478515625;3;218;3,08452174067497E-07;-3,12957912683487E-07;100 nA
-0,950927734375;116,507534705847;-2,0904541015625E-08;-0,94879150390625;3;219;3,08452174067497E-07;-3,12957912683487E-07;100 nA
-1,0009765625;117,008022704583;-2,069091796875E-08;-0,99853515625;3;220;3,08452174067497E-07;-3,12957912683487E-07;100 nA
-0,950927734375;117,50851070332;-1,202392578125E-08;-0,948486328125;3;221;3,08452174067497E-07;-3,12957912683487E-07;100 nA
-0,90087890625;118,008998702056;-7,171630859375E-09;-0,89874267578125;3;222;3,08452174067497E-07;-3,12957912683487E-07;100 nA
-0,850830078125;118,509486700792;-4,0283203125E-09;-0,84869384765625;3;223;3,08452174067497E-07;-3,12957912683487E-07;100 nA
-0,80078125;119,009974699529;-1,89208984375E-09;-0,79864501953125;3;224;3,08452174067497E-07;-3,12957912683487E-07;100 nA
-0,750732421875;119,510462698265;2,44140625E-10;-0,748565673828125;3;225;3,08452174067497E-07;-3,12957912683487E-07;100 nA
-0,70068359375;120,010950697001;2,13623046875E-09;-0,698516845703125;3;226;3,08452174067497E-07;-3,12957912683487E-07;100 nA
-0,650634765625;120,511438695738;3,7841796875E-09;-0,648529052734375;3;227;3,08452174067497E-07;-3,12957912683487E-07;100 nA
-0,6005859375;121,011926694474;6,011962890625E-09;-0,59857177734375;3;228;3,08452174067497E-07;-3,12957912683487E-07;100 nA
-0,550537109375;121,512414693211;8,544921875E-09;-0,5487060546875;3;229;3,08452174067497E-07;-3,12957912683487E-07;100 nA
-0,50048828125;122,012902691947;1,1444091796875E-08;-0,498779296875;3;230;3,08452174067497E-07;-3,12957912683487E-07;100 nA
-0,450439453125;122,513390690683;1,37939453125E-08;-0,448822021484375;3;231;3,08452174067497E-07;-3,12957912683487E-07;100 nA
-0,400390625;123,01387868942;1,580810546875E-08;-0,39898681640625;3;232;3,08452174067497E-07;-3,12957912683487E-07;100 nA
-0,350341796875;123,514366688156;1,6693115234375E-08;-0,349151611328125;3;233;3,08452174067497E-07;-3,12957912683487E-07;100 nA
-0,30029296875;124,014854686893;1,72119140625E-08;-0,2991943359375;3;234;3,08452174067497E-07;-3,12957912683487E-07;100 nA
-0,250244140625;124,515342685629;1,7425537109375E-08;-0,249359130859375;3;235;3,08452174067497E-07;-3,12957912683487E-07;100 nA
-0,2001953125;125,015830684365;1,6815185546875E-08;-0,199462890625;3;236;3,08452174067497E-07;-3,12957912683487E-07;100 nA
-0,150146484375;125,516318683102;1,6998291015625E-08;-0,14959716796875;3;237;3,08452174067497E-07;-3,12957912683487E-07;100 nA
-0,10009765625;126,016806681838;1,6937255859375E-08;-0,0997314453125;3;238;3,08452174067497E-07;-3,12957912683487E-07;100 nA
-0,050048828125;126,517294680575;1,702880859375E-08;-0,04986572265625;3;239;3,08452174067497E-07;-3,12957912683487E-07;100 nA
0;127,017782679311;1,702880859375E-08;0,000128173828124994;3;240;3,08452174067497E-07;-3,12957912683487E-07;100 nA
0,050048828125;127,518270678047;1,7547607421875E-08;0,050018310546875;4;241;3,0771903693676E-07;-3,11995670199394E-07;100 nA
0,10009765625;128,018758676784;1,788330078125E-08;0,0999755859375;4;242;3,0771903693676E-07;-3,11995670199394E-07;100 nA
0,150146484375;128,51924667552;1,800537109375E-08;0,14996337890625;4;243;3,0771903693676E-07;-3,11995670199394E-07;100 nA
0,2001953125;129,019734674256;1,84326171875E-08;0,199981689453125;4;244;3,0771903693676E-07;-3,11995670199394E-07;100 nA
0,250244140625;129,520222672993;1,8768310546875E-08;0,24993896484375;4;245;3,0771903693676E-07;-3,11995670199394E-07;100 nA
0,30029296875;130,020710671729;1,885986328125E-08;0,2999267578125;4;246;3,0771903693676E-07;-3,11995670199394E-07;100 nA
0,350341796875;130,521198670466;1,91650390625E-08;0,350006103515625;4;247;3,0771903693676E-07;-3,11995670199394E-07;100 nA
0,400390625;131,021686669202;1,9989013671875E-08;0,399993896484375;4;248;3,0771903693676E-07;-3,11995670199394E-07;100 nA
0,450439453125;131,522174667938;2,03857421875E-08;0,449920654296875;4;249;3,0771903693676E-07;-3,11995670199394E-07;100 nA
0,50048828125;132,022662666675;2,03857421875E-08;0,500030517578125;4;250;3,0771903693676E-07;-3,11995670199394E-07;100 nA
0,550537109375;132,523150665411;1,91650390625E-08;0,550048828125;4;251;3,0771903693676E-07;-3,11995670199394E-07;100 nA
0,6005859375;133,023638664148;1,9195556640625E-08;0,600067138671875;4;252;3,0771903693676E-07;-3,11995670199394E-07;100 nA
0,650634765625;133,524126662884;1,873779296875E-08;0,6500244140625;4;253;3,0771903693676E-07;-3,11995670199394E-07;100 nA
0,70068359375;134,02461466162;1,8524169921875E-08;0,69989013671875;4;254;3,0771903693676E-07;-3,11995670199394E-07;100 nA
0,750732421875;134,525102660357;1,86767578125E-08;0,74981689453125;4;255;3,0771903693676E-07;-3,11995670199394E-07;100 nA
0,80078125;135,025590659093;1,8890380859375E-08;0,799560546875;4;256;3,0771903693676E-07;-3,11995670199394E-07;100 nA
0,850830078125;135,52607865783;1,91650390625E-08;0,84991455078125;4;257;3,0771903693676E-07;-3,11995670199394E-07;100 nA
0,90087890625;136,026566656566;1,9500732421875E-08;0,899658203125;4;258;3,0771903693676E-07;-3,11995670199394E-07;100 nA
0,950927734375;136,527054655302;2,020263671875E-08;0,94970703125;4;259;3,0771903693676E-07;-3,11995670199394E-07;100 nA
1,0009765625;137,027542654039;2,178955078125E-08;0,99945068359375;4;260;3,0771903693676E-07;-3,11995670199394E-07;100 nA
0,950927734375;137,528030652775;1,4251708984375E-08;0,9503173828125;4;261;3,0771903693676E-07;-3,11995670199394E-07;100 nA
0,90087890625;138,028518651511;9,185791015625E-09;0,899658203125;4;262;3,0771903693676E-07;-3,11995670199394E-07;100 nA
0,850830078125;138,529006650248;6,195068359375E-09;0,84991455078125;4;263;3,0771903693676E-07;-3,11995670199394E-07;100 nA
0,80078125;139,029494648984;3,570556640625E-09;0,8001708984375;4;264;3,0771903693676E-07;-3,11995670199394E-07;100 nA
0,750732421875;139,529982647721;1,922607421875E-09;0,749847412109375;4;265;3,0771903693676E-07;-3,11995670199394E-07;100 nA
0,70068359375;140,030470646457;5,79833984375E-10;0,699920654296875;4;266;3,0771903693676E-07;-3,11995670199394E-07;100 nA
0,650634765625;140,530958645193;-7,32421875E-10;0,64996337890625;4;267;3,0771903693676E-07;-3,11995670199394E-07;100 nA
0,6005859375;141,03144664393;-1,861572265625E-09;0,600006103515625;4;268;3,0771903693676E-07;-3,11995670199394E-07;100 nA
0,550537109375;141,531934642666;-3,60107421875E-09;0,550018310546875;4;269;3,0771903693676E-07;-3,11995670199394E-07;100 nA
0,50048828125;142,032422641403;-6,134033203125E-09;0,5;4;270;3,0771903693676E-07;-3,11995670199394E-07;100 nA
0,450439453125;142,532910640139;-9,124755859375E-09;0,450042724609375;4;271;3,0771903693676E-07;-3,11995670199394E-07;100 nA
0,400390625;143,033398638875;-1,123046875E-08;0,40008544921875;4;272;3,0771903693676E-07;-3,11995670199394E-07;100 nA
0,350341796875;143,533886637612;-1,2298583984375E-08;0,35003662109375;4;273;3,0771903693676E-07;-3,11995670199394E-07;100 nA
0,30029296875;144,034374636348;-1,37939453125E-08;0,299896240234375;4;274;3,0771903693676E-07;-3,11995670199394E-07;100 nA
0,250244140625;144,534862635085;-1,336669921875E-08;0,249908447265625;4;275;3,0771903693676E-07;-3,11995670199394E-07;100 nA
0,2001953125;145,035350633821;-1,348876953125E-08;0,199981689453125;4;276;3,0771903693676E-07;-3,11995670199394E-07;100 nA
0,150146484375;145,535838632557;-1,422119140625E-08;0,14990234375;4;277;3,0771903693676E-07;-3,11995670199394E-07;100 nA
0,10009765625;146,036326631294;-1,5106201171875E-08;0,10003662109375;4;278;3,0771903693676E-07;-3,11995670199394E-07;100 nA
0,050048828125;146,53681463003;-1,55029296875E-08;0,050079345703125;4;279;3,0771903693676E-07;-3,11995670199394E-07;100 nA
0;147,037302628767;-1,6845703125E-08;0,0001220703125;4;280;3,0771903693676E-07;-3,11995670199394E-07;100 nA
-0,050048828125;147,537790627503;-1,7791748046875E-08;-0,0497039794921875;4;281;3,0771903693676E-07;-3,11995670199394E-07;100 nA
-0,10009765625;148,038278626239;-1,8798828125E-08;-0,099609375;4;282;3,0771903693676E-07;-3,11995670199394E-07;100 nA
-0,150146484375;148,538766624976;-1,9561767578125E-08;-0,149566650390625;4;283;3,0771903693676E-07;-3,11995670199394E-07;100 nA
-0,2001953125;149,039254623712;-2,0782470703125E-08;-0,199462890625;4;284;3,0771903693676E-07;-3,11995670199394E-07;100 nA
-0,250244140625;149,539742622448;-2,1697998046875E-08;-0,249298095703125;4;285;3,0771903693676E-07;-3,11995670199394E-07;100 nA
-0,30029296875;150,040230621185;-2,215576171875E-08;-0,2991943359375;4;286;3,0771903693676E-07;-3,11995670199394E-07;100 nA
-0,350341796875;150,540718619921;-2,191162109375E-08;-0,349029541015625;4;287;3,0771903693676E-07;-3,11995670199394E-07;100 nA
-0,400390625;151,041206618658;-2,2430419921875E-08;-0,398956298828125;4;288;3,0771903693676E-07;-3,11995670199394E-07;100 nA
-0,450439453125;151,541694617394;-2,252197265625E-08;-0,44879150390625;4;289;3,0771903693676E-07;-3,11995670199394E-07;100 nA
-0,50048828125;152,04218261613;-2,24609375E-08;-0,498687744140625;4;290;3,0771903693676E-07;-3,11995670199394E-07;100 nA
-0,550537109375;152,542670614867;-2,2613525390625E-08;-0,5487060546875;4;291;3,0771903693676E-07;-3,11995670199394E-07;100 nA
-0,6005859375;153,043158613603;-2,3040771484375E-08;-0,598602294921875;4;292;3,0771903693676E-07;-3,11995670199394E-07;100 nA
-0,650634765625;153,54364661234;-2,410888671875E-08;-0,64849853515625;4;293;3,0771903693676E-07;-3,11995670199394E-07;100 nA
-0,70068359375;154,044134611076;-2,520751953125E-08;-0,69854736328125;4;294;3,0771903693676E-07;-3,11995670199394E-07;100 nA
-0,750732421875;154,544622609812;-2,6458740234375E-08;-0,74859619140625;4;295;3,0771903693676E-07;-3,11995670199394E-07;100 nA
-0,80078125;155,045110608549;-2,825927734375E-08;-0,79833984375;4;296;3,0771903693676E-07;-3,11995670199394E-07;100 nA
-0,850830078125;155,545598607285;-2,7618408203125E-08;-0,84869384765625;4;297;3,0771903693676E-07;-3,11995670199394E-07;100 nA
-0,90087890625;156,046086606022;-2,117919921875E-08;-0,8990478515625;4;298;3,0771903693676E-07;-3,11995670199394E-07;100 nA
-0,950927734375;156,546574604758;-2,01416015625E-08;-0,9490966796875;4;299;3,0771903693676E-07;-3,11995670199394E-07;100 nA
-1,0009765625;157,047062603494;-2,0416259765625E-08;-0,99884033203125;4;300;3,0771903693676E-07;-3,11995670199394E-07;100 nA
-0,950927734375;157,547550602231;-1,2969970703125E-08;-0,94879150390625;4;301;3,0771903693676E-07;-3,11995670199394E-07;100 nA
-0,90087890625;158,048038600967;-7,8125E-09;-0,8990478515625;4;302;3,0771903693676E-07;-3,11995670199394E-07;100 nA
-0,850830078125;158,548526599703;-4,08935546875E-09;-0,84869384765625;4;303;3,0771903693676E-07;-3,11995670199394E-07;100 nA
-0,80078125;159,04901459844;-2,044677734375E-09;-0,79864501953125;4;304;3,0771903693676E-07;-3,11995670199394E-07;100 nA
-0,750732421875;159,549502597176;2,74658203125E-10;-0,748565673828125;4;305;3,0771903693676E-07;-3,11995670199394E-07;100 nA
-0,70068359375;160,049990595913;2,349853515625E-09;-0,698577880859375;4;306;3,0771903693676E-07;-3,11995670199394E-07;100 nA
-0,650634765625;160,550478594649;3,84521484375E-09;-0,64849853515625;4;307;3,0771903693676E-07;-3,11995670199394E-07;100 nA
-0,6005859375;161,050966593385;5,401611328125E-09;-0,598602294921875;4;308;3,0771903693676E-07;-3,11995670199394E-07;100 nA
-0,550537109375;161,551454592122;7,8125E-09;-0,5487060546875;4;309;3,0771903693676E-07;-3,11995670199394E-07;100 nA
-0,50048828125;162,051942590858;1,20849609375E-08;-0,498809814453125;4;310;3,0771903693676E-07;-3,11995670199394E-07;100 nA
-0,450439453125;162,552430589595;1,2939453125E-08;-0,448944091796875;4;311;3,0771903693676E-07;-3,11995670199394E-07;100 nA
-0,400390625;163,052918588331;1,4312744140625E-08;-0,3990478515625;4;312;3,0771903693676E-07;-3,11995670199394E-07;100 nA
-0,350341796875;163,553406587067;1,6845703125E-08;-0,34912109375;4;313;3,0771903693676E-07;-3,11995670199394E-07;100 nA
-0,30029296875;164,053894585804;1,7120361328125E-08;-0,2991943359375;4;314;3,0771903693676E-07;-3,11995670199394E-07;100 nA
-0,250244140625;164,55438258454;1,72119140625E-08;-0,24932861328125;4;315;3,0771903693676E-07;-3,11995670199394E-07;100 nA
-0,2001953125;165,054870583277;1,7181396484375E-08;-0,199371337890625;4;316;3,0771903693676E-07;-3,11995670199394E-07;100 nA
-0,150146484375;165,555358582013;1,69677734375E-08;-0,149566650390625;4;317;3,0771903693676E-07;-3,11995670199394E-07;100 nA
-0,10009765625;166,055846580749;1,6998291015625E-08;-0,0997314453125;4;318;3,0771903693676E-07;-3,11995670199394E-07;100 nA
-0,050048828125;166,556334579486;1,7181396484375E-08;-0,049835205078125;4;319;3,0771903693676E-07;-3,11995670199394E-07;100 nA
0;167,056822578222;1,7333984375E-08;0,000100708007812506;4;320;3,0771903693676E-07;-3,11995670199394E-07;100 nA
0,050048828125;167,557310576958;1,751708984375E-08;0,050079345703125;5;321;3,06252762675285E-07;-3,0912421643734E-07;100 nA
0,10009765625;168,057798575695;1,7852783203125E-08;0,100006103515625;5;322;3,06252762675285E-07;-3,0912421643734E-07;100 nA
0,150146484375;168,558286574431;1,806640625E-08;0,149932861328125;5;323;3,06252762675285E-07;-3,0912421643734E-07;100 nA
0,2001953125;169,058774573168;1,85546875E-08;0,199951171875;5;324;3,06252762675285E-07;-3,0912421643734E-07;100 nA
0,250244140625;169,559262571904;1,885986328125E-08;0,25;5;325;3,06252762675285E-07;-3,0912421643734E-07;100 nA
0,30029296875;170,05975057064;1,8829345703125E-08;0,2999267578125;5;326;3,06252762675285E-07;-3,0912421643734E-07;100 nA
0,350341796875;170,560238569377;1,953125E-08;0,350006103515625;5;327;3,06252762675285E-07;-3,0912421643734E-07;100 nA
0,400390625;171,060726568113;2,0263671875E-08;0,4000244140625;5;328;3,06252762675285E-07;-3,0912421643734E-07;100 nA
0,450439453125;171,56121456685;2,0843505859375E-08;0,449981689453125;5;329;3,06252762675285E-07;-3,0912421643734E-07;100 nA
0,50048828125;172,061702565586;2,0599365234375E-08;0,5;5;330;3,06252762675285E-07;-3,0912421643734E-07;100 nA
0,550537109375;172,562190564322;1,9256591796875E-08;0,550018310546875;5;331;3,06252762675285E-07;-3,0912421643734E-07;100 nA
0,6005859375;173,062678563059;1,9195556640625E-08;0,600067138671875;5;332;3,06252762675285E-07;-3,0912421643734E-07;100 nA
0,650634765625;173,563166561795;1,8463134765625E-08;0,650054931640625;5;333;3,06252762675285E-07;-3,0912421643734E-07;100 nA
0,70068359375;174,063654560532;1,86767578125E-08;0,69989013671875;5;334;3,06252762675285E-07;-3,0912421643734E-07;100 nA
0,750732421875;174,564142559268;1,6204833984375E-08;0,7498779296875;5;335;3,06252762675285E-07;-3,0912421643734E-07;100 nA
0,80078125;175,064630558004;1,8951416015625E-08;0,79986572265625;5;336;3,06252762675285E-07;-3,0912421643734E-07;100 nA
0,850830078125;175,565118556741;1,904296875E-08;0,84991455078125;5;337;3,06252762675285E-07;-3,0912421643734E-07;100 nA
0,90087890625;176,065606555477;1,9073486328125E-08;0,89996337890625;5;338;3,06252762675285E-07;-3,0912421643734E-07;100 nA
0,950927734375;176,566094554213;2,06298828125E-08;0,9490966796875;5;339;3,06252762675285E-07;-3,0912421643734E-07;100 nA
1,0009765625;177,06658255295;2,154541015625E-08;0,999755859375;5;340;3,06252762675285E-07;-3,0912421643734E-07;100 nA
0,950927734375;177,567070551686;1,3885498046875E-08;0,94970703125;5;341;3,06252762675285E-07;-3,0912421643734E-07;100 nA
0,90087890625;178,067558550423;9,21630859375E-09;0,89996337890625;5;342;3,06252762675285E-07;-3,0912421643734E-07;100 nA
0,850830078125;178,568046549159;6,072998046875E-09;0,8502197265625;5;343;3,06252762675285E-07;-3,0912421643734E-07;100 nA
0,80078125;179,068534547895;3,662109375E-09;0,79986572265625;5;344;3,06252762675285E-07;-3,0912421643734E-07;100 nA
0,750732421875;179,569022546632;1,861572265625E-09;0,749847412109375;5;345;3,06252762675285E-07;-3,0912421643734E-07;100 nA
0,70068359375;180,069510545368;4,8828125E-10;0,699920654296875;5;346;3,06252762675285E-07;-3,0912421643734E-07;100 nA
0,650634765625;180,569998544105;-7,62939453125E-10;0,649993896484375;5;347;3,06252762675285E-07;-3,0912421643734E-07;100 nA
0,6005859375;181,070486542841;-2,044677734375E-09;0,600006103515625;5;348;3,06252762675285E-07;-3,0912421643734E-07;100 nA
0,550537109375;181,570974541577;-3,5400390625E-09;0,54998779296875;5;349;3,06252762675285E-07;-3,0912421643734E-07;100 nA
0,50048828125;182,071462540314;-5,9814453125E-09;0,50006103515625;5;350;3,06252762675285E-07;-3,0912421643734E-07;100 nA
0,450439453125;182,57195053905;-8,97216796875E-09;0,45001220703125;5;351;3,06252762675285E-07;-3,0912421643734E-07;100 nA
0,400390625;183,072438537787;-1,165771484375E-08;0,4000244140625;5;352;3,06252762675285E-07;-3,0912421643734E-07;100 nA
0,350341796875;183,572926536523;-1,2847900390625E-08;0,3499755859375;5;353;3,06252762675285E-07;-3,0912421643734E-07;100 nA
0,30029296875;184,073414535259;-1,33056640625E-08;0,2999267578125;5;354;3,06252762675285E-07;-3,0912421643734E-07;100 nA
0,250244140625;184,573902533996;-1,336669921875E-08;0,24993896484375;5;355;3,06252762675285E-07;-3,0912421643734E-07;100 nA
0,2001953125;185,074390532732;-1,3519287109375E-08;0,200042724609375;5;356;3,06252762675285E-07;-3,0912421643734E-07;100 nA
0,150146484375;185,574878531468;-1,397705078125E-08;0,15008544921875;5;357;3,06252762675285E-07;-3,0912421643734E-07;100 nA
0,10009765625;186,075366530205;-1,46484375E-08;0,10009765625;5;358;3,06252762675285E-07;-3,0912421643734E-07;100 nA
0,050048828125;186,575854528941;-1,5472412109375E-08;0,050140380859375;5;359;3,06252762675285E-07;-3,0912421643734E-07;100 nA
0;187,076342527678;-1,6326904296875E-08;0,000140380859374997;5;360;3,06252762675285E-07;-3,0912421643734E-07;100 nA
-0,050048828125;187,576830526414;-1,77001953125E-08;-0,0497161865234375;5;361;3,06252762675285E-07;-3,0912421643734E-07;100 nA
-0,10009765625;188,07731852515;-1,8768310546875E-08;-0,099609375;5;362;3,06252762675285E-07;-3,0912421643734E-07;100 nA
-0,150146484375;188,577806523887;-1,9775390625E-08;-0,149505615234375;5;363;3,06252762675285E-07;-3,0912421643734E-07;100 nA
-0,2001953125;189,078294522623;-2,0660400390625E-08;-0,19940185546875;5;364;3,06252762675285E-07;-3,0912421643734E-07;100 nA
-0,250244140625;189,57878252136;-2,1270751953125E-08;-0,249267578125;5;365;3,06252762675285E-07;-3,0912421643734E-07;100 nA
-0,30029296875;190,079270520096;-2,16064453125E-08;-0,29913330078125;5;366;3,06252762675285E-07;-3,0912421643734E-07;100 nA
-0,350341796875;190,579758518832;-2,2308349609375E-08;-0,349090576171875;5;367;3,06252762675285E-07;-3,0912421643734E-07;100 nA
-0,400390625;191,080246517569;-2,2552490234375E-08;-0,39892578125;5;368;3,06252762675285E-07;-3,0912421643734E-07;100 nA
-0,450439453125;191,580734516305;-2,2674560546875E-08;-0,4488525390625;5;369;3,06252762675285E-07;-3,0912421643734E-07;100 nA
-0,50048828125;192,081222515042;-2,2491455078125E-08;-0,498748779296875;5;370;3,06252762675285E-07;-3,0912421643734E-07;100 nA
-0,550537109375;192,581710513778;-2,276611328125E-08;-0,5487060546875;5;371;3,06252762675285E-07;-3,0912421643734E-07;100 nA
-0,6005859375;193,082198512514;-2,325439453125E-08;-0,5986328125;5;372;3,06252762675285E-07;-3,0912421643734E-07;100 nA
-0,650634765625;193,582686511251;-2,3956298828125E-08;-0,64849853515625;5;373;3,06252762675285E-07;-3,0912421643734E-07;100 nA
-0,70068359375;194,083174509987;-2,5115966796875E-08;-0,698577880859375;5;374;3,06252762675285E-07;-3,0912421643734E-07;100 nA
-0,750732421875;194,583662508723;-2,667236328125E-08;-0,748565673828125;5;375;3,06252762675285E-07;-3,0912421643734E-07;100 nA
-0,80078125;195,08415050746;-2,77099609375E-08;-0,79833984375;5;376;3,06252762675285E-07;-3,0912421643734E-07;100 nA
-0,850830078125;195,584638506196;-2,5970458984375E-08;-0,848388671875;5;377;3,06252762675285E-07;-3,0912421643734E-07;100 nA
-0,90087890625;196,085126504933;-2,0782470703125E-08;-0,89874267578125;5;378;3,06252762675285E-07;-3,0912421643734E-07;100 nA
-0,950927734375;196,585614503669;-1,983642578125E-08;-0,9490966796875;5;379;3,06252762675285E-07;-3,0912421643734E-07;100 nA
-1,0009765625;197,086102502405;-1,9683837890625E-08;-0,99884033203125;5;380;3,06252762675285E-07;-3,0912421643734E-07;100 nA
-0,950927734375;197,586590501142;-1,15966796875E-08;-0,9490966796875;5;381;3,06252762675285E-07;-3,0912421643734E-07;100 nA
-0,90087890625;198,087078499878;-7,50732421875E-09;-0,89874267578125;5;382;3,06252762675285E-07;-3,0912421643734E-07;100 nA
-0,850830078125;198,587566498615;-4,364013671875E-09;-0,84869384765625;5;383;3,06252762675285E-07;-3,0912421643734E-07;100 nA
-0,80078125;199,088054497351;-2,13623046875E-09;-0,79833984375;5;384;3,06252762675285E-07;-3,0912421643734E-07;100 nA
-0,750732421875;199,588542496087;-6,103515625E-11;-0,748748779296875;5;385;3,06252762675285E-07;-3,0912421643734E-07;100 nA
-0,70068359375;200,089030494824;1,953125E-09;-0,69873046875;5;386;3,06252762675285E-07;-3,0912421643734E-07;100 nA
-0,650634765625;200,58951849356;3,47900390625E-09;-0,648681640625;5;387;3,06252762675285E-07;-3,0912421643734E-07;100 nA
-0,6005859375;201,090006492297;5,55419921875E-09;-0,5986328125;5;388;3,06252762675285E-07;-3,0912421643734E-07;100 nA
-0,550537109375;201,590494491033;8,11767578125E-09;-0,54876708984375;5;389;3,06252762675285E-07;-3,0912421643734E-07;100 nA
-0,50048828125;202,090982489769;1,08642578125E-08;-0,498870849609375;5;390;3,06252762675285E-07;-3,0912421643734E-07;100 nA
-0,450439453125;202,591470488506;1,2969970703125E-08;-0,448944091796875;5;391;3,06252762675285E-07;-3,0912421643734E-07;100 nA
-0,400390625;203,091958487242;1,5045166015625E-08;-0,39910888671875;5;392;3,06252762675285E-07;-3,0912421643734E-07;100 nA
-0,350341796875;203,592446485978;1,62353515625E-08;-0,349151611328125;5;393;3,06252762675285E-07;-3,0912421643734E-07;100 nA
-0,30029296875;204,092934484715;1,6845703125E-08;-0,299285888671875;5;394;3,06252762675285E-07;-3,0912421643734E-07;100 nA
-0,250244140625;204,593422483451;1,7181396484375E-08;-0,249359130859375;5;395;3,06252762675285E-07;-3,0912421643734E-07;100 nA
-0,2001953125;205,093910482188;1,715087890625E-08;-0,199432373046875;5;396;3,06252762675285E-07;-3,0912421643734E-07;100 nA
-0,150146484375;205,594398480924;1,708984375E-08;-0,1495361328125;5;397;3,06252762675285E-07;-3,0912421643734E-07;100 nA
-0,10009765625;206,09488647966;1,7578125E-08;-0,099609375;5;398;3,06252762675285E-07;-3,0912421643734E-07;100 nA
-0,050048828125;206,595374478397;1,72119140625E-08;-0,0497314453125;5;399;3,06252762675285E-07;-3,0912421643734E-07;100 nA
0;207,095862477133;1,7486572265625E-08;0,000134277343750003;5;400;3,06252762675285E-07;-3,0912421643734E-07;100 nA
0,050048828125;207,59635047587;1,800537109375E-08;0,050048828125;6;401;3,04297730326653E-07;-3,06619331240654E-07;100 nA
0,10009765625;208,096838474606;1,812744140625E-08;0,10009765625;6;402;3,04297730326653E-07;-3,06619331240654E-07;100 nA
0,150146484375;208,597326473342;1,8463134765625E-08;0,15008544921875;6;403;3,04297730326653E-07;-3,06619331240654E-07;100 nA
0,2001953125;209,097814472079;1,8829345703125E-08;0,200042724609375;6;404;3,04297730326653E-07;-3,06619331240654E-07;100 nA
0,250244140625;209,598302470815;1,91650390625E-08;0,250030517578125;6;405;3,04297730326653E-07;-3,06619331240654E-07;100 nA
0,30029296875;210,098790469552;1,9500732421875E-08;0,300018310546875;6;406;3,04297730326653E-07;-3,06619331240654E-07;100 nA
0,350341796875;210,599278468288;2,001953125E-08;0,35003662109375;6;407;3,04297730326653E-07;-3,06619331240654E-07;100 nA
0,400390625;211,099766467024;2,0660400390625E-08;0,4000244140625;6;408;3,04297730326653E-07;-3,06619331240654E-07;100 nA
0,450439453125;211,600254465761;2,11181640625E-08;0,450042724609375;6;409;3,04297730326653E-07;-3,06619331240654E-07;100 nA
0,50048828125;212,100742464497;2,0233154296875E-08;0,50006103515625;6;410;3,04297730326653E-07;-3,06619331240654E-07;100 nA
0,550537109375;212,601230463233;1,9195556640625E-08;0,550048828125;6;411;3,04297730326653E-07;-3,06619331240654E-07;100 nA
0,6005859375;213,10171846197;1,86767578125E-08;0,600006103515625;6;412;3,04297730326653E-07;-3,06619331240654E-07;100 nA
0,650634765625;213,602206460706;1,77001953125E-08;0,64990234375;6;413;3,04297730326653E-07;-3,06619331240654E-07;100 nA
0,70068359375;214,102694459443;1,79443359375E-08;0,69976806640625;6;414;3,04297730326653E-07;-3,06619331240654E-07;100 nA
0,750732421875;214,603182458179;1,812744140625E-08;0,74969482421875;6;415;3,04297730326653E-07;-3,06619331240654E-07;100 nA
0,80078125;215,103670456915;1,8402099609375E-08;0,79986572265625;6;416;3,04297730326653E-07;-3,06619331240654E-07;100 nA
0,850830078125;215,604158455652;1,861572265625E-08;0,8489990234375;6;417;3,04297730326653E-07;-3,06619331240654E-07;100 nA
0,90087890625;216,104646454388;1,9195556640625E-08;0,89996337890625;6;418;3,04297730326653E-07;-3,06619331240654E-07;100 nA
0,950927734375;216,605134453125;1,995849609375E-08;0,94970703125;6;419;3,04297730326653E-07;-3,06619331240654E-07;100 nA
1,0009765625;217,105622451861;2,1331787109375E-08;0,9991455078125;6;420;3,04297730326653E-07;-3,06619331240654E-07;100 nA
0,950927734375;217,606110450597;1,37939453125E-08;0,94970703125;6;421;3,04297730326653E-07;-3,06619331240654E-07;100 nA
0,90087890625;218,106598449334;9,33837890625E-09;0,89996337890625;6;422;3,04297730326653E-07;-3,06619331240654E-07;100 nA
0,850830078125;218,60708644807;6,072998046875E-09;0,849609375;6;423;3,04297730326653E-07;-3,06619331240654E-07;100 nA
0,80078125;219,107574446807;3,7841796875E-09;0,79986572265625;6;424;3,04297730326653E-07;-3,06619331240654E-07;100 nA
0,750732421875;219,608062445543;2,197265625E-09;0,749847412109375;6;425;3,04297730326653E-07;-3,06619331240654E-07;100 nA
0,70068359375;220,108550444279;8,23974609375E-10;0,699981689453125;6;426;3,04297730326653E-07;-3,06619331240654E-07;100 nA
0,650634765625;220,609038443016;-5,18798828125E-10;0,650115966796875;6;427;3,04297730326653E-07;-3,06619331240654E-07;100 nA
0,6005859375;221,109526441752;-1,617431640625E-09;0,600128173828125;6;428;3,04297730326653E-07;-3,06619331240654E-07;100 nA
0,550537109375;221,610014440489;-2,716064453125E-09;0,550201416015625;6;429;3,04297730326653E-07;-3,06619331240654E-07;100 nA
0,50048828125;222,110502439225;-5,218505859375E-09;0,500213623046875;6;430;3,04297730326653E-07;-3,06619331240654E-07;100 nA
0,450439453125;222,610990437961;-8,36181640625E-09;0,4501953125;6;431;3,04297730326653E-07;-3,06619331240654E-07;100 nA
0,400390625;223,111478436698;-1,055908203125E-08;0,400146484375;6;432;3,04297730326653E-07;-3,06619331240654E-07;100 nA
0,350341796875;223,611966435434;-1,2298583984375E-08;0,35015869140625;6;433;3,04297730326653E-07;-3,06619331240654E-07;100 nA
0,30029296875;224,11245443417;-1,3092041015625E-08;0,300048828125;6;434;3,04297730326653E-07;-3,06619331240654E-07;100 nA
0,250244140625;224,612942432907;-1,336669921875E-08;0,250091552734375;6;435;3,04297730326653E-07;-3,06619331240654E-07;100 nA
0,2001953125;225,113430431643;-1,3427734375E-08;0,200103759765625;6;436;3,04297730326653E-07;-3,06619331240654E-07;100 nA
0,150146484375;225,61391843038;-1,4068603515625E-08;0,15008544921875;6;437;3,04297730326653E-07;-3,06619331240654E-07;100 nA
0,10009765625;226,114406429116;-1,47705078125E-08;0,100067138671875;6;438;3,04297730326653E-07;-3,06619331240654E-07;100 nA
0,050048828125;226,614894427852;-1,5899658203125E-08;0,05010986328125;6;439;3,04297730326653E-07;-3,06619331240654E-07;100 nA
0;227,115382426589;-1,69677734375E-08;0,000112915039062494;6;440;3,04297730326653E-07;-3,06619331240654E-07;100 nA
-0,050048828125;227,615870425325;-1,788330078125E-08;-0,049835205078125;6;441;3,04297730326653E-07;-3,06619331240654E-07;100 nA
-0,10009765625;228,116358424062;-1,9134521484375E-08;-0,099761962890625;6;442;3,04297730326653E-07;-3,06619331240654E-07;100 nA
-0,150146484375;228,616846422798;-2,06298828125E-08;-0,149658203125;6;443;3,04297730326653E-07;-3,06619331240654E-07;100 nA
-0,2001953125;229,117334421534;-2,081298828125E-08;-0,19952392578125;6;444;3,04297730326653E-07;-3,06619331240654E-07;100 nA
-0,250244140625;229,617822420271;-2,191162109375E-08;-0,24951171875;6;445;3,04297730326653E-07;-3,06619331240654E-07;100 nA
-0,30029296875;230,118310419007;-2,2735595703125E-08;-0,299285888671875;6;446;3,04297730326653E-07;-3,06619331240654E-07;100 nA
-0,350341796875;230,618798417744;-2,3895263671875E-08;-0,349151611328125;6;447;3,04297730326653E-07;-3,06619331240654E-07;100 nA
-0,400390625;231,11928641648;-2,2918701171875E-08;-0,3990478515625;6;448;3,04297730326653E-07;-3,06619331240654E-07;100 nA
-0,450439453125;231,619774415216;-2,3223876953125E-08;-0,448944091796875;6;449;3,04297730326653E-07;-3,06619331240654E-07;100 nA
-0,50048828125;232,120262413953;-2,239990234375E-08;-0,498809814453125;6;450;3,04297730326653E-07;-3,06619331240654E-07;100 nA
-0,550537109375;232,620750412689;-2,3101806640625E-08;-0,548736572265625;6;451;3,04297730326653E-07;-3,06619331240654E-07;100 nA
-0,6005859375;233,121238411425;-2,34375E-08;-0,59857177734375;6;452;3,04297730326653E-07;-3,06619331240654E-07;100 nA
-0,650634765625;233,621726410162;-2,3895263671875E-08;-0,648529052734375;6;453;3,04297730326653E-07;-3,06619331240654E-07;100 nA
-0,70068359375;234,122214408898;-2,4658203125E-08;-0,698455810546875;6;454;3,04297730326653E-07;-3,06619331240654E-07;100 nA
-0,750732421875;234,622702407635;-2,62451171875E-08;-0,7484130859375;6;455;3,04297730326653E-07;-3,06619331240654E-07;100 nA
-0,80078125;235,123190406371;-2,72216796875E-08;-0,79833984375;6;456;3,04297730326653E-07;-3,06619331240654E-07;100 nA
-0,850830078125;235,623678405107;-2,447509765625E-08;-0,84869384765625;6;457;3,04297730326653E-07;-3,06619331240654E-07;100 nA
-0,90087890625;236,124166403844;-1,983642578125E-08;-0,89935302734375;6;458;3,04297730326653E-07;-3,06619331240654E-07;100 nA
-0,950927734375;236,62465440258;-1,89208984375E-08;-0,948486328125;6;459;3,04297730326653E-07;-3,06619331240654E-07;100 nA
-1,0009765625;237,125142401317;-1,8798828125E-08;-0,9991455078125;6;460;3,04297730326653E-07;-3,06619331240654E-07;100 nA
-0,950927734375;237,625630400053;-1,1260986328125E-08;-0,94879150390625;6;461;3,04297730326653E-07;-3,06619331240654E-07;100 nA
-0,90087890625;238,126118398789;-6,77490234375E-09;-0,8984375;6;462;3,04297730326653E-07;-3,06619331240654E-07;100 nA
-0,850830078125;238,626606397526;-3,814697265625E-09;-0,84930419921875;6;463;3,04297730326653E-07;-3,06619331240654E-07;100 nA
-0,80078125;239,127094396262;-1,77001953125E-09;-0,79864501953125;6;464;3,04297730326653E-07;-3,06619331240654E-07;100 nA
-0,750732421875;239,627582394999;2,74658203125E-10;-0,748565673828125;6;465;3,04297730326653E-07;-3,06619331240654E-07;100 nA
-0,70068359375;240,128070393735;1,953125E-09;-0,698699951171875;6;466;3,04297730326653E-07;-3,06619331240654E-07;100 nA
-0,650634765625;240,628558392471;3,5400390625E-09;-0,648590087890625;6;467;3,04297730326653E-07;-3,06619331240654E-07;100 nA
-0,6005859375;241,129046391208;5,340576171875E-09;-0,5986328125;6;468;3,04297730326653E-07;-3,06619331240654E-07;100 nA
-0,550537109375;241,629534389944;7,720947265625E-09;-0,548828125;6;469;3,04297730326653E-07;-3,06619331240654E-07;100 nA
-0,50048828125;242,13002238868;1,0345458984375E-08;-0,498870849609375;6;470;3,04297730326653E-07;-3,06619331240654E-07;100 nA
-0,450439453125;242,630510387417;1,2939453125E-08;-0,4490966796875;6;471;3,04297730326653E-07;-3,06619331240654E-07;100 nA
-0,400390625;243,130998386153;1,434326171875E-08;-0,399139404296875;6;472;3,04297730326653E-07;-3,06619331240654E-07;100 nA
-0,350341796875;243,63148638489;1,556396484375E-08;-0,349334716796875;6;473;3,04297730326653E-07;-3,06619331240654E-07;100 nA
-0,30029296875;244,131974383626;1,6326904296875E-08;-0,29937744140625;6;474;3,04297730326653E-07;-3,06619331240654E-07;100 nA
-0,250244140625;244,632462382362;1,6357421875E-08;-0,24951171875;6;475;3,04297730326653E-07;-3,06619331240654E-07;100 nA
-0,2001953125;245,132950381099;1,666259765625E-08;-0,199554443359375;6;476;3,04297730326653E-07;-3,06619331240654E-07;100 nA
-0,150146484375;245,633438379835;1,708984375E-08;-0,149688720703125;6;477;3,04297730326653E-07;-3,06619331240654E-07;100 nA
-0,10009765625;246,133926378572;1,7425537109375E-08;-0,099822998046875;6;478;3,04297730326653E-07;-3,06619331240654E-07;100 nA
-0,050048828125;246,634414377308;1,715087890625E-08;-0,0499267578125;6;479;3,04297730326653E-07;-3,06619331240654E-07;100 nA
0;247,134902376044;1,568603515625E-08;0,000131225585937506;6;480;3,04297730326653E-07;-3,06619331240654E-07;100 nA
0,050048828125;247,635390374781;1,66015625E-08;0,050048828125;7;481;3,08940932154655E-07;-3,07841226458549E-07;100 nA
0,10009765625;248,135878373517;1,8035888671875E-08;0,100067138671875;7;482;3,08940932154655E-07;-3,07841226458549E-07;100 nA
0,150146484375;248,636366372254;1,8798828125E-08;0,15008544921875;7;483;3,08940932154655E-07;-3,07841226458549E-07;100 nA
0,2001953125;249,13685437099;1,91650390625E-08;0,2000732421875;7;484;3,08940932154655E-07;-3,07841226458549E-07;100 nA
0,250244140625;249,637342369726;1,9378662109375E-08;0,250091552734375;7;485;3,08940932154655E-07;-3,07841226458549E-07;100 nA
0,30029296875;250,137830368463;1,995849609375E-08;0,300140380859375;7;486;3,08940932154655E-07;-3,07841226458549E-07;100 nA
0,350341796875;250,638318367199;2,0599365234375E-08;0,350128173828125;7;487;3,08940932154655E-07;-3,07841226458549E-07;100 nA
0,400390625;251,138806365935;2,0751953125E-08;0,400146484375;7;488;3,08940932154655E-07;-3,07841226458549E-07;100 nA
0,450439453125;251,639294364672;2,2003173828125E-08;0,450103759765625;7;489;3,08940932154655E-07;-3,07841226458549E-07;100 nA
0,50048828125;252,139782363408;2,142333984375E-08;0,500152587890625;7;490;3,08940932154655E-07;-3,07841226458549E-07;100 nA
0,550537109375;252,640270362145;2,166748046875E-08;0,550140380859375;7;491;3,08940932154655E-07;-3,07841226458549E-07;100 nA
0,6005859375;253,140758360881;1,910400390625E-08;0,60015869140625;7;492;3,08940932154655E-07;-3,07841226458549E-07;100 nA
0,650634765625;253,641246359617;1,8646240234375E-08;0,650054931640625;7;493;3,08940932154655E-07;-3,07841226458549E-07;100 nA
0,70068359375;254,141734358354;1,885986328125E-08;0,700042724609375;7;494;3,08940932154655E-07;-3,07841226458549E-07;100 nA
0,750732421875;254,64222235709;1,86767578125E-08;0,7498779296875;7;495;3,08940932154655E-07;-3,07841226458549E-07;100 nA
0,80078125;255,142710355827;1,8829345703125E-08;0,79986572265625;7;496;3,08940932154655E-07;-3,07841226458549E-07;100 nA
0,850830078125;255,643198354563;1,89208984375E-08;0,8502197265625;7;497;3,08940932154655E-07;-3,07841226458549E-07;100 nA
0,90087890625;256,143686353299;1,922607421875E-08;0,899658203125;7;498;3,08940932154655E-07;-3,07841226458549E-07;100 nA
0,950927734375;256,644174352036;1,995849609375E-08;0,95001220703125;7;499;3,08940932154655E-07;-3,07841226458549E-07;100 nA
1,0009765625;257,144662350772;2,105712890625E-08;1,00006103515625;7;500;3,08940932154655E-07;-3,07841226458549E-07;100 nA
0,950927734375;257,645150349509;1,4190673828125E-08;0,95001220703125;7;501;3,08940932154655E-07;-3,07841226458549E-07;100 nA
0,90087890625;258,145638348245;9,246826171875E-09;0,899658203125;7;502;3,08940932154655E-07;-3,07841226458549E-07;100 nA
0,850830078125;258,646126346981;5,889892578125E-09;0,84991455078125;7;503;3,08940932154655E-07;-3,07841226458549E-07;100 nA
0,80078125;259,146614345718;2,0751953125E-09;0,8001708984375;7;504;3,08940932154655E-07;-3,07841226458549E-07;100 nA
0,750732421875;259,647102344454;2,74658203125E-10;0,749664306640625;7;505;3,08940932154655E-07;-3,07841226458549E-07;100 nA
0,70068359375;260,14759034319;1,8310546875E-10;0,699798583984375;7;506;3,08940932154655E-07;-3,07841226458549E-07;100 nA
0,650634765625;260,648078341927;-2,166748046875E-09;0,64996337890625;7;507;3,08940932154655E-07;-3,07841226458549E-07;100 nA
0,6005859375;261,148566340663;-2,410888671875E-09;0,600006103515625;7;508;3,08940932154655E-07;-3,07841226458549E-07;100 nA
0,550537109375;261,6490543394;-3,662109375E-09;0,550018310546875;7;509;3,08940932154655E-07;-3,07841226458549E-07;100 nA
0,50048828125;262,149542338136;-5,584716796875E-09;0,500030517578125;7;510;3,08940932154655E-07;-3,07841226458549E-07;100 nA
0,450439453125;262,650030336872;-8,819580078125E-09;0,450103759765625;7;511;3,08940932154655E-07;-3,07841226458549E-07;100 nA
0,400390625;263,150518335609;-1,1077880859375E-08;0,400115966796875;7;512;3,08940932154655E-07;-3,07841226458549E-07;100 nA
0,350341796875;263,651006334345;-1,1962890625E-08;0,35015869140625;7;513;3,08940932154655E-07;-3,07841226458549E-07;100 nA
0,30029296875;264,151494333082;-1,2908935546875E-08;0,300140380859375;7;514;3,08940932154655E-07;-3,07841226458549E-07;100 nA
0,250244140625;264,651982331818;-1,3641357421875E-08;0,250152587890625;7;515;3,08940932154655E-07;-3,07841226458549E-07;100 nA
0,2001953125;265,152470330554;-1,312255859375E-08;0,20013427734375;7;516;3,08940932154655E-07;-3,07841226458549E-07;100 nA
0,150146484375;265,652958329291;-1,5106201171875E-08;0,150177001953125;7;517;3,08940932154655E-07;-3,07841226458549E-07;100 nA
0,10009765625;266,153446328027;-1,5228271484375E-08;0,100128173828125;7;518;3,08940932154655E-07;-3,07841226458549E-07;100 nA
0,050048828125;266,653934326764;-1,5533447265625E-08;0,0501708984375;7;519;3,08940932154655E-07;-3,07841226458549E-07;100 nA
0;267,1544223255;-1,5838623046875E-08;0,000140380859374997;7;520;3,08940932154655E-07;-3,07841226458549E-07;100 nA
-0,050048828125;267,654910324236;-1,7120361328125E-08;-0,049737548828125;7;521;3,08940932154655E-07;-3,07841226458549E-07;100 nA
-0,10009765625;268,155398322973;-1,8463134765625E-08;-0,099609375;7;522;3,08940932154655E-07;-3,07841226458549E-07;100 nA
-0,150146484375;268,655886321709;-1,9287109375E-08;-0,149505615234375;7;523;3,08940932154655E-07;-3,07841226458549E-07;100 nA
-0,2001953125;269,156374320445;-2,0721435546875E-08;-0,199432373046875;7;524;3,08940932154655E-07;-3,07841226458549E-07;100 nA
-0,250244140625;269,656862319182;-2,1820068359375E-08;-0,24932861328125;7;525;3,08940932154655E-07;-3,07841226458549E-07;100 nA
-0,30029296875;270,157350317918;-2,2125244140625E-08;-0,299224853515625;7;526;3,08940932154655E-07;-3,07841226458549E-07;100 nA
-0,350341796875;270,657838316655;-2,25830078125E-08;-0,349151611328125;7;527;3,08940932154655E-07;-3,07841226458549E-07;100 nA
-0,400390625;271,158326315391;-2,3223876953125E-08;-0,399078369140625;7;528;3,08940932154655E-07;-3,07841226458549E-07;100 nA
-0,450439453125;271,658814314127;-2,325439453125E-08;-0,448944091796875;7;529;3,08940932154655E-07;-3,07841226458549E-07;100 nA
-0,50048828125;272,159302312864;-2,3284912109375E-08;-0,498809814453125;7;530;3,08940932154655E-07;-3,07841226458549E-07;100 nA
-0,550537109375;272,6597903116;-2,313232421875E-08;-0,548736572265625;7;531;3,08940932154655E-07;-3,07841226458549E-07;100 nA
-0,6005859375;273,160278310337;-2,3590087890625E-08;-0,598663330078125;7;532;3,08940932154655E-07;-3,07841226458549E-07;100 nA
-0,650634765625;273,660766309073;-2,4169921875E-08;-0,64862060546875;7;533;3,08940932154655E-07;-3,07841226458549E-07;100 nA
-0,70068359375;274,161254307809;-2,52685546875E-08;-0,698577880859375;7;534;3,08940932154655E-07;-3,07841226458549E-07;100 nA
-0,750732421875;274,661742306546;-2,679443359375E-08;-0,748565673828125;7;535;3,08940932154655E-07;-3,07841226458549E-07;100 nA
-0,80078125;275,162230305282;-2,7679443359375E-08;-0,79864501953125;7;536;3,08940932154655E-07;-3,07841226458549E-07;100 nA
-0,850830078125;275,662718304019;-2,4627685546875E-08;-0,848388671875;7;537;3,08940932154655E-07;-3,07841226458549E-07;100 nA
-0,90087890625;276,163206302755;-2,0294189453125E-08;-0,89874267578125;7;538;3,08940932154655E-07;-3,07841226458549E-07;100 nA
-0,950927734375;276,663694301491;-1,995849609375E-08;-0,948486328125;7;539;3,08940932154655E-07;-3,07841226458549E-07;100 nA
-1,0009765625;277,164182300228;-1,85546875E-08;-0,99884033203125;7;540;3,08940932154655E-07;-3,07841226458549E-07;100 nA
-0,950927734375;277,664670298964;-1,1199951171875E-08;-0,948486328125;7;541;3,08940932154655E-07;-3,07841226458549E-07;100 nA
-0,90087890625;278,1651582977;-5,462646484375E-09;-0,89874267578125;7;542;3,08940932154655E-07;-3,07841226458549E-07;100 nA
-0,850830078125;278,665646296437;-3,90625E-09;-0,8489990234375;7;543;3,08940932154655E-07;-3,07841226458549E-07;100 nA
-0,80078125;279,166134295173;-1,3427734375E-09;-0,79833984375;7;544;3,08940932154655E-07;-3,07841226458549E-07;100 nA
-0,750732421875;279,66662229391;-1,52587890625E-10;-0,74853515625;7;545;3,08940932154655E-07;-3,07841226458549E-07;100 nA
-0,70068359375;280,167110292646;2,3193359375E-09;-0,698577880859375;7;546;3,08940932154655E-07;-3,07841226458549E-07;100 nA
-0,650634765625;280,667598291382;3,814697265625E-09;-0,648590087890625;7;547;3,08940932154655E-07;-3,07841226458549E-07;100 nA
-0,6005859375;281,168086290119;5,645751953125E-09;-0,5986328125;7;548;3,08940932154655E-07;-3,07841226458549E-07;100 nA
-0,550537109375;281,668574288855;8,056640625E-09;-0,548736572265625;7;549;3,08940932154655E-07;-3,07841226458549E-07;100 nA
-0,50048828125;282,169062287592;1,03759765625E-08;-0,498809814453125;7;550;3,08940932154655E-07;-3,07841226458549E-07;100 nA
-0,450439453125;282,669550286328;1,26953125E-08;-0,448974609375;7;551;3,08940932154655E-07;-3,07841226458549E-07;100 nA
-0,400390625;283,170038285064;1,45263671875E-08;-0,399078369140625;7;552;3,08940932154655E-07;-3,07841226458549E-07;100 nA
-0,350341796875;283,670526283801;1,6204833984375E-08;-0,349151611328125;7;553;3,08940932154655E-07;-3,07841226458549E-07;100 nA
-0,30029296875;284,171014282537;1,6937255859375E-08;-0,299224853515625;7;554;3,08940932154655E-07;-3,07841226458549E-07;100 nA
-0,250244140625;284,671502281274;1,7486572265625E-08;-0,249298095703125;7;555;3,08940932154655E-07;-3,07841226458549E-07;100 nA
-0,2001953125;285,17199028001;1,690673828125E-08;-0,199432373046875;7;556;3,08940932154655E-07;-3,07841226458549E-07;100 nA
-0,150146484375;285,672478278746;1,7059326171875E-08;-0,1495361328125;7;557;3,08940932154655E-07;-3,07841226458549E-07;100 nA
-0,10009765625;286,172966277483;1,7181396484375E-08;-0,099639892578125;7;558;3,08940932154655E-07;-3,07841226458549E-07;100 nA
-0,050048828125;286,673454276219;1,7181396484375E-08;-0,0498046875;7;559;3,08940932154655E-07;-3,07841226458549E-07;100 nA
0;287,173942274955;1,7364501953125E-08;0,000119018554687503;7;560;3,08940932154655E-07;-3,07841226458549E-07;100 nA
0,050048828125;287,674430273692;1,77001953125E-08;0,050079345703125;8;561;3,04542109370232E-07;-3,05809825658798E-07;100 nA
0,10009765625;288,174918272428;1,806640625E-08;0,100067138671875;8;562;3,04542109370232E-07;-3,05809825658798E-07;100 nA
0,150146484375;288,675406271165;1,8035888671875E-08;0,149993896484375;8;563;3,04542109370232E-07;-3,05809825658798E-07;100 nA
0,2001953125;289,175894269901;1,8768310546875E-08;0,20001220703125;8;564;3,04542109370232E-07;-3,05809825658798E-07;100 nA
0,250244140625;289,676382268637;1,9134521484375E-08;0,25;8;565;3,04542109370232E-07;-3,05809825658798E-07;100 nA
0,30029296875;290,176870267374;1,934814453125E-08;0,29998779296875;8;566;3,04542109370232E-07;-3,05809825658798E-07;100 nA
0,350341796875;290,67735826611;2,0172119140625E-08;0,35003662109375;8;567;3,04542109370232E-07;-3,05809825658798E-07;100 nA
0,400390625;291,177846264847;2,0263671875E-08;0,4000244140625;8;568;3,04542109370232E-07;-3,05809825658798E-07;100 nA
0,450439453125;291,678334263583;2,1209716796875E-08;0,45001220703125;8;569;3,04542109370232E-07;-3,05809825658798E-07;100 nA
0,50048828125;292,178822262319;1,98974609375E-08;0,49993896484375;8;570;3,04542109370232E-07;-3,05809825658798E-07;100 nA
0,550537109375;292,679310261056;1,898193359375E-08;0,550018310546875;8;571;3,04542109370232E-07;-3,05809825658798E-07;100 nA
0,6005859375;293,179798259792;1,8280029296875E-08;0,600006103515625;8;572;3,04542109370232E-07;-3,05809825658798E-07;100 nA
0,650634765625;293,680286258529;1,79443359375E-08;0,649932861328125;8;573;3,04542109370232E-07;-3,05809825658798E-07;100 nA
0,70068359375;294,180774257265;1,7822265625E-08;0,699798583984375;8;574;3,04542109370232E-07;-3,05809825658798E-07;100 nA
0,750732421875;294,681262256001;1,8218994140625E-08;0,749725341796875;8;575;3,04542109370232E-07;-3,05809825658798E-07;100 nA
0,80078125;295,181750254738;1,8463134765625E-08;0,79986572265625;8;576;3,04542109370232E-07;-3,05809825658798E-07;100 nA
0,850830078125;295,682238253474;1,849365234375E-08;0,849609375;8;577;3,04542109370232E-07;-3,05809825658798E-07;100 nA
0,90087890625;296,182726252211;1,904296875E-08;0,89996337890625;8;578;3,04542109370232E-07;-3,05809825658798E-07;100 nA
0,950927734375;296,683214250947;2,0111083984375E-08;0,95001220703125;8;579;3,04542109370232E-07;-3,05809825658798E-07;100 nA
1,0009765625;297,183702249683;2,1453857421875E-08;0,999755859375;8;580;3,04542109370232E-07;-3,05809825658798E-07;100 nA
0,950927734375;297,68419024842;1,37939453125E-08;0,94970703125;8;581;3,04542109370232E-07;-3,05809825658798E-07;100 nA
0,90087890625;298,184678247156;9,246826171875E-09;0,89935302734375;8;582;3,04542109370232E-07;-3,05809825658798E-07;100 nA
0,850830078125;298,685166245892;6,04248046875E-09;0,84991455078125;8;583;3,04542109370232E-07;-3,05809825658798E-07;100 nA
0,80078125;299,185654244629;3,753662109375E-09;0,79986572265625;8;584;3,04542109370232E-07;-3,05809825658798E-07;100 nA
0,750732421875;299,686142243365;1,922607421875E-09;0,749847412109375;8;585;3,04542109370232E-07;-3,05809825658798E-07;100 nA
0,70068359375;300,186630242102;7,01904296875E-10;0,699951171875;8;586;3,04542109370232E-07;-3,05809825658798E-07;100 nA
0,650634765625;300,687118240838;-5,79833984375E-10;0,6500244140625;8;587;3,04542109370232E-07;-3,05809825658798E-07;100 nA
0,6005859375;301,187606239574;-1,617431640625E-09;0,60009765625;8;588;3,04542109370232E-07;-3,05809825658798E-07;100 nA
0,550537109375;301,688094238311;-3,41796875E-09;0,550140380859375;8;589;3,04542109370232E-07;-3,05809825658798E-07;100 nA
0,50048828125;302,188582237047;-5,584716796875E-09;0,50018310546875;8;590;3,04542109370232E-07;-3,05809825658798E-07;100 nA
0,450439453125;302,689070235784;-8,6669921875E-09;0,4500732421875;8;591;3,04542109370232E-07;-3,05809825658798E-07;100 nA
0,400390625;303,18955823452;-1,06201171875E-08;0,40020751953125;8;592;3,04542109370232E-07;-3,05809825658798E-07;100 nA
0,350341796875;303,690046233256;-1,20849609375E-08;0,350128173828125;8;593;3,04542109370232E-07;-3,05809825658798E-07;100 nA
0,30029296875;304,190534231993;-1,3031005859375E-08;0,3001708984375;8;594;3,04542109370232E-07;-3,05809825658798E-07;100 nA
0,250244140625;304,691022230729;-1,2725830078125E-08;0,250213623046875;8;595;3,04542109370232E-07;-3,05809825658798E-07;100 nA
0,2001953125;305,191510229466;-1,3031005859375E-08;0,200164794921875;8;596;3,04542109370232E-07;-3,05809825658798E-07;100 nA
0,150146484375;305,691998228202;-1,3763427734375E-08;0,150115966796875;8;597;3,04542109370232E-07;-3,05809825658798E-07;100 nA
0,10009765625;306,192486226938;-1,4617919921875E-08;0,10015869140625;8;598;3,04542109370232E-07;-3,05809825658798E-07;100 nA
0,050048828125;306,692974225675;-1,4190673828125E-08;0,05010986328125;8;599;3,04542109370232E-07;-3,05809825658798E-07;100 nA
0;307,193462224411;-1,5777587890625E-08;0,0001373291015625;8;600;3,04542109370232E-07;-3,05809825658798E-07;100 nA
-0,050048828125;307,693950223147;-1,7303466796875E-08;-0,0497406005859375;8;601;3,04542109370232E-07;-3,05809825658798E-07;100 nA
-0,10009765625;308,194438221884;-2,001953125E-08;-0,09967041015625;8;602;3,04542109370232E-07;-3,05809825658798E-07;100 nA
-0,150146484375;308,69492622062;-1,995849609375E-08;-0,149566650390625;8;603;3,04542109370232E-07;-3,05809825658798E-07;100 nA
-0,2001953125;309,195414219357;-2,03857421875E-08;-0,199432373046875;8;604;3,04542109370232E-07;-3,05809825658798E-07;100 nA
-0,250244140625;309,695902218093;-2,2125244140625E-08;-0,24932861328125;8;605;3,04542109370232E-07;-3,05809825658798E-07;100 nA
-0,30029296875;310,196390216829;-2,18505859375E-08;-0,299224853515625;8;606;3,04542109370232E-07;-3,05809825658798E-07;100 nA
-0,350341796875;310,696878215566;-2,3101806640625E-08;-0,349212646484375;8;607;3,04542109370232E-07;-3,05809825658798E-07;100 nA
-0,400390625;311,197366214302;-2,3345947265625E-08;-0,399078369140625;8;608;3,04542109370232E-07;-3,05809825658798E-07;100 nA
-0,450439453125;311,697854213039;-2,3193359375E-08;-0,448974609375;8;609;3,04542109370232E-07;-3,05809825658798E-07;100 nA
-0,50048828125;312,198342211775;-2,3101806640625E-08;-0,498870849609375;8;610;3,04542109370232E-07;-3,05809825658798E-07;100 nA
-0,550537109375;312,698830210511;-2,3651123046875E-08;-0,548736572265625;8;611;3,04542109370232E-07;-3,05809825658798E-07;100 nA
-0,6005859375;313,199318209248;-2,2674560546875E-08;-0,598602294921875;8;612;3,04542109370232E-07;-3,05809825658798E-07;100 nA
-0,650634765625;313,699806207984;-2,3834228515625E-08;-0,64862060546875;8;613;3,04542109370232E-07;-3,05809825658798E-07;100 nA
-0,70068359375;314,200294206721;-2,5604248046875E-08;-0,6986083984375;8;614;3,04542109370232E-07;-3,05809825658798E-07;100 nA
-0,750732421875;314,700782205457;-2,703857421875E-08;-0,748565673828125;8;615;3,04542109370232E-07;-3,05809825658798E-07;100 nA
-0,80078125;315,201270204193;-2,7618408203125E-08;-0,7989501953125;8;616;3,04542109370232E-07;-3,05809825658798E-07;100 nA
-0,850830078125;315,70175820293;-2,42919921875E-08;-0,848388671875;8;617;3,04542109370232E-07;-3,05809825658798E-07;100 nA
-0,90087890625;316,202246201666;-1,9866943359375E-08;-0,8984375;8;618;3,04542109370232E-07;-3,05809825658798E-07;100 nA
-0,950927734375;316,702734200402;-1,9012451171875E-08;-0,9490966796875;8;619;3,04542109370232E-07;-3,05809825658798E-07;100 nA
-1,0009765625;317,203222199139;-1,8890380859375E-08;-0,9991455078125;8;620;3,04542109370232E-07;-3,05809825658798E-07;100 nA
-0,950927734375;317,703710197875;-1,153564453125E-08;-0,9490966796875;8;621;3,04542109370232E-07;-3,05809825658798E-07;100 nA
-0,90087890625;318,204198196612;-6,805419921875E-09;-0,89874267578125;8;622;3,04542109370232E-07;-3,05809825658798E-07;100 nA
-0,850830078125;318,704686195348;-4,2724609375E-09;-0,8489990234375;8;623;3,04542109370232E-07;-3,05809825658798E-07;100 nA
-0,80078125;319,205174194084;-1,8310546875E-09;-0,79833984375;8;624;3,04542109370232E-07;-3,05809825658798E-07;100 nA
-0,750732421875;319,705662192821;1,220703125E-10;-0,748687744140625;8;625;3,04542109370232E-07;-3,05809825658798E-07;100 nA
-0,70068359375;320,206150191557;1,495361328125E-09;-0,698699951171875;8;626;3,04542109370232E-07;-3,05809825658798E-07;100 nA
-0,650634765625;320,706638190294;3,5400390625E-09;-0,64874267578125;8;627;3,04542109370232E-07;-3,05809825658798E-07;100 nA
-0,6005859375;321,20712618903;5,37109375E-09;-0,5987548828125;8;628;3,04542109370232E-07;-3,05809825658798E-07;100 nA
-0,550537109375;321,707614187766;7,87353515625E-09;-0,54876708984375;8;629;3,04542109370232E-07;-3,05809825658798E-07;100 nA
-0,50048828125;322,208102186503;1,043701171875E-08;-0,498870849609375;8;630;3,04542109370232E-07;-3,05809825658798E-07;100 nA
-0,450439453125;322,708590185239;1,2908935546875E-08;-0,448974609375;8;631;3,04542109370232E-07;-3,05809825658798E-07;100 nA
-0,400390625;323,209078183976;1,47705078125E-08;-0,3990478515625;8;632;3,04542109370232E-07;-3,05809825658798E-07;100 nA
-0,350341796875;323,709566182712;1,593017578125E-08;-0,349212646484375;8;633;3,04542109370232E-07;-3,05809825658798E-07;100 nA
-0,30029296875;324,210054181448;1,6845703125E-08;-0,299285888671875;8;634;3,04542109370232E-07;-3,05809825658798E-07;100 nA
-0,250244140625;324,710542180185;1,6876220703125E-08;-0,249359130859375;8;635;3,04542109370232E-07;-3,05809825658798E-07;100 nA
-0,2001953125;325,211030178921;1,7120361328125E-08;-0,199462890625;8;636;3,04542109370232E-07;-3,05809825658798E-07;100 nA
-0,150146484375;325,711518177657;1,6754150390625E-08;-0,149566650390625;8;637;3,04542109370232E-07;-3,05809825658798E-07;100 nA
-0,10009765625;326,212006176394;1,6937255859375E-08;-0,099639892578125;8;638;3,04542109370232E-07;-3,05809825658798E-07;100 nA
-0,050048828125;326,71249417513;1,7669677734375E-08;-0,049774169921875;8;639;3,04542109370232E-07;-3,05809825658798E-07;100 nA
0;327,212982173867;1,69677734375E-08;0,000125122070312497;8;640;3,04542109370232E-07;-3,05809825658798E-07;100 nA
0,050048828125;327,713470172603;1,8157958984375E-08;0,050079345703125;9;641;3,09964269399643E-07;-3,0643604695797E-07;100 nA
0,10009765625;328,213958171339;1,7547607421875E-08;0,10015869140625;9;642;3,09964269399643E-07;-3,0643604695797E-07;100 nA
0,150146484375;328,714446170076;1,8463134765625E-08;0,1500244140625;9;643;3,09964269399643E-07;-3,0643604695797E-07;100 nA
0,2001953125;329,214934168812;1,9073486328125E-08;0,2000732421875;9;644;3,09964269399643E-07;-3,0643604695797E-07;100 nA
0,250244140625;329,715422167549;1,9561767578125E-08;0,250152587890625;9;645;3,09964269399643E-07;-3,0643604695797E-07;100 nA
0,30029296875;330,215910166285;2,0050048828125E-08;0,300079345703125;9;646;3,09964269399643E-07;-3,0643604695797E-07;100 nA
0,350341796875;330,716398165021;2,105712890625E-08;0,35015869140625;9;647;3,09964269399643E-07;-3,0643604695797E-07;100 nA
0,400390625;331,216886163758;2,1209716796875E-08;0,400146484375;9;648;3,09964269399643E-07;-3,0643604695797E-07;100 nA
0,450439453125;331,717374162494;2,154541015625E-08;0,450103759765625;9;649;3,09964269399643E-07;-3,0643604695797E-07;100 nA
0,50048828125;332,217862161231;2,0782470703125E-08;0,50018310546875;9;650;3,09964269399643E-07;-3,0643604695797E-07;100 nA
0,550537109375;332,718350159967;1,9622802734375E-08;0,550140380859375;9;651;3,09964269399643E-07;-3,0643604695797E-07;100 nA
0,6005859375;333,218838158703;1,94091796875E-08;0,600128173828125;9;652;3,09964269399643E-07;-3,0643604695797E-07;100 nA
0,650634765625;333,71932615744;1,8707275390625E-08;0,65008544921875;9;653;3,09964269399643E-07;-3,0643604695797E-07;100 nA
0,70068359375;334,219814156176;1,8768310546875E-08;0,699951171875;9;654;3,09964269399643E-07;-3,0643604695797E-07;100 nA
0,750732421875;334,720302154912;1,885986328125E-08;0,749847412109375;9;655;3,09964269399643E-07;-3,0643604695797E-07;100 nA
0,80078125;335,220790153649;1,89208984375E-08;0,79986572265625;9;656;3,09964269399643E-07;-3,0643604695797E-07;100 nA
0,850830078125;335,721278152385;1,9378662109375E-08;0,84991455078125;9;657;3,09964269399643E-07;-3,0643604695797E-07;100 nA
0,90087890625;336,221766151122;1,94091796875E-08;0,899658203125;9;658;3,09964269399643E-07;-3,0643604695797E-07;100 nA
0,950927734375;336,722254149858;2,069091796875E-08;0,94970703125;9;659;3,09964269399643E-07;-3,0643604695797E-07;100 nA
1,0009765625;337,222742148594;2,166748046875E-08;0,9991455078125;9;660;3,09964269399643E-07;-3,0643604695797E-07;100 nA
0,950927734375;337,723230147331;1,3702392578125E-08;0,95001220703125;9;661;3,09964269399643E-07;-3,0643604695797E-07;100 nA
0,90087890625;338,223718146067;9,246826171875E-09;0,9002685546875;9;662;3,09964269399643E-07;-3,0643604695797E-07;100 nA
0,850830078125;338,724206144804;5,859375E-09;0,84991455078125;9;663;3,09964269399643E-07;-3,0643604695797E-07;100 nA
0,80078125;339,22469414354;3,265380859375E-09;0,799560546875;9;664;3,09964269399643E-07;-3,0643604695797E-07;100 nA
0,750732421875;339,725182142276;2,227783203125E-09;0,749755859375;9;665;3,09964269399643E-07;-3,0643604695797E-07;100 nA
0,70068359375;340,225670141013;3,35693359375E-10;0,6998291015625;9;666;3,09964269399643E-07;-3,0643604695797E-07;100 nA
0,650634765625;340,726158139749;-1,190185546875E-09;0,64996337890625;9;667;3,09964269399643E-07;-3,0643604695797E-07;100 nA
0,6005859375;341,226646138486;-2,410888671875E-09;0,599945068359375;9;668;3,09964269399643E-07;-3,0643604695797E-07;100 nA
0,550537109375;341,727134137222;-3,875732421875E-09;0,5499267578125;9;669;3,09964269399643E-07;-3,0643604695797E-07;100 nA
0,50048828125;342,227622135958;-6,317138671875E-09;0,500030517578125;9;670;3,09964269399643E-07;-3,0643604695797E-07;100 nA
0,450439453125;342,728110134695;-9,185791015625E-09;0,449981689453125;9;671;3,09964269399643E-07;-3,0643604695797E-07;100 nA
0,400390625;343,228598133431;-1,1322021484375E-08;0,40008544921875;9;672;3,09964269399643E-07;-3,0643604695797E-07;100 nA
0,350341796875;343,729086132167;-1,2451171875E-08;0,35003662109375;9;673;3,09964269399643E-07;-3,0643604695797E-07;100 nA
0,30029296875;344,229574130904;-1,3275146484375E-08;0,300018310546875;9;674;3,09964269399643E-07;-3,0643604695797E-07;100 nA
0,250244140625;344,73006212964;-1,35498046875E-08;0,250091552734375;9;675;3,09964269399643E-07;-3,0643604695797E-07;100 nA
0,2001953125;345,230550128377;-1,397705078125E-08;0,20001220703125;9;676;3,09964269399643E-07;-3,0643604695797E-07;100 nA
0,150146484375;345,731038127113;-1,4434814453125E-08;0,150115966796875;9;677;3,09964269399643E-07;-3,0643604695797E-07;100 nA
0,10009765625;346,231526125849;-1,50146484375E-08;0,10009765625;9;678;3,09964269399643E-07;-3,0643604695797E-07;100 nA
0,050048828125;346,732014124586;-1,5594482421875E-08;0,050140380859375;9;679;3,09964269399643E-07;-3,0643604695797E-07;100 nA
0;347,232502123322;-1,6632080078125E-08;0,000140380859374997;9;680;3,09964269399643E-07;-3,0643604695797E-07;100 nA
-0,050048828125;347,732990122059;-1,7852783203125E-08;-0,049725341796875;9;681;3,09964269399643E-07;-3,0643604695797E-07;100 nA
-0,10009765625;348,233478120795;-1,885986328125E-08;-0,09967041015625;9;682;3,09964269399643E-07;-3,0643604695797E-07;100 nA
-0,150146484375;348,733966119531;-2,0172119140625E-08;-0,149566650390625;9;683;3,09964269399643E-07;-3,0643604695797E-07;100 nA
-0,2001953125;349,234454118268;-2,0263671875E-08;-0,199432373046875;9;684;3,09964269399643E-07;-3,0643604695797E-07;100 nA
-0,250244140625;349,734942117004;-2,1728515625E-08;-0,249298095703125;9;685;3,09964269399643E-07;-3,0643604695797E-07;100 nA
-0,30029296875;350,235430115741;-2,105712890625E-08;-0,299224853515625;9;686;3,09964269399643E-07;-3,0643604695797E-07;100 nA
-0,350341796875;350,735918114477;-2,191162109375E-08;-0,349090576171875;9;687;3,09964269399643E-07;-3,0643604695797E-07;100 nA
-0,400390625;351,236406113213;-2,4078369140625E-08;-0,399017333984375;9;688;3,09964269399643E-07;-3,0643604695797E-07;100 nA
-0,450439453125;351,73689411195;-2,337646484375E-08;-0,448944091796875;9;689;3,09964269399643E-07;-3,0643604695797E-07;100 nA
-0,50048828125;352,237382110686;-2,3345947265625E-08;-0,498779296875;9;690;3,09964269399643E-07;-3,0643604695797E-07;100 nA
-0,550537109375;352,737870109422;-2,3193359375E-08;-0,54864501953125;9;691;3,09964269399643E-07;-3,0643604695797E-07;100 nA
-0,6005859375;353,238358108159;-2,2674560546875E-08;-0,5985107421875;9;692;3,09964269399643E-07;-3,0643604695797E-07;100 nA
-0,650634765625;353,738846106895;-2,34375E-08;-0,648406982421875;9;693;3,09964269399643E-07;-3,0643604695797E-07;100 nA
-0,70068359375;354,239334105632;-2,47802734375E-08;-0,698455810546875;9;694;3,09964269399643E-07;-3,0643604695797E-07;100 nA
-0,750732421875;354,739822104368;-2,5970458984375E-08;-0,7484130859375;9;695;3,09964269399643E-07;-3,0643604695797E-07;100 nA
-0,80078125;355,240310103104;-2,6702880859375E-08;-0,7989501953125;9;696;3,09964269399643E-07;-3,0643604695797E-07;100 nA
-0,850830078125;355,740798101841;-2,337646484375E-08;-0,848388671875;9;697;3,09964269399643E-07;-3,0643604695797E-07;100 nA
-0,90087890625;356,241286100577;-1,89208984375E-08;-0,89874267578125;9;698;3,09964269399643E-07;-3,0643604695797E-07;100 nA
-0,950927734375;356,741774099314;-1,861572265625E-08;-0,9490966796875;9;699;3,09964269399643E-07;-3,0643604695797E-07;100 nA
-1,0009765625;357,24226209805;-1,8524169921875E-08;-0,99884033203125;9;700;3,09964269399643E-07;-3,0643604695797E-07;100 nA
-0,950927734375;357,742750096786;-1,141357421875E-08;-0,94879150390625;9;701;3,09964269399643E-07;-3,0643604695797E-07;100 nA
-0,90087890625;358,243238095523;-6,7138671875E-09;-0,89874267578125;9;702;3,09964269399643E-07;-3,0643604695797E-07;100 nA
-0,850830078125;358,743726094259;-3,5400390625E-09;-0,84869384765625;9;703;3,09964269399643E-07;-3,0643604695797E-07;100 nA
-0,80078125;359,244214092996;-2,532958984375E-09;-0,7989501953125;9;704;3,09964269399643E-07;-3,0643604695797E-07;100 nA
-0,750732421875;359,744702091732;1,861572265625E-09;-0,74853515625;9;705;3,09964269399643E-07;-3,0643604695797E-07;100 nA
-0,70068359375;360,245190090468;3,7841796875E-09;-0,6986083984375;9;706;3,09964269399643E-07;-3,0643604695797E-07;100 nA
-0,650634765625;360,745678089205;3,631591796875E-09;-0,648590087890625;9;707;3,09964269399643E-07;-3,0643604695797E-07;100 nA
-0,6005859375;361,246166087941;5,096435546875E-09;-0,598663330078125;9;708;3,09964269399643E-07;-3,0643604695797E-07;100 nA
-0,550537109375;361,746654086677;8,056640625E-09;-0,548736572265625;9;709;3,09964269399643E-07;-3,0643604695797E-07;100 nA
-0,50048828125;362,247142085414;9,979248046875E-09;-0,4989013671875;9;710;3,09964269399643E-07;-3,0643604695797E-07;100 nA
-0,450439453125;362,74763008415;1,2542724609375E-08;-0,448974609375;9;711;3,09964269399643E-07;-3,0643604695797E-07;100 nA
-0,400390625;363,248118082887;1,46484375E-08;-0,399139404296875;9;712;3,09964269399643E-07;-3,0643604695797E-07;100 nA
-0,350341796875;363,748606081623;1,568603515625E-08;-0,349212646484375;9;713;3,09964269399643E-07;-3,0643604695797E-07;100 nA
-0,30029296875;364,249094080359;1,629638671875E-08;-0,29931640625;9;714;3,09964269399643E-07;-3,0643604695797E-07;100 nA
-0,250244140625;364,749582079096;1,6693115234375E-08;-0,249481201171875;9;715;3,09964269399643E-07;-3,0643604695797E-07;100 nA
-0,2001953125;365,250070077832;1,6693115234375E-08;-0,1995849609375;9;716;3,09964269399643E-07;-3,0643604695797E-07;100 nA
-0,150146484375;365,750558076569;1,64794921875E-08;-0,149658203125;9;717;3,09964269399643E-07;-3,0643604695797E-07;100 nA
-0,10009765625;366,251046075305;1,666259765625E-08;-0,09979248046875;9;718;3,09964269399643E-07;-3,0643604695797E-07;100 nA
-0,050048828125;366,751534074041;1,654052734375E-08;-0,049957275390625;9;719;3,09964269399643E-07;-3,0643604695797E-07;100 nA
0;367,252022072778;1,715087890625E-08;0,000109863281249997;9;720;3,09964269399643E-07;-3,0643604695797E-07;100 nA
0,050048828125;367,752510071514;1,79443359375E-08;0,0501068115234375;10;721;3,09399142861366E-07;-3,07383015751839E-07;100 nA
0,10009765625;368,252998070251;1,77001953125E-08;0,0999755859375;10;722;3,09399142861366E-07;-3,07383015751839E-07;100 nA
0,150146484375;368,753486068987;1,86767578125E-08;0,149932861328125;10;723;3,09399142861366E-07;-3,07383015751839E-07;100 nA
0,2001953125;369,253974067723;1,9744873046875E-08;0,199920654296875;10;724;3,09399142861366E-07;-3,07383015751839E-07;100 nA
0,250244140625;369,75446206646;1,922607421875E-08;0,24993896484375;10;725;3,09399142861366E-07;-3,07383015751839E-07;100 nA
0,30029296875;370,254950065196;1,85546875E-08;0,2999267578125;10;726;3,09399142861366E-07;-3,07383015751839E-07;100 nA
0,350341796875;370,755438063933;2,0843505859375E-08;0,35003662109375;10;727;3,09399142861366E-07;-3,07383015751839E-07;100 nA
0,400390625;371,255926062669;2,0660400390625E-08;0,39996337890625;10;728;3,09399142861366E-07;-3,07383015751839E-07;100 nA
0,450439453125;371,756414061405;2,1240234375E-08;0,45001220703125;10;729;3,09399142861366E-07;-3,07383015751839E-07;100 nA
0,50048828125;372,256902060142;2,032470703125E-08;0,500030517578125;10;730;3,09399142861366E-07;-3,07383015751839E-07;100 nA
0,550537109375;372,757390058878;1,9012451171875E-08;0,550048828125;10;731;3,09399142861366E-07;-3,07383015751839E-07;100 nA
0,6005859375;373,257878057614;1,96533203125E-08;0,60003662109375;10;732;3,09399142861366E-07;-3,07383015751839E-07;100 nA
0,650634765625;373,758366056351;1,861572265625E-08;0,649993896484375;10;733;3,09399142861366E-07;-3,07383015751839E-07;100 nA
0,70068359375;374,258854055087;1,9073486328125E-08;0,699920654296875;10;734;3,09399142861366E-07;-3,07383015751839E-07;100 nA
0,750732421875;374,759342053824;1,806640625E-08;0,749847412109375;10;735;3,09399142861366E-07;-3,07383015751839E-07;100 nA
0,80078125;375,25983005256;2,1514892578125E-08;0,799560546875;10;736;3,09399142861366E-07;-3,07383015751839E-07;100 nA
0,850830078125;375,760318051296;1,86767578125E-08;0,84991455078125;10;737;3,09399142861366E-07;-3,07383015751839E-07;100 nA
0,90087890625;376,260806050033;1,8646240234375E-08;0,89996337890625;10;738;3,09399142861366E-07;-3,07383015751839E-07;100 nA
0,950927734375;376,761294048769;1,934814453125E-08;0,95001220703125;10;739;3,09399142861366E-07;-3,07383015751839E-07;100 nA
1,0009765625;377,261782047506;2,1514892578125E-08;0,99945068359375;10;740;3,09399142861366E-07;-3,07383015751839E-07;100 nA
0,950927734375;377,762270046242;1,4129638671875E-08;0,95001220703125;10;741;3,09399142861366E-07;-3,07383015751839E-07;100 nA
0,90087890625;378,262758044978;9,6435546875E-09;0,899658203125;10;742;3,09399142861366E-07;-3,07383015751839E-07;100 nA
0,850830078125;378,763246043715;6,103515625E-09;0,84930419921875;10;743;3,09399142861366E-07;-3,07383015751839E-07;100 nA
0,80078125;379,263734042451;3,753662109375E-09;0,79986572265625;10;744;3,09399142861366E-07;-3,07383015751839E-07;100 nA
0,750732421875;379,764222041188;2,0751953125E-09;0,7498779296875;10;745;3,09399142861366E-07;-3,07383015751839E-07;100 nA
0,70068359375;380,264710039924;8,23974609375E-10;0,70001220703125;10;746;3,09399142861366E-07;-3,07383015751839E-07;100 nA
0,650634765625;380,76519803866;-6,40869140625E-10;0,650115966796875;10;747;3,09399142861366E-07;-3,07383015751839E-07;100 nA
0,6005859375;381,265686037397;2,44140625E-10;0,600189208984375;10;748;3,09399142861366E-07;-3,07383015751839E-07;100 nA
0,550537109375;381,766174036133;-2,960205078125E-09;0,550201416015625;10;749;3,09399142861366E-07;-3,07383015751839E-07;100 nA
0,50048828125;382,266662034869;-5,43212890625E-09;0,50018310546875;10;750;3,09399142861366E-07;-3,07383015751839E-07;100 nA
0,450439453125;382,767150033606;-8,880615234375E-09;0,450103759765625;10;751;3,09399142861366E-07;-3,07383015751839E-07;100 nA
0,400390625;383,267638032342;-1,043701171875E-08;0,400177001953125;10;752;3,09399142861366E-07;-3,07383015751839E-07;100 nA
0,350341796875;383,768126031079;-1,190185546875E-08;0,35009765625;10;753;3,09399142861366E-07;-3,07383015751839E-07;100 nA
0,30029296875;384,268614029815;-1,2969970703125E-08;0,3001708984375;10;754;3,09399142861366E-07;-3,07383015751839E-07;100 nA
0,250244140625;384,769102028551;-1,3275146484375E-08;0,2501220703125;10;755;3,09399142861366E-07;-3,07383015751839E-07;100 nA
0,2001953125;385,269590027288;-1,397705078125E-08;0,2000732421875;10;756;3,09399142861366E-07;-3,07383015751839E-07;100 nA
0,150146484375;385,770078026024;-1,4129638671875E-08;0,15008544921875;10;757;3,09399142861366E-07;-3,07383015751839E-07;100 nA
0,10009765625;386,270566024761;-1,50146484375E-08;0,100128173828125;10;758;3,09399142861366E-07;-3,07383015751839E-07;100 nA
0,050048828125;386,771054023497;-1,5899658203125E-08;0,05010986328125;10;759;3,09399142861366E-07;-3,07383015751839E-07;100 nA
0;387,271542022233;-1,6876220703125E-08;0,000146484375000006;10;760;3,09399142861366E-07;-3,07383015751839E-07;100 nA
-0,050048828125;387,77203002097;-1,79443359375E-08;-0,0497283935546875;10;761;3,09399142861366E-07;-3,07383015751839E-07;100 nA
-0,10009765625;388,272518019706;-1,861572265625E-08;-0,099700927734375;10;762;3,09399142861366E-07;-3,07383015751839E-07;100 nA
-0,150146484375;388,773006018443;-1,9805908203125E-08;-0,14959716796875;10;763;3,09399142861366E-07;-3,07383015751839E-07;100 nA
-0,2001953125;389,273494017179;-2,0904541015625E-08;-0,199493408203125;10;764;3,09399142861366E-07;-3,07383015751839E-07;100 nA
-0,250244140625;389,773982015915;-2,2247314453125E-08;-0,249359130859375;10;765;3,09399142861366E-07;-3,07383015751839E-07;100 nA
-0,30029296875;390,274470014652;-2,2674560546875E-08;-0,2991943359375;10;766;3,09399142861366E-07;-3,07383015751839E-07;100 nA
-0,350341796875;390,774958013388;-2,3193359375E-08;-0,349151611328125;10;767;3,09399142861366E-07;-3,07383015751839E-07;100 nA
-0,400390625;391,275446012124;-2,337646484375E-08;-0,39898681640625;10;768;3,09399142861366E-07;-3,07383015751839E-07;100 nA
-0,450439453125;391,775934010861;-2,337646484375E-08;-0,448974609375;10;769;3,09399142861366E-07;-3,07383015751839E-07;100 nA
-0,50048828125;392,276422009597;-2,34375E-08;-0,498870849609375;10;770;3,09399142861366E-07;-3,07383015751839E-07;100 nA
-0,550537109375;392,776910008334;-2,349853515625E-08;-0,548736572265625;10;771;3,09399142861366E-07;-3,07383015751839E-07;100 nA
-0,6005859375;393,27739800707;-2,3712158203125E-08;-0,5986328125;10;772;3,09399142861366E-07;-3,07383015751839E-07;100 nA
-0,650634765625;393,777886005806;-2,410888671875E-08;-0,648590087890625;10;773;3,09399142861366E-07;-3,07383015751839E-07;100 nA
-0,70068359375;394,278374004543;-2,4627685546875E-08;-0,698516845703125;10;774;3,09399142861366E-07;-3,07383015751839E-07;100 nA
-0,750732421875;394,778862003279;-2,67333984375E-08;-0,748565673828125;10;775;3,09399142861366E-07;-3,07383015751839E-07;100 nA
-0,80078125;395,279350002016;-2,7679443359375E-08;-0,79864501953125;10;776;3,09399142861366E-07;-3,07383015751839E-07;100 nA
-0,850830078125;395,779838000752;-2,44140625E-08;-0,848388671875;10;777;3,09399142861366E-07;-3,07383015751839E-07;100 nA
-0,90087890625;396,280325999488;-1,94091796875E-08;-0,89874267578125;10;778;3,09399142861366E-07;-3,07383015751839E-07;100 nA
-0,950927734375;396,780813998225;-1,9073486328125E-08;-0,9490966796875;10;779;3,09399142861366E-07;-3,07383015751839E-07;100 nA
-1,0009765625;397,281301996961;-1,9012451171875E-08;-0,99884033203125;10;780;3,09399142861366E-07;-3,07383015751839E-07;100 nA
-0,950927734375;397,781789995698;-1,153564453125E-08;-0,94818115234375;10;781;3,09399142861366E-07;-3,07383015751839E-07;100 nA
-0,90087890625;398,282277994434;-6,89697265625E-09;-0,89874267578125;10;782;3,09399142861366E-07;-3,07383015751839E-07;100 nA
-0,850830078125;398,78276599317;-3,936767578125E-09;-0,84869384765625;10;783;3,09399142861366E-07;-3,07383015751839E-07;100 nA
-0,80078125;399,283253991907;-1,556396484375E-09;-0,79833984375;10;784;3,09399142861366E-07;-3,07383015751839E-07;100 nA
-0,750732421875;399,783741990643;3,35693359375E-10;-0,748565673828125;10;785;3,09399142861366E-07;-3,07383015751839E-07;100 nA
-0,70068359375;400,284229989379;2,01416015625E-09;-0,6986083984375;10;786;3,09399142861366E-07;-3,07383015751839E-07;100 nA
-0,650634765625;400,784717988116;3,448486328125E-09;-0,64862060546875;10;787;3,09399142861366E-07;-3,07383015751839E-07;100 nA
-0,6005859375;401,285205986852;5,859375E-09;-0,598663330078125;10;788;3,09399142861366E-07;-3,07383015751839E-07;100 nA
-0,550537109375;401,785693985589;7,87353515625E-09;-0,54876708984375;10;789;3,09399142861366E-07;-3,07383015751839E-07;100 nA
-0,50048828125;402,286181984325;1,0345458984375E-08;-0,49884033203125;10;790;3,09399142861366E-07;-3,07383015751839E-07;100 nA
-0,450439453125;402,786669983061;1,275634765625E-08;-0,448974609375;10;791;3,09399142861366E-07;-3,07383015751839E-07;100 nA
-0,400390625;403,287157981798;1,4739990234375E-08;-0,399078369140625;10;792;3,09399142861366E-07;-3,07383015751839E-07;100 nA
-0,350341796875;403,787645980534;1,605224609375E-08;-0,349151611328125;10;793;3,09399142861366E-07;-3,07383015751839E-07;100 nA
-0,30029296875;404,288133979271;1,67236328125E-08;-0,299224853515625;10;794;3,09399142861366E-07;-3,07383015751839E-07;100 nA
-0,250244140625;404,788621978007;1,69677734375E-08;-0,2493896484375;10;795;3,09399142861366E-07;-3,07383015751839E-07;100 nA
-0,2001953125;405,289109976743;1,6998291015625E-08;-0,199493408203125;10;796;3,09399142861366E-07;-3,07383015751839E-07;100 nA
-0,150146484375;405,78959797548;1,6937255859375E-08;-0,1495361328125;10;797;3,09399142861366E-07;-3,07383015751839E-07;100 nA
-0,10009765625;406,290085974216;1,702880859375E-08;-0,09967041015625;10;798;3,09399142861366E-07;-3,07383015751839E-07;100 nA
-0,050048828125;406,790573972953;1,6998291015625E-08;-0,04971923828125;10;799;3,09399142861366E-07;-3,07383015751839E-07;100 nA
0;407,291061971689;1,7303466796875E-08;0,0001373291015625;10;800;3,09399142861366E-07;-3,07383015751839E-07;100 nA
