Potential applied (V);Time (s);WE(1).Current (A);WE(1).Potential (V);Scan;Index;Q+;Q-;Current range
0,050048828125;7,39719298132388;2,8076171875E-09;0,050079345703125;1;1;1,15912035107613E-07;-1,26954913139343E-07;100 nA
0,10009765625;7,89768098006027;3,997802734375E-09;0,100067138671875;1;2;1,15912035107613E-07;-1,26954913139343E-07;100 nA
0,150146484375;8,39816897879666;5,06591796875E-09;0,15008544921875;1;3;1,15912035107613E-07;-1,26954913139343E-07;100 nA
0,2001953125;8,89865697753305;5,096435546875E-09;0,2000732421875;1;4;1,15912035107613E-07;-1,26954913139343E-07;100 nA
0,250244140625;9,39914497626944;5,55419921875E-09;0,2501220703125;1;5;1,15912035107613E-07;-1,26954913139343E-07;100 nA
0,30029296875;9,89963297500583;6,011962890625E-09;0,30010986328125;1;6;1,15912035107613E-07;-1,26954913139343E-07;100 nA
0,350341796875;10,4001209737422;5,950927734375E-09;0,350128173828125;1;7;1,15912035107613E-07;-1,26954913139343E-07;100 nA
0,400390625;10,9006089724786;6,77490234375E-09;0,400177001953125;1;8;1,15912035107613E-07;-1,26954913139343E-07;100 nA
0,450439453125;11,401096971215;7,2021484375E-09;0,450164794921875;1;9;1,15912035107613E-07;-1,26954913139343E-07;100 nA
0,50048828125;11,9015849699514;7,720947265625E-09;0,500213623046875;1;10;1,15912035107613E-07;-1,26954913139343E-07;100 nA
0,550537109375;12,4020729686878;7,354736328125E-09;0,550079345703125;1;11;1,15912035107613E-07;-1,26954913139343E-07;100 nA
0,6005859375;12,9025609674242;7,568359375E-09;0,600128173828125;1;12;1,15912035107613E-07;-1,26954913139343E-07;100 nA
0,650634765625;13,4030489661606;7,50732421875E-09;0,6500244140625;1;13;1,15912035107613E-07;-1,26954913139343E-07;100 nA
0,70068359375;13,9035369648969;7,568359375E-09;0,70001220703125;1;14;1,15912035107613E-07;-1,26954913139343E-07;100 nA
0,750732421875;14,4040249636333;7,720947265625E-09;0,7498779296875;1;15;1,15912035107613E-07;-1,26954913139343E-07;100 nA
0,80078125;14,9045129623697;8,148193359375E-09;0,79986572265625;1;16;1,15912035107613E-07;-1,26954913139343E-07;100 nA
0,850830078125;15,4050009611061;8,23974609375E-09;0,84991455078125;1;17;1,15912035107613E-07;-1,26954913139343E-07;100 nA
0,90087890625;15,9054889598425;8,697509765625E-09;0,89996337890625;1;18;1,15912035107613E-07;-1,26954913139343E-07;100 nA
0,950927734375;16,4059769585789;9,490966796875E-09;0,9490966796875;1;19;1,15912035107613E-07;-1,26954913139343E-07;100 nA
1,0009765625;16,9064649573153;1,104736328125E-08;0,999755859375;1;20;1,15912035107613E-07;-1,26954913139343E-07;100 nA
0,950927734375;17,4069529560517;5,401611328125E-09;0,94970703125;1;21;1,15912035107613E-07;-1,26954913139343E-07;100 nA
0,90087890625;17,9074409547881;3,7841796875E-09;0,899658203125;1;22;1,15912035107613E-07;-1,26954913139343E-07;100 nA
0,850830078125;18,4079289535244;6,40869140625E-10;0,84991455078125;1;23;1,15912035107613E-07;-1,26954913139343E-07;100 nA
0,80078125;18,9084169522608;-6,40869140625E-10;0,799560546875;1;24;1,15912035107613E-07;-1,26954913139343E-07;100 nA
0,750732421875;19,4089049509972;-1,52587890625E-10;0,749755859375;1;25;1,15912035107613E-07;-1,26954913139343E-07;100 nA
0,70068359375;19,9093929497336;-3,96728515625E-10;0,69989013671875;1;26;1,15912035107613E-07;-1,26954913139343E-07;100 nA
0,650634765625;20,40988094847;-2,8076171875E-09;0,6500244140625;1;27;1,15912035107613E-07;-1,26954913139343E-07;100 nA
0,6005859375;20,9103689472064;-2,25830078125E-09;0,600006103515625;1;28;1,15912035107613E-07;-1,26954913139343E-07;100 nA
0,550537109375;21,4108569459428;-2,777099609375E-09;0,550048828125;1;29;1,15912035107613E-07;-1,26954913139343E-07;100 nA
0,50048828125;21,9113449446792;-4,150390625E-09;0,499969482421875;1;30;1,15912035107613E-07;-1,26954913139343E-07;100 nA
0,450439453125;22,4118329434156;-3,936767578125E-09;0,45001220703125;1;31;1,15912035107613E-07;-1,26954913139343E-07;100 nA
0,400390625;22,912320942152;-3,60107421875E-09;0,400054931640625;1;32;1,15912035107613E-07;-1,26954913139343E-07;100 nA
0,350341796875;23,4128089408883;-3,631591796875E-09;0,350067138671875;1;33;1,15912035107613E-07;-1,26954913139343E-07;100 nA
0,30029296875;23,9132969396247;-3,936767578125E-09;0,300018310546875;1;34;1,15912035107613E-07;-1,26954913139343E-07;100 nA
0,250244140625;24,4137849383611;-3,90625E-09;0,25006103515625;1;35;1,15912035107613E-07;-1,26954913139343E-07;100 nA
0,2001953125;24,9142729370975;-4,39453125E-09;0,200042724609375;1;36;1,15912035107613E-07;-1,26954913139343E-07;100 nA
0,150146484375;25,4147609358339;-5,06591796875E-09;0,150054931640625;1;37;1,15912035107613E-07;-1,26954913139343E-07;100 nA
0,10009765625;25,9152489345703;-5,31005859375E-09;0,10003662109375;1;38;1,15912035107613E-07;-1,26954913139343E-07;100 nA
0,050048828125;26,4157369333067;-5,79833984375E-09;0,050079345703125;1;39;1,15912035107613E-07;-1,26954913139343E-07;100 nA
0;26,9162249320431;-6,40869140625E-09;0,000128173828124994;1;40;1,15912035107613E-07;-1,26954913139343E-07;100 nA
-0,050048828125;27,4167129307795;-6,8359375E-09;-0,0497222900390625;1;41;1,15912035107613E-07;-1,26954913139343E-07;100 nA
-0,10009765625;27,9172009295158;-7,171630859375E-09;-0,099700927734375;1;42;1,15912035107613E-07;-1,26954913139343E-07;100 nA
-0,150146484375;28,4176889282522;-7,415771484375E-09;-0,1495361328125;1;43;1,15912035107613E-07;-1,26954913139343E-07;100 nA
-0,2001953125;28,9181769269886;-7,476806640625E-09;-0,199432373046875;1;44;1,15912035107613E-07;-1,26954913139343E-07;100 nA
-0,250244140625;29,418664925725;-7,62939453125E-09;-0,249298095703125;1;45;1,15912035107613E-07;-1,26954913139343E-07;100 nA
-0,30029296875;29,9191529244614;-7,50732421875E-09;-0,299163818359375;1;46;1,15912035107613E-07;-1,26954913139343E-07;100 nA
-0,350341796875;30,4196409231978;-7,415771484375E-09;-0,34906005859375;1;47;1,15912035107613E-07;-1,26954913139343E-07;100 nA
-0,400390625;30,9201289219342;-8,23974609375E-09;-0,398956298828125;1;48;1,15912035107613E-07;-1,26954913139343E-07;100 nA
-0,450439453125;31,4206169206706;-8,758544921875E-09;-0,448883056640625;1;49;1,15912035107613E-07;-1,26954913139343E-07;100 nA
-0,50048828125;31,921104919407;-9,521484375E-09;-0,49871826171875;1;50;1,15912035107613E-07;-1,26954913139343E-07;100 nA
-0,550537109375;32,4215929181433;-1,11083984375E-08;-0,548675537109375;1;51;1,15912035107613E-07;-1,26954913139343E-07;100 nA
-0,6005859375;32,9220809168797;-1,26953125E-08;-0,5986328125;1;52;1,15912035107613E-07;-1,26954913139343E-07;100 nA
-0,650634765625;33,4225689156161;-1,495361328125E-08;-0,648590087890625;1;53;1,15912035107613E-07;-1,26954913139343E-07;100 nA
-0,70068359375;33,9230569143525;-1,361083984375E-08;-0,698516845703125;1;54;1,15912035107613E-07;-1,26954913139343E-07;100 nA
-0,750732421875;34,4235449130889;-9,21630859375E-09;-0,748565673828125;1;55;1,15912035107613E-07;-1,26954913139343E-07;100 nA
-0,80078125;34,9240329118253;-8,11767578125E-09;-0,79833984375;1;56;1,15912035107613E-07;-1,26954913139343E-07;100 nA
-0,850830078125;35,4245209105617;-8,48388671875E-09;-0,8489990234375;1;57;1,15912035107613E-07;-1,26954913139343E-07;100 nA
-0,90087890625;35,9250089092981;-8,941650390625E-09;-0,8984375;1;58;1,15912035107613E-07;-1,26954913139343E-07;100 nA
-0,950927734375;36,4254969080345;-9,1552734375E-09;-0,948486328125;1;59;1,15912035107613E-07;-1,26954913139343E-07;100 nA
-1,0009765625;36,9259849067709;-9,307861328125E-09;-0,99884033203125;1;60;1,15912035107613E-07;-1,26954913139343E-07;100 nA
-0,950927734375;37,4264729055072;-5,279541015625E-09;-0,948486328125;1;61;1,15912035107613E-07;-1,26954913139343E-07;100 nA
-0,90087890625;37,9269609042436;-3,0517578125E-09;-0,89874267578125;1;62;1,15912035107613E-07;-1,26954913139343E-07;100 nA
-0,850830078125;38,42744890298;-1,556396484375E-09;-0,848388671875;1;63;1,15912035107613E-07;-1,26954913139343E-07;100 nA
-0,80078125;38,9279369017164;-9,765625E-10;-0,7989501953125;1;64;1,15912035107613E-07;-1,26954913139343E-07;100 nA
-0,750732421875;39,4284249004528;-6,103515625E-11;-0,74871826171875;1;65;1,15912035107613E-07;-1,26954913139343E-07;100 nA
-0,70068359375;39,9289128991892;6,40869140625E-10;-0,69873046875;1;66;1,15912035107613E-07;-1,26954913139343E-07;100 nA
-0,650634765625;40,4294008979256;1,64794921875E-09;-0,648712158203125;1;67;1,15912035107613E-07;-1,26954913139343E-07;100 nA
-0,6005859375;40,929888896662;3,0517578125E-09;-0,598724365234375;1;68;1,15912035107613E-07;-1,26954913139343E-07;100 nA
-0,550537109375;41,4303768953984;4,913330078125E-09;-0,548797607421875;1;69;1,15912035107613E-07;-1,26954913139343E-07;100 nA
-0,50048828125;41,9308648941347;6,9580078125E-09;-0,498931884765625;1;70;1,15912035107613E-07;-1,26954913139343E-07;100 nA
-0,450439453125;42,4313528928711;8,026123046875E-09;-0,448944091796875;1;71;1,15912035107613E-07;-1,26954913139343E-07;100 nA
-0,400390625;42,9318408916075;7,8125E-09;-0,399078369140625;1;72;1,15912035107613E-07;-1,26954913139343E-07;100 nA
-0,350341796875;43,4323288903439;6,744384765625E-09;-0,349212646484375;1;73;1,15912035107613E-07;-1,26954913139343E-07;100 nA
-0,30029296875;43,9328168890803;6,195068359375E-09;-0,299285888671875;1;74;1,15912035107613E-07;-1,26954913139343E-07;100 nA
-0,250244140625;44,4333048878167;6,011962890625E-09;-0,24932861328125;1;75;1,15912035107613E-07;-1,26954913139343E-07;100 nA
-0,2001953125;44,9337928865531;5,889892578125E-09;-0,199432373046875;1;76;1,15912035107613E-07;-1,26954913139343E-07;100 nA
-0,150146484375;45,4342808852895;5,889892578125E-09;-0,1495361328125;1;77;1,15912035107613E-07;-1,26954913139343E-07;100 nA
-0,10009765625;45,9347688840259;6,011962890625E-09;-0,099609375;1;78;1,15912035107613E-07;-1,26954913139343E-07;100 nA
-0,050048828125;46,4352568827622;6,16455078125E-09;-0,0498046875;1;79;1,15912035107613E-07;-1,26954913139343E-07;100 nA
0;46,9357448814986;6,28662109375E-09;0,000131225585937506;1;80;1,15912035107613E-07;-1,26954913139343E-07;100 nA
0,050048828125;47,436232880235;6,561279296875E-09;0,050079345703125;2;81;1,28146260976791E-07;-1,22785195708275E-07;100 nA
0,10009765625;47,9367208789714;6,805419921875E-09;0,10015869140625;2;82;1,28146260976791E-07;-1,22785195708275E-07;100 nA
0,150146484375;48,4372088777078;6,805419921875E-09;0,15008544921875;2;83;1,28146260976791E-07;-1,22785195708275E-07;100 nA
0,2001953125;48,9376968764442;6,988525390625E-09;0,200103759765625;2;84;1,28146260976791E-07;-1,22785195708275E-07;100 nA
0,250244140625;49,4381848751806;7,01904296875E-09;0,2501220703125;2;85;1,28146260976791E-07;-1,22785195708275E-07;100 nA
0,30029296875;49,938672873917;7,14111328125E-09;0,300140380859375;2;86;1,28146260976791E-07;-1,22785195708275E-07;100 nA
0,350341796875;50,4391608726534;7,50732421875E-09;0,3502197265625;2;87;1,28146260976791E-07;-1,22785195708275E-07;100 nA
0,400390625;50,9396488713898;7,659912109375E-09;0,40008544921875;2;88;1,28146260976791E-07;-1,22785195708275E-07;100 nA
0,450439453125;51,4401368701261;8,331298828125E-09;0,450103759765625;2;89;1,28146260976791E-07;-1,22785195708275E-07;100 nA
0,50048828125;51,9406248688625;8,4228515625E-09;0,500213623046875;2;90;1,28146260976791E-07;-1,22785195708275E-07;100 nA
0,550537109375;52,4411128675989;8,209228515625E-09;0,5501708984375;2;91;1,28146260976791E-07;-1,22785195708275E-07;100 nA
0,6005859375;52,9416008663353;7,965087890625E-09;0,600128173828125;2;92;1,28146260976791E-07;-1,22785195708275E-07;100 nA
0,650634765625;53,4420888650717;8,056640625E-09;0,650115966796875;2;93;1,28146260976791E-07;-1,22785195708275E-07;100 nA
0,70068359375;53,9425768638081;8,026123046875E-09;0,69989013671875;2;94;1,28146260976791E-07;-1,22785195708275E-07;100 nA
0,750732421875;54,4430648625445;8,148193359375E-09;0,74981689453125;2;95;1,28146260976791E-07;-1,22785195708275E-07;100 nA
0,80078125;54,9435528612809;8,4228515625E-09;0,79986572265625;2;96;1,28146260976791E-07;-1,22785195708275E-07;100 nA
0,850830078125;55,4440408600173;8,697509765625E-09;0,849609375;2;97;1,28146260976791E-07;-1,22785195708275E-07;100 nA
0,90087890625;55,9445288587536;9,27734375E-09;0,89935302734375;2;98;1,28146260976791E-07;-1,22785195708275E-07;100 nA
0,950927734375;56,44501685749;1,0406494140625E-08;0,94940185546875;2;99;1,28146260976791E-07;-1,22785195708275E-07;100 nA
1,0009765625;56,9455048562264;1,2298583984375E-08;0,999755859375;2;100;1,28146260976791E-07;-1,22785195708275E-07;100 nA
0,950927734375;57,4459928549628;5,767822265625E-09;0,9490966796875;2;101;1,28146260976791E-07;-1,22785195708275E-07;100 nA
0,90087890625;57,9464808536992;2,777099609375E-09;0,899658203125;2;102;1,28146260976791E-07;-1,22785195708275E-07;100 nA
0,850830078125;58,4469688524356;9,765625E-10;0,84991455078125;2;103;1,28146260976791E-07;-1,22785195708275E-07;100 nA
0,80078125;58,947456851172;-3,0517578125E-11;0,79986572265625;2;104;1,28146260976791E-07;-1,22785195708275E-07;100 nA
0,750732421875;59,4479448499084;-3,662109375E-10;0,74981689453125;2;105;1,28146260976791E-07;-1,22785195708275E-07;100 nA
0,70068359375;59,9484328486448;-1,068115234375E-09;0,699920654296875;2;106;1,28146260976791E-07;-1,22785195708275E-07;100 nA
0,650634765625;60,4489208473811;-1,312255859375E-09;0,649932861328125;2;107;1,28146260976791E-07;-1,22785195708275E-07;100 nA
0,6005859375;60,9494088461175;-1,64794921875E-09;0,60003662109375;2;108;1,28146260976791E-07;-1,22785195708275E-07;100 nA
0,550537109375;61,4498968448539;-2,197265625E-09;0,550079345703125;2;109;1,28146260976791E-07;-1,22785195708275E-07;100 nA
0,50048828125;61,9503848435903;-3,570556640625E-09;0,500030517578125;2;110;1,28146260976791E-07;-1,22785195708275E-07;100 nA
0,450439453125;62,4508728423267;-4,364013671875E-09;0,450042724609375;2;111;1,28146260976791E-07;-1,22785195708275E-07;100 nA
0,400390625;62,9513608410631;-3,509521484375E-09;0,400054931640625;2;112;1,28146260976791E-07;-1,22785195708275E-07;100 nA
0,350341796875;63,4518488397995;-3,41796875E-09;0,350067138671875;2;113;1,28146260976791E-07;-1,22785195708275E-07;100 nA
0,30029296875;63,9523368385359;-4,150390625E-09;0,300048828125;2;114;1,28146260976791E-07;-1,22785195708275E-07;100 nA
0,250244140625;64,4528248372723;-4,39453125E-09;0,25;2;115;1,28146260976791E-07;-1,22785195708275E-07;100 nA
0,2001953125;64,9533128360086;-4,913330078125E-09;0,199981689453125;2;116;1,28146260976791E-07;-1,22785195708275E-07;100 nA
0,150146484375;65,453800834745;-5,157470703125E-09;0,1500244140625;2;117;1,28146260976791E-07;-1,22785195708275E-07;100 nA
0,10009765625;65,9542888334814;-5,43212890625E-09;0,099945068359375;2;118;1,28146260976791E-07;-1,22785195708275E-07;100 nA
0,050048828125;66,4547768322178;-6,16455078125E-09;0,050115966796875;2;119;1,28146260976791E-07;-1,22785195708275E-07;100 nA
0;66,9552648309542;-6,805419921875E-09;0,000112915039062494;2;120;1,28146260976791E-07;-1,22785195708275E-07;100 nA
-0,050048828125;67,4557528296906;-7,171630859375E-09;-0,04986572265625;2;121;1,28146260976791E-07;-1,22785195708275E-07;100 nA
-0,10009765625;67,956240828427;-7,568359375E-09;-0,099761962890625;2;122;1,28146260976791E-07;-1,22785195708275E-07;100 nA
-0,150146484375;68,4567288271634;-7,659912109375E-09;-0,149627685546875;2;123;1,28146260976791E-07;-1,22785195708275E-07;100 nA
-0,2001953125;68,9572168258998;-7,8125E-09;-0,199432373046875;2;124;1,28146260976791E-07;-1,22785195708275E-07;100 nA
-0,250244140625;69,4577048246362;-7,87353515625E-09;-0,2493896484375;2;125;1,28146260976791E-07;-1,22785195708275E-07;100 nA
-0,30029296875;69,9581928233725;-8,026123046875E-09;-0,299285888671875;2;126;1,28146260976791E-07;-1,22785195708275E-07;100 nA
-0,350341796875;70,4586808221089;-8,23974609375E-09;-0,349151611328125;2;127;1,28146260976791E-07;-1,22785195708275E-07;100 nA
-0,400390625;70,9591688208453;-8,544921875E-09;-0,399078369140625;2;128;1,28146260976791E-07;-1,22785195708275E-07;100 nA
-0,450439453125;71,4596568195817;-8,941650390625E-09;-0,44891357421875;2;129;1,28146260976791E-07;-1,22785195708275E-07;100 nA
-0,50048828125;71,9601448183181;-9,6435546875E-09;-0,498809814453125;2;130;1,28146260976791E-07;-1,22785195708275E-07;100 nA
-0,550537109375;72,4606328170545;-1,07421875E-08;-0,5487060546875;2;131;1,28146260976791E-07;-1,22785195708275E-07;100 nA
-0,6005859375;72,9611208157909;-1,2481689453125E-08;-0,598602294921875;2;132;1,28146260976791E-07;-1,22785195708275E-07;100 nA
-0,650634765625;73,4616088145273;-1,446533203125E-08;-0,648529052734375;2;133;1,28146260976791E-07;-1,22785195708275E-07;100 nA
-0,70068359375;73,9620968132637;-1,220703125E-08;-0,698486328125;2;134;1,28146260976791E-07;-1,22785195708275E-07;100 nA
-0,750732421875;74,462584812;-8,026123046875E-09;-0,74853515625;2;135;1,28146260976791E-07;-1,22785195708275E-07;100 nA
-0,80078125;74,9630728107364;-7,38525390625E-09;-0,79803466796875;2;136;1,28146260976791E-07;-1,22785195708275E-07;100 nA
-0,850830078125;75,4635608094728;-7,659912109375E-09;-0,8489990234375;2;137;1,28146260976791E-07;-1,22785195708275E-07;100 nA
-0,90087890625;75,9640488082092;-7,99560546875E-09;-0,89874267578125;2;138;1,28146260976791E-07;-1,22785195708275E-07;100 nA
-0,950927734375;76,4645368069456;-8,209228515625E-09;-0,94879150390625;2;139;1,28146260976791E-07;-1,22785195708275E-07;100 nA
-1,0009765625;76,965024805682;-8,23974609375E-09;-0,99884033203125;2;140;1,28146260976791E-07;-1,22785195708275E-07;100 nA
-0,950927734375;77,4655128044184;-4,2724609375E-09;-0,9490966796875;2;141;1,28146260976791E-07;-1,22785195708275E-07;100 nA
-0,90087890625;77,9660008031548;-2,25830078125E-09;-0,89874267578125;2;142;1,28146260976791E-07;-1,22785195708275E-07;100 nA
-0,850830078125;78,4664888018912;-9,765625E-10;-0,848388671875;2;143;1,28146260976791E-07;-1,22785195708275E-07;100 nA
-0,80078125;78,9669768006275;-4,2724609375E-10;-0,79803466796875;2;144;1,28146260976791E-07;-1,22785195708275E-07;100 nA
-0,750732421875;79,4674647993639;5,79833984375E-10;-0,748504638671875;2;145;1,28146260976791E-07;-1,22785195708275E-07;100 nA
-0,70068359375;79,9679527981003;1,40380859375E-09;-0,698577880859375;2;146;1,28146260976791E-07;-1,22785195708275E-07;100 nA
-0,650634765625;80,4684407968367;1,800537109375E-09;-0,648468017578125;2;147;1,28146260976791E-07;-1,22785195708275E-07;100 nA
-0,6005859375;80,9689287955731;4,0283203125E-09;-0,598602294921875;2;148;1,28146260976791E-07;-1,22785195708275E-07;100 nA
-0,550537109375;81,4694167943095;5,0048828125E-09;-0,548736572265625;2;149;1,28146260976791E-07;-1,22785195708275E-07;100 nA
-0,50048828125;81,9699047930459;7,14111328125E-09;-0,498809814453125;2;150;1,28146260976791E-07;-1,22785195708275E-07;100 nA
-0,450439453125;82,4703927917823;8,087158203125E-09;-0,448944091796875;2;151;1,28146260976791E-07;-1,22785195708275E-07;100 nA
-0,400390625;82,9708807905187;7,659912109375E-09;-0,399078369140625;2;152;1,28146260976791E-07;-1,22785195708275E-07;100 nA
-0,350341796875;83,4713687892551;6,622314453125E-09;-0,34918212890625;2;153;1,28146260976791E-07;-1,22785195708275E-07;100 nA
-0,30029296875;83,9718567879914;6,195068359375E-09;-0,29925537109375;2;154;1,28146260976791E-07;-1,22785195708275E-07;100 nA
-0,250244140625;84,4723447867278;5,79833984375E-09;-0,249359130859375;2;155;1,28146260976791E-07;-1,22785195708275E-07;100 nA
-0,2001953125;84,9728327854642;5,67626953125E-09;-0,199462890625;2;156;1,28146260976791E-07;-1,22785195708275E-07;100 nA
-0,150146484375;85,4733207842006;5,67626953125E-09;-0,149627685546875;2;157;1,28146260976791E-07;-1,22785195708275E-07;100 nA
-0,10009765625;85,973808782937;5,706787109375E-09;-0,099761962890625;2;158;1,28146260976791E-07;-1,22785195708275E-07;100 nA
-0,050048828125;86,4742967816734;6,134033203125E-09;-0,049896240234375;2;159;1,28146260976791E-07;-1,22785195708275E-07;100 nA
0;86,9747847804098;6,256103515625E-09;0,000109863281249997;2;160;1,28146260976791E-07;-1,22785195708275E-07;100 nA
0,050048828125;87,4752727791462;6,28662109375E-09;0,050018310546875;3;161;1,25274807214737E-07;-1,20173394680023E-07;100 nA
0,10009765625;87,9757607778826;5,950927734375E-09;0,0999755859375;3;162;1,25274807214737E-07;-1,20173394680023E-07;100 nA
0,150146484375;88,4762487766189;6,28662109375E-09;0,149993896484375;3;163;1,25274807214737E-07;-1,20173394680023E-07;100 nA
0,2001953125;88,9767367753553;6,195068359375E-09;0,199951171875;3;164;1,25274807214737E-07;-1,20173394680023E-07;100 nA
0,250244140625;89,4772247740917;6,53076171875E-09;0,25;3;165;1,25274807214737E-07;-1,20173394680023E-07;100 nA
0,30029296875;89,9777127728281;6,622314453125E-09;0,299957275390625;3;166;1,25274807214737E-07;-1,20173394680023E-07;100 nA
0,350341796875;90,4782007715645;6,9580078125E-09;0,349945068359375;3;167;1,25274807214737E-07;-1,20173394680023E-07;100 nA
0,400390625;90,9786887703009;7,62939453125E-09;0,400054931640625;3;168;1,25274807214737E-07;-1,20173394680023E-07;100 nA
0,450439453125;91,4791767690373;8,209228515625E-09;0,45001220703125;3;169;1,25274807214737E-07;-1,20173394680023E-07;100 nA
0,50048828125;91,9796647677737;8,36181640625E-09;0,500030517578125;3;170;1,25274807214737E-07;-1,20173394680023E-07;100 nA
0,550537109375;92,4801527665101;8,11767578125E-09;0,550048828125;3;171;1,25274807214737E-07;-1,20173394680023E-07;100 nA
0,6005859375;92,9806407652464;7,8125E-09;0,60009765625;3;172;1,25274807214737E-07;-1,20173394680023E-07;100 nA
0,650634765625;93,4811287639828;7,87353515625E-09;0,6500244140625;3;173;1,25274807214737E-07;-1,20173394680023E-07;100 nA
0,70068359375;93,9816167627192;7,99560546875E-09;0,69989013671875;3;174;1,25274807214737E-07;-1,20173394680023E-07;100 nA
0,750732421875;94,4821047614556;8,1787109375E-09;0,7498779296875;3;175;1,25274807214737E-07;-1,20173394680023E-07;100 nA
0,80078125;94,982592760192;8,453369140625E-09;0,8001708984375;3;176;1,25274807214737E-07;-1,20173394680023E-07;100 nA
0,850830078125;95,4830807589284;8,880615234375E-09;0,84991455078125;3;177;1,25274807214737E-07;-1,20173394680023E-07;100 nA
0,90087890625;95,9835687576648;9,613037109375E-09;0,8990478515625;3;178;1,25274807214737E-07;-1,20173394680023E-07;100 nA
0,950927734375;96,4840567564012;1,0833740234375E-08;0,9490966796875;3;179;1,25274807214737E-07;-1,20173394680023E-07;100 nA
1,0009765625;96,9845447551376;1,2939453125E-08;0,9991455078125;3;180;1,25274807214737E-07;-1,20173394680023E-07;100 nA
0,950927734375;97,485032753874;6,500244140625E-09;0,94970703125;3;181;1,25274807214737E-07;-1,20173394680023E-07;100 nA
0,90087890625;97,9855207526103;3,204345703125E-09;0,89935302734375;3;182;1,25274807214737E-07;-1,20173394680023E-07;100 nA
0,850830078125;98,4860087513467;1,434326171875E-09;0,84991455078125;3;183;1,25274807214737E-07;-1,20173394680023E-07;100 nA
0,80078125;98,9864967500831;4,2724609375E-10;0,79986572265625;3;184;1,25274807214737E-07;-1,20173394680023E-07;100 nA
0,750732421875;99,4869847488195;-3,96728515625E-10;0,749847412109375;3;185;1,25274807214737E-07;-1,20173394680023E-07;100 nA
0,70068359375;99,9874727475559;-6,7138671875E-10;0,699981689453125;3;186;1,25274807214737E-07;-1,20173394680023E-07;100 nA
0,650634765625;100,487960746292;-1,0986328125E-09;0,65008544921875;3;187;1,25274807214737E-07;-1,20173394680023E-07;100 nA
0,6005859375;100,988448745029;-1,46484375E-09;0,600067138671875;3;188;1,25274807214737E-07;-1,20173394680023E-07;100 nA
0,550537109375;101,488936743765;-2,197265625E-09;0,550140380859375;3;189;1,25274807214737E-07;-1,20173394680023E-07;100 nA
0,50048828125;101,989424742501;-3,204345703125E-09;0,500091552734375;3;190;1,25274807214737E-07;-1,20173394680023E-07;100 nA
0,450439453125;102,489912741238;-4,364013671875E-09;0,4500732421875;3;191;1,25274807214737E-07;-1,20173394680023E-07;100 nA
0,400390625;102,990400739974;-3,509521484375E-09;0,40008544921875;3;192;1,25274807214737E-07;-1,20173394680023E-07;100 nA
0,350341796875;103,490888738711;-3,5400390625E-09;0,350067138671875;3;193;1,25274807214737E-07;-1,20173394680023E-07;100 nA
0,30029296875;103,991376737447;-4,21142578125E-09;0,300079345703125;3;194;1,25274807214737E-07;-1,20173394680023E-07;100 nA
0,250244140625;104,491864736183;-4,2724609375E-09;0,250030517578125;3;195;1,25274807214737E-07;-1,20173394680023E-07;100 nA
0,2001953125;104,99235273492;-4,486083984375E-09;0,2000732421875;3;196;1,25274807214737E-07;-1,20173394680023E-07;100 nA
0,150146484375;105,492840733656;-4,913330078125E-09;0,150054931640625;3;197;1,25274807214737E-07;-1,20173394680023E-07;100 nA
0,10009765625;105,993328732393;-5,706787109375E-09;0,100006103515625;3;198;1,25274807214737E-07;-1,20173394680023E-07;100 nA
0,050048828125;106,493816731129;-5,67626953125E-09;0,050103759765625;3;199;1,25274807214737E-07;-1,20173394680023E-07;100 nA
0;106,994304729865;-6,34765625E-09;0,000115966796875006;3;200;1,25274807214737E-07;-1,20173394680023E-07;100 nA
-0,050048828125;107,494792728602;-7,080078125E-09;-0,049896240234375;3;201;1,25274807214737E-07;-1,20173394680023E-07;100 nA
-0,10009765625;107,995280727338;-7,568359375E-09;-0,0997314453125;3;202;1,25274807214737E-07;-1,20173394680023E-07;100 nA
-0,150146484375;108,495768726075;-7,659912109375E-09;-0,149566650390625;3;203;1,25274807214737E-07;-1,20173394680023E-07;100 nA
-0,2001953125;108,996256724811;-7,781982421875E-09;-0,199462890625;3;204;1,25274807214737E-07;-1,20173394680023E-07;100 nA
-0,250244140625;109,496744723547;-7,75146484375E-09;-0,249359130859375;3;205;1,25274807214737E-07;-1,20173394680023E-07;100 nA
-0,30029296875;109,997232722284;-7,781982421875E-09;-0,299224853515625;3;206;1,25274807214737E-07;-1,20173394680023E-07;100 nA
-0,350341796875;110,49772072102;-8,48388671875E-09;-0,349151611328125;3;207;1,25274807214737E-07;-1,20173394680023E-07;100 nA
-0,400390625;110,998208719756;-8,697509765625E-09;-0,399078369140625;3;208;1,25274807214737E-07;-1,20173394680023E-07;100 nA
-0,450439453125;111,498696718493;-8,85009765625E-09;-0,448944091796875;3;209;1,25274807214737E-07;-1,20173394680023E-07;100 nA
-0,50048828125;111,999184717229;-9,429931640625E-09;-0,498809814453125;3;210;1,25274807214737E-07;-1,20173394680023E-07;100 nA
-0,550537109375;112,499672715966;-1,0650634765625E-08;-0,548736572265625;3;211;1,25274807214737E-07;-1,20173394680023E-07;100 nA
-0,6005859375;113,000160714702;-1,23291015625E-08;-0,59857177734375;3;212;1,25274807214737E-07;-1,20173394680023E-07;100 nA
-0,650634765625;113,500648713438;-1,4129638671875E-08;-0,648529052734375;3;213;1,25274807214737E-07;-1,20173394680023E-07;100 nA
-0,70068359375;114,001136712175;-1,123046875E-08;-0,698486328125;3;214;1,25274807214737E-07;-1,20173394680023E-07;100 nA
-0,750732421875;114,501624710911;-7,293701171875E-09;-0,74847412109375;3;215;1,25274807214737E-07;-1,20173394680023E-07;100 nA
-0,80078125;115,002112709648;-7,110595703125E-09;-0,79864501953125;3;216;1,25274807214737E-07;-1,20173394680023E-07;100 nA
-0,850830078125;115,502600708384;-7,537841796875E-09;-0,8489990234375;3;217;1,25274807214737E-07;-1,20173394680023E-07;100 nA
-0,90087890625;116,00308870712;-7,720947265625E-09;-0,89874267578125;3;218;1,25274807214737E-07;-1,20173394680023E-07;100 nA
-0,950927734375;116,503576705857;-7,904052734375E-09;-0,9490966796875;3;219;1,25274807214737E-07;-1,20173394680023E-07;100 nA
-1,0009765625;117,004064704593;-8,056640625E-09;-0,99884033203125;3;220;1,25274807214737E-07;-1,20173394680023E-07;100 nA
-0,950927734375;117,50455270333;-4,82177734375E-09;-0,948486328125;3;221;1,25274807214737E-07;-1,20173394680023E-07;100 nA
-0,90087890625;118,005040702066;-2,62451171875E-09;-0,8984375;3;222;1,25274807214737E-07;-1,20173394680023E-07;100 nA
-0,850830078125;118,505528700802;-1,28173828125E-09;-0,8489990234375;3;223;1,25274807214737E-07;-1,20173394680023E-07;100 nA
-0,80078125;119,006016699539;-2,74658203125E-10;-0,7989501953125;3;224;1,25274807214737E-07;-1,20173394680023E-07;100 nA
-0,750732421875;119,506504698275;3,0517578125E-10;-0,748565673828125;3;225;1,25274807214737E-07;-1,20173394680023E-07;100 nA
-0,70068359375;120,006992697011;1,15966796875E-09;-0,69854736328125;3;226;1,25274807214737E-07;-1,20173394680023E-07;100 nA
-0,650634765625;120,507480695748;1,861572265625E-09;-0,64862060546875;3;227;1,25274807214737E-07;-1,20173394680023E-07;100 nA
-0,6005859375;121,007968694484;3,082275390625E-09;-0,5986328125;3;228;1,25274807214737E-07;-1,20173394680023E-07;100 nA
-0,550537109375;121,508456693221;4,486083984375E-09;-0,548797607421875;3;229;1,25274807214737E-07;-1,20173394680023E-07;100 nA
-0,50048828125;122,008944691957;6,011962890625E-09;-0,498870849609375;3;230;1,25274807214737E-07;-1,20173394680023E-07;100 nA
-0,450439453125;122,509432690693;7,2021484375E-09;-0,449005126953125;3;231;1,25274807214737E-07;-1,20173394680023E-07;100 nA
-0,400390625;123,00992068943;7,14111328125E-09;-0,39910888671875;3;232;1,25274807214737E-07;-1,20173394680023E-07;100 nA
-0,350341796875;123,510408688166;6,561279296875E-09;-0,349273681640625;3;233;1,25274807214737E-07;-1,20173394680023E-07;100 nA
-0,30029296875;124,010896686903;6,103515625E-09;-0,299407958984375;3;234;1,25274807214737E-07;-1,20173394680023E-07;100 nA
-0,250244140625;124,511384685639;5,462646484375E-09;-0,249481201171875;3;235;1,25274807214737E-07;-1,20173394680023E-07;100 nA
-0,2001953125;125,011872684375;5,706787109375E-09;-0,1995849609375;3;236;1,25274807214737E-07;-1,20173394680023E-07;100 nA
-0,150146484375;125,512360683112;5,828857421875E-09;-0,149658203125;3;237;1,25274807214737E-07;-1,20173394680023E-07;100 nA
-0,10009765625;126,012848681848;5,79833984375E-09;-0,099822998046875;3;238;1,25274807214737E-07;-1,20173394680023E-07;100 nA
-0,050048828125;126,513336680585;6,011962890625E-09;-0,049835205078125;3;239;1,25274807214737E-07;-1,20173394680023E-07;100 nA
0;127,013824679321;6,28662109375E-09;0,000143432617187494;3;240;1,25274807214737E-07;-1,20173394680023E-07;100 nA
0,050048828125;127,514312678057;6,500244140625E-09;0,050079345703125;4;241;1,26863270998001E-07;-1,19012594223022E-07;100 nA
0,10009765625;128,014800676794;6,744384765625E-09;0,10003662109375;4;242;1,26863270998001E-07;-1,19012594223022E-07;100 nA
0,150146484375;128,51528867553;6,65283203125E-09;0,15008544921875;4;243;1,26863270998001E-07;-1,19012594223022E-07;100 nA
0,2001953125;129,015776674266;6,866455078125E-09;0,2000732421875;4;244;1,26863270998001E-07;-1,19012594223022E-07;100 nA
0,250244140625;129,516264673003;6,195068359375E-09;0,25006103515625;4;245;1,26863270998001E-07;-1,19012594223022E-07;100 nA
0,30029296875;130,016752671739;7,50732421875E-09;0,30010986328125;4;246;1,26863270998001E-07;-1,19012594223022E-07;100 nA
0,350341796875;130,517240670476;6,2255859375E-09;0,350128173828125;4;247;1,26863270998001E-07;-1,19012594223022E-07;100 nA
0,400390625;131,017728669212;8,026123046875E-09;0,400146484375;4;248;1,26863270998001E-07;-1,19012594223022E-07;100 nA
0,450439453125;131,518216667948;1,13525390625E-08;0,45013427734375;4;249;1,26863270998001E-07;-1,19012594223022E-07;100 nA
0,50048828125;132,018704666685;9,246826171875E-09;0,500091552734375;4;250;1,26863270998001E-07;-1,19012594223022E-07;100 nA
0,550537109375;132,519192665421;7,8125E-09;0,5501708984375;4;251;1,26863270998001E-07;-1,19012594223022E-07;100 nA
0,6005859375;133,019680664158;7,9345703125E-09;0,60009765625;4;252;1,26863270998001E-07;-1,19012594223022E-07;100 nA
0,650634765625;133,520168662894;8,331298828125E-09;0,6500244140625;4;253;1,26863270998001E-07;-1,19012594223022E-07;100 nA
0,70068359375;134,02065666163;8,331298828125E-09;0,70001220703125;4;254;1,26863270998001E-07;-1,19012594223022E-07;100 nA
0,750732421875;134,521144660367;8,209228515625E-09;0,7498779296875;4;255;1,26863270998001E-07;-1,19012594223022E-07;100 nA
0,80078125;135,021632659103;8,30078125E-09;0,79986572265625;4;256;1,26863270998001E-07;-1,19012594223022E-07;100 nA
0,850830078125;135,52212065784;8,85009765625E-09;0,84930419921875;4;257;1,26863270998001E-07;-1,19012594223022E-07;100 nA
0,90087890625;136,022608656576;9,552001953125E-09;0,89935302734375;4;258;1,26863270998001E-07;-1,19012594223022E-07;100 nA
0,950927734375;136,523096655312;1,0894775390625E-08;0,94940185546875;4;259;1,26863270998001E-07;-1,19012594223022E-07;100 nA
1,0009765625;137,023584654049;1,30615234375E-08;0,99945068359375;4;260;1,26863270998001E-07;-1,19012594223022E-07;100 nA
0,950927734375;137,524072652785;6,53076171875E-09;0,94970703125;4;261;1,26863270998001E-07;-1,19012594223022E-07;100 nA
0,90087890625;138,024560651521;2,74658203125E-09;0,89935302734375;4;262;1,26863270998001E-07;-1,19012594223022E-07;100 nA
0,850830078125;138,525048650258;1,129150390625E-09;0,84991455078125;4;263;1,26863270998001E-07;-1,19012594223022E-07;100 nA
0,80078125;139,025536648994;0;0,799560546875;4;264;1,26863270998001E-07;-1,19012594223022E-07;100 nA
0,750732421875;139,526024647731;-2,13623046875E-10;0,74981689453125;4;265;1,26863270998001E-07;-1,19012594223022E-07;100 nA
0,70068359375;140,026512646467;-9,1552734375E-10;0,699859619140625;4;266;1,26863270998001E-07;-1,19012594223022E-07;100 nA
0,650634765625;140,527000645203;-8,85009765625E-10;0,6500244140625;4;267;1,26863270998001E-07;-1,19012594223022E-07;100 nA
0,6005859375;141,02748864394;-1,64794921875E-09;0,60003662109375;4;268;1,26863270998001E-07;-1,19012594223022E-07;100 nA
0,550537109375;141,527976642676;-2,44140625E-09;0,550018310546875;4;269;1,26863270998001E-07;-1,19012594223022E-07;100 nA
0,50048828125;142,028464641413;-3,60107421875E-09;0,499969482421875;4;270;1,26863270998001E-07;-1,19012594223022E-07;100 nA
0,450439453125;142,528952640149;-4,69970703125E-09;0,45001220703125;4;271;1,26863270998001E-07;-1,19012594223022E-07;100 nA
0,400390625;143,029440638885;-3,60107421875E-09;0,4000244140625;4;272;1,26863270998001E-07;-1,19012594223022E-07;100 nA
0,350341796875;143,529928637622;-3,631591796875E-09;0,350006103515625;4;273;1,26863270998001E-07;-1,19012594223022E-07;100 nA
0,30029296875;144,030416636358;-4,852294921875E-09;0,299957275390625;4;274;1,26863270998001E-07;-1,19012594223022E-07;100 nA
0,250244140625;144,530904635095;-4,364013671875E-09;0,25;4;275;1,26863270998001E-07;-1,19012594223022E-07;100 nA
0,2001953125;145,031392633831;-4,302978515625E-09;0,200042724609375;4;276;1,26863270998001E-07;-1,19012594223022E-07;100 nA
0,150146484375;145,531880632567;-4,730224609375E-09;0,1500244140625;4;277;1,26863270998001E-07;-1,19012594223022E-07;100 nA
0,10009765625;146,032368631304;-5,157470703125E-09;0,100067138671875;4;278;1,26863270998001E-07;-1,19012594223022E-07;100 nA
0,050048828125;146,53285663004;-5,035400390625E-09;0,050079345703125;4;279;1,26863270998001E-07;-1,19012594223022E-07;100 nA
0;147,033344628776;-6,53076171875E-09;0,000131225585937506;4;280;1,26863270998001E-07;-1,19012594223022E-07;100 nA
-0,050048828125;147,533832627513;-6,89697265625E-09;-0,0497222900390625;4;281;1,26863270998001E-07;-1,19012594223022E-07;100 nA
-0,10009765625;148,034320626249;-7,415771484375E-09;-0,099639892578125;4;282;1,26863270998001E-07;-1,19012594223022E-07;100 nA
-0,150146484375;148,534808624986;-7,62939453125E-09;-0,1495361328125;4;283;1,26863270998001E-07;-1,19012594223022E-07;100 nA
-0,2001953125;149,035296623722;-7,537841796875E-09;-0,199432373046875;4;284;1,26863270998001E-07;-1,19012594223022E-07;100 nA
-0,250244140625;149,535784622458;-7,8125E-09;-0,249298095703125;4;285;1,26863270998001E-07;-1,19012594223022E-07;100 nA
-0,30029296875;150,036272621195;-7,87353515625E-09;-0,299163818359375;4;286;1,26863270998001E-07;-1,19012594223022E-07;100 nA
-0,350341796875;150,536760619931;-8,11767578125E-09;-0,34912109375;4;287;1,26863270998001E-07;-1,19012594223022E-07;100 nA
-0,400390625;151,037248618668;-8,270263671875E-09;-0,399017333984375;4;288;1,26863270998001E-07;-1,19012594223022E-07;100 nA
-0,450439453125;151,537736617404;-8,636474609375E-09;-0,44891357421875;4;289;1,26863270998001E-07;-1,19012594223022E-07;100 nA
-0,50048828125;152,03822461614;-9,124755859375E-09;-0,498748779296875;4;290;1,26863270998001E-07;-1,19012594223022E-07;100 nA
-0,550537109375;152,538712614877;-1,031494140625E-08;-0,548614501953125;4;291;1,26863270998001E-07;-1,19012594223022E-07;100 nA
-0,6005859375;153,039200613613;-1,20849609375E-08;-0,598602294921875;4;292;1,26863270998001E-07;-1,19012594223022E-07;100 nA
-0,650634765625;153,53968861235;-1,3946533203125E-08;-0,64849853515625;4;293;1,26863270998001E-07;-1,19012594223022E-07;100 nA
-0,70068359375;154,040176611086;-1,06201171875E-08;-0,698516845703125;4;294;1,26863270998001E-07;-1,19012594223022E-07;100 nA
-0,750732421875;154,540664609822;-7,720947265625E-09;-0,748565673828125;4;295;1,26863270998001E-07;-1,19012594223022E-07;100 nA
-0,80078125;155,041152608559;-7,415771484375E-09;-0,79833984375;4;296;1,26863270998001E-07;-1,19012594223022E-07;100 nA
-0,850830078125;155,541640607295;-7,293701171875E-09;-0,84869384765625;4;297;1,26863270998001E-07;-1,19012594223022E-07;100 nA
-0,90087890625;156,042128606032;-7,598876953125E-09;-0,8984375;4;298;1,26863270998001E-07;-1,19012594223022E-07;100 nA
-0,950927734375;156,542616604768;-7,75146484375E-09;-0,9490966796875;4;299;1,26863270998001E-07;-1,19012594223022E-07;100 nA
-1,0009765625;157,043104603504;-8,148193359375E-09;-0,99884033203125;4;300;1,26863270998001E-07;-1,19012594223022E-07;100 nA
-0,950927734375;157,543592602241;-4,608154296875E-09;-0,948486328125;4;301;1,26863270998001E-07;-1,19012594223022E-07;100 nA
-0,90087890625;158,044080600977;-2,685546875E-09;-0,8984375;4;302;1,26863270998001E-07;-1,19012594223022E-07;100 nA
-0,850830078125;158,544568599713;-1,678466796875E-09;-0,8489990234375;4;303;1,26863270998001E-07;-1,19012594223022E-07;100 nA
-0,80078125;159,04505659845;0;-0,79864501953125;4;304;1,26863270998001E-07;-1,19012594223022E-07;100 nA
-0,750732421875;159,545544597186;1,220703125E-10;-0,74859619140625;4;305;1,26863270998001E-07;-1,19012594223022E-07;100 nA
-0,70068359375;160,046032595923;7,62939453125E-10;-0,698638916015625;4;306;1,26863270998001E-07;-1,19012594223022E-07;100 nA
-0,650634765625;160,546520594659;1,983642578125E-09;-0,648651123046875;4;307;1,26863270998001E-07;-1,19012594223022E-07;100 nA
-0,6005859375;161,047008593395;2,288818359375E-09;-0,598724365234375;4;308;1,26863270998001E-07;-1,19012594223022E-07;100 nA
-0,550537109375;161,547496592132;4,180908203125E-09;-0,54888916015625;4;309;1,26863270998001E-07;-1,19012594223022E-07;100 nA
-0,50048828125;162,047984590868;5,584716796875E-09;-0,498931884765625;4;310;1,26863270998001E-07;-1,19012594223022E-07;100 nA
-0,450439453125;162,548472589605;6,77490234375E-09;-0,4490966796875;4;311;1,26863270998001E-07;-1,19012594223022E-07;100 nA
-0,400390625;163,048960588341;7,110595703125E-09;-0,399200439453125;4;312;1,26863270998001E-07;-1,19012594223022E-07;100 nA
-0,350341796875;163,549448587077;6,28662109375E-09;-0,349212646484375;4;313;1,26863270998001E-07;-1,19012594223022E-07;100 nA
-0,30029296875;164,049936585814;5,889892578125E-09;-0,299407958984375;4;314;1,26863270998001E-07;-1,19012594223022E-07;100 nA
-0,250244140625;164,55042458455;5,706787109375E-09;-0,249359130859375;4;315;1,26863270998001E-07;-1,19012594223022E-07;100 nA
-0,2001953125;165,050912583287;5,706787109375E-09;-0,199432373046875;4;316;1,26863270998001E-07;-1,19012594223022E-07;100 nA
-0,150146484375;165,551400582023;5,706787109375E-09;-0,149566650390625;4;317;1,26863270998001E-07;-1,19012594223022E-07;100 nA
-0,10009765625;166,051888580759;5,828857421875E-09;-0,09967041015625;4;318;1,26863270998001E-07;-1,19012594223022E-07;100 nA
-0,050048828125;166,552376579496;6,072998046875E-09;-0,049774169921875;4;319;1,26863270998001E-07;-1,19012594223022E-07;100 nA
0;167,052864578232;6,4697265625E-09;0,000125122070312497;4;320;1,26863270998001E-07;-1,19012594223022E-07;100 nA
0,050048828125;167,553352576968;6,34765625E-09;0,050140380859375;5;321;1,29169598221779E-07;-1,20769068598747E-07;100 nA
0,10009765625;168,053840575705;6,77490234375E-09;0,100128173828125;5;322;1,29169598221779E-07;-1,20769068598747E-07;100 nA
0,150146484375;168,554328574441;6,561279296875E-09;0,15008544921875;5;323;1,29169598221779E-07;-1,20769068598747E-07;100 nA
0,2001953125;169,054816573178;7,110595703125E-09;0,200042724609375;5;324;1,29169598221779E-07;-1,20769068598747E-07;100 nA
0,250244140625;169,555304571914;6,988525390625E-09;0,250152587890625;5;325;1,29169598221779E-07;-1,20769068598747E-07;100 nA
0,30029296875;170,05579257065;7,080078125E-09;0,300140380859375;5;326;1,29169598221779E-07;-1,20769068598747E-07;100 nA
0,350341796875;170,556280569387;7,32421875E-09;0,350189208984375;5;327;1,29169598221779E-07;-1,20769068598747E-07;100 nA
0,400390625;171,056768568123;8,392333984375E-09;0,400146484375;5;328;1,29169598221779E-07;-1,20769068598747E-07;100 nA
0,450439453125;171,55725656686;9,002685546875E-09;0,450164794921875;5;329;1,29169598221779E-07;-1,20769068598747E-07;100 nA
0,50048828125;172,057744565596;8,819580078125E-09;0,500152587890625;5;330;1,29169598221779E-07;-1,20769068598747E-07;100 nA
0,550537109375;172,558232564332;8,36181640625E-09;0,55010986328125;5;331;1,29169598221779E-07;-1,20769068598747E-07;100 nA
0,6005859375;173,058720563069;7,99560546875E-09;0,60015869140625;5;332;1,29169598221779E-07;-1,20769068598747E-07;100 nA
0,650634765625;173,559208561805;8,026123046875E-09;0,6500244140625;5;333;1,29169598221779E-07;-1,20769068598747E-07;100 nA
0,70068359375;174,059696560542;8,11767578125E-09;0,699981689453125;5;334;1,29169598221779E-07;-1,20769068598747E-07;100 nA
0,750732421875;174,560184559278;8,209228515625E-09;0,7498779296875;5;335;1,29169598221779E-07;-1,20769068598747E-07;100 nA
0,80078125;175,060672558014;8,453369140625E-09;0,80047607421875;5;336;1,29169598221779E-07;-1,20769068598747E-07;100 nA
0,850830078125;175,561160556751;8,85009765625E-09;0,84991455078125;5;337;1,29169598221779E-07;-1,20769068598747E-07;100 nA
0,90087890625;176,061648555487;9,6435546875E-09;0,899658203125;5;338;1,29169598221779E-07;-1,20769068598747E-07;100 nA
0,950927734375;176,562136554223;1,1077880859375E-08;0,94970703125;5;339;1,29169598221779E-07;-1,20769068598747E-07;100 nA
1,0009765625;177,06262455296;1,3153076171875E-08;0,99945068359375;5;340;1,29169598221779E-07;-1,20769068598747E-07;100 nA
0,950927734375;177,563112551696;6,103515625E-09;0,94970703125;5;341;1,29169598221779E-07;-1,20769068598747E-07;100 nA
0,90087890625;178,063600550433;2,74658203125E-09;0,899658203125;5;342;1,29169598221779E-07;-1,20769068598747E-07;100 nA
0,850830078125;178,564088549169;1,007080078125E-09;0,8502197265625;5;343;1,29169598221779E-07;-1,20769068598747E-07;100 nA
0,80078125;179,064576547905;1,220703125E-10;0,8001708984375;5;344;1,29169598221779E-07;-1,20769068598747E-07;100 nA
0,750732421875;179,565064546642;-4,8828125E-10;0,749786376953125;5;345;1,29169598221779E-07;-1,20769068598747E-07;100 nA
0,70068359375;180,065552545378;-8,85009765625E-10;0,69989013671875;5;346;1,29169598221779E-07;-1,20769068598747E-07;100 nA
0,650634765625;180,566040544115;-1,312255859375E-09;0,649993896484375;5;347;1,29169598221779E-07;-1,20769068598747E-07;100 nA
0,6005859375;181,066528542851;-1,89208984375E-09;0,600067138671875;5;348;1,29169598221779E-07;-1,20769068598747E-07;100 nA
0,550537109375;181,567016541587;-2,227783203125E-09;0,550048828125;5;349;1,29169598221779E-07;-1,20769068598747E-07;100 nA
0,50048828125;182,067504540324;-3,173828125E-09;0,50006103515625;5;350;1,29169598221779E-07;-1,20769068598747E-07;100 nA
0,450439453125;182,56799253906;-4,486083984375E-09;0,450042724609375;5;351;1,29169598221779E-07;-1,20769068598747E-07;100 nA
0,400390625;183,068480537797;-3,72314453125E-09;0,400054931640625;5;352;1,29169598221779E-07;-1,20769068598747E-07;100 nA
0,350341796875;183,568968536533;-3,662109375E-09;0,35003662109375;5;353;1,29169598221779E-07;-1,20769068598747E-07;100 nA
0,30029296875;184,069456535269;-4,8828125E-09;0,299957275390625;5;354;1,29169598221779E-07;-1,20769068598747E-07;100 nA
0,250244140625;184,569944534006;-4,852294921875E-09;0,25;5;355;1,29169598221779E-07;-1,20769068598747E-07;100 nA
0,2001953125;185,070432532742;-4,8828125E-09;0,19989013671875;5;356;1,29169598221779E-07;-1,20769068598747E-07;100 nA
0,150146484375;185,570920531478;-4,913330078125E-09;0,14996337890625;5;357;1,29169598221779E-07;-1,20769068598747E-07;100 nA
0,10009765625;186,071408530215;-5,31005859375E-09;0,099945068359375;5;358;1,29169598221779E-07;-1,20769068598747E-07;100 nA
0,050048828125;186,571896528951;-5,767822265625E-09;0,04998779296875;5;359;1,29169598221779E-07;-1,20769068598747E-07;100 nA
0;187,072384527688;-6,683349609375E-09;0,000112915039062494;5;360;1,29169598221779E-07;-1,20769068598747E-07;100 nA
-0,050048828125;187,572872526424;-7,049560546875E-09;-0,049896240234375;5;361;1,29169598221779E-07;-1,20769068598747E-07;100 nA
-0,10009765625;188,07336052516;-7,598876953125E-09;-0,0997314453125;5;362;1,29169598221779E-07;-1,20769068598747E-07;100 nA
-0,150146484375;188,573848523897;-7,965087890625E-09;-0,149566650390625;5;363;1,29169598221779E-07;-1,20769068598747E-07;100 nA
-0,2001953125;189,074336522633;-7,965087890625E-09;-0,199462890625;5;364;1,29169598221779E-07;-1,20769068598747E-07;100 nA
-0,250244140625;189,57482452137;-8,026123046875E-09;-0,249420166015625;5;365;1,29169598221779E-07;-1,20769068598747E-07;100 nA
-0,30029296875;190,075312520106;-8,11767578125E-09;-0,299285888671875;5;366;1,29169598221779E-07;-1,20769068598747E-07;100 nA
-0,350341796875;190,575800518842;-8,270263671875E-09;-0,3492431640625;5;367;1,29169598221779E-07;-1,20769068598747E-07;100 nA
-0,400390625;191,076288517579;-8,48388671875E-09;-0,3990478515625;5;368;1,29169598221779E-07;-1,20769068598747E-07;100 nA
-0,450439453125;191,576776516315;-8,941650390625E-09;-0,448974609375;5;369;1,29169598221779E-07;-1,20769068598747E-07;100 nA
-0,50048828125;192,077264515052;-9,521484375E-09;-0,498748779296875;5;370;1,29169598221779E-07;-1,20769068598747E-07;100 nA
-0,550537109375;192,577752513788;-1,055908203125E-08;-0,548736572265625;5;371;1,29169598221779E-07;-1,20769068598747E-07;100 nA
-0,6005859375;193,078240512524;-1,2237548828125E-08;-0,598663330078125;5;372;1,29169598221779E-07;-1,20769068598747E-07;100 nA
-0,650634765625;193,578728511261;-1,3641357421875E-08;-0,64849853515625;5;373;1,29169598221779E-07;-1,20769068598747E-07;100 nA
-0,70068359375;194,079216509997;-1,0467529296875E-08;-0,698486328125;5;374;1,29169598221779E-07;-1,20769068598747E-07;100 nA
-0,750732421875;194,579704508733;-7,4462890625E-09;-0,748565673828125;5;375;1,29169598221779E-07;-1,20769068598747E-07;100 nA
-0,80078125;195,08019250747;-7,171630859375E-09;-0,79833984375;5;376;1,29169598221779E-07;-1,20769068598747E-07;100 nA
-0,850830078125;195,580680506206;-7,415771484375E-09;-0,84930419921875;5;377;1,29169598221779E-07;-1,20769068598747E-07;100 nA
-0,90087890625;196,081168504943;-7,6904296875E-09;-0,8984375;5;378;1,29169598221779E-07;-1,20769068598747E-07;100 nA
-0,950927734375;196,581656503679;-7,62939453125E-09;-0,9490966796875;5;379;1,29169598221779E-07;-1,20769068598747E-07;100 nA
-1,0009765625;197,082144502415;-7,781982421875E-09;-0,99853515625;5;380;1,29169598221779E-07;-1,20769068598747E-07;100 nA
-0,950927734375;197,582632501152;-4,547119140625E-09;-0,9490966796875;5;381;1,29169598221779E-07;-1,20769068598747E-07;100 nA
-0,90087890625;198,083120499888;-2,410888671875E-09;-0,8990478515625;5;382;1,29169598221779E-07;-1,20769068598747E-07;100 nA
-0,850830078125;198,583608498625;-1,007080078125E-09;-0,84869384765625;5;383;1,29169598221779E-07;-1,20769068598747E-07;100 nA
-0,80078125;199,084096497361;-2,13623046875E-10;-0,79864501953125;5;384;1,29169598221779E-07;-1,20769068598747E-07;100 nA
-0,750732421875;199,584584496097;6,7138671875E-10;-0,74853515625;5;385;1,29169598221779E-07;-1,20769068598747E-07;100 nA
-0,70068359375;200,085072494834;1,800537109375E-09;-0,698455810546875;5;386;1,29169598221779E-07;-1,20769068598747E-07;100 nA
-0,650634765625;200,58556049357;2,349853515625E-09;-0,648529052734375;5;387;1,29169598221779E-07;-1,20769068598747E-07;100 nA
-0,6005859375;201,086048492307;3,387451171875E-09;-0,59857177734375;5;388;1,29169598221779E-07;-1,20769068598747E-07;100 nA
-0,550537109375;201,586536491043;4,608154296875E-09;-0,548736572265625;5;389;1,29169598221779E-07;-1,20769068598747E-07;100 nA
-0,50048828125;202,087024489779;6,103515625E-09;-0,498809814453125;5;390;1,29169598221779E-07;-1,20769068598747E-07;100 nA
-0,450439453125;202,587512488516;7,2021484375E-09;-0,448883056640625;5;391;1,29169598221779E-07;-1,20769068598747E-07;100 nA
-0,400390625;203,088000487252;7,32421875E-09;-0,399078369140625;5;392;1,29169598221779E-07;-1,20769068598747E-07;100 nA
-0,350341796875;203,588488485988;6,622314453125E-09;-0,349212646484375;5;393;1,29169598221779E-07;-1,20769068598747E-07;100 nA
-0,30029296875;204,088976484725;6,134033203125E-09;-0,299224853515625;5;394;1,29169598221779E-07;-1,20769068598747E-07;100 nA
-0,250244140625;204,589464483461;5,92041015625E-09;-0,24932861328125;5;395;1,29169598221779E-07;-1,20769068598747E-07;100 nA
-0,2001953125;205,089952482198;6,011962890625E-09;-0,199462890625;5;396;1,29169598221779E-07;-1,20769068598747E-07;100 nA
-0,150146484375;205,590440480934;5,7373046875E-09;-0,149566650390625;5;397;1,29169598221779E-07;-1,20769068598747E-07;100 nA
-0,10009765625;206,09092847967;6,011962890625E-09;-0,09967041015625;5;398;1,29169598221779E-07;-1,20769068598747E-07;100 nA
-0,050048828125;206,591416478407;5,92041015625E-09;-0,049774169921875;5;399;1,29169598221779E-07;-1,20769068598747E-07;100 nA
0;207,091904477143;6,011962890625E-09;0,000112915039062494;5;400;1,29169598221779E-07;-1,20769068598747E-07;100 nA
0,050048828125;207,59239247588;6,16455078125E-09;0,050048828125;6;401;1,23579427599907E-07;-1,16767361760139E-07;100 nA
0,10009765625;208,092880474616;6,500244140625E-09;0,10003662109375;6;402;1,23579427599907E-07;-1,16767361760139E-07;100 nA
0,150146484375;208,593368473352;6,28662109375E-09;0,150054931640625;6;403;1,23579427599907E-07;-1,16767361760139E-07;100 nA
0,2001953125;209,093856472089;6,53076171875E-09;0,200042724609375;6;404;1,23579427599907E-07;-1,16767361760139E-07;100 nA
0,250244140625;209,594344470825;6,439208984375E-09;0,250030517578125;6;405;1,23579427599907E-07;-1,16767361760139E-07;100 nA
0,30029296875;210,094832469562;7,110595703125E-09;0,29998779296875;6;406;1,23579427599907E-07;-1,16767361760139E-07;100 nA
0,350341796875;210,595320468298;6,7138671875E-09;0,35003662109375;6;407;1,23579427599907E-07;-1,16767361760139E-07;100 nA
0,400390625;211,095808467034;8,026123046875E-09;0,40008544921875;6;408;1,23579427599907E-07;-1,16767361760139E-07;100 nA
0,450439453125;211,596296465771;8,60595703125E-09;0,45001220703125;6;409;1,23579427599907E-07;-1,16767361760139E-07;100 nA
0,50048828125;212,096784464507;8,9111328125E-09;0,5;6;410;1,23579427599907E-07;-1,16767361760139E-07;100 nA
0,550537109375;212,597272463243;7,9345703125E-09;0,550048828125;6;411;1,23579427599907E-07;-1,16767361760139E-07;100 nA
0,6005859375;213,09776046198;7,354736328125E-09;0,600006103515625;6;412;1,23579427599907E-07;-1,16767361760139E-07;100 nA
0,650634765625;213,598248460716;7,32421875E-09;0,64990234375;6;413;1,23579427599907E-07;-1,16767361760139E-07;100 nA
0,70068359375;214,098736459453;8,148193359375E-09;0,6998291015625;6;414;1,23579427599907E-07;-1,16767361760139E-07;100 nA
0,750732421875;214,599224458189;8,270263671875E-09;0,749725341796875;6;415;1,23579427599907E-07;-1,16767361760139E-07;100 nA
0,80078125;215,099712456925;7,14111328125E-09;0,79986572265625;6;416;1,23579427599907E-07;-1,16767361760139E-07;100 nA
0,850830078125;215,600200455662;8,4228515625E-09;0,849609375;6;417;1,23579427599907E-07;-1,16767361760139E-07;100 nA
0,90087890625;216,100688454398;9,124755859375E-09;0,9002685546875;6;418;1,23579427599907E-07;-1,16767361760139E-07;100 nA
0,950927734375;216,601176453135;1,15966796875E-08;0,95001220703125;6;419;1,23579427599907E-07;-1,16767361760139E-07;100 nA
1,0009765625;217,101664451871;1,336669921875E-08;0,999755859375;6;420;1,23579427599907E-07;-1,16767361760139E-07;100 nA
0,950927734375;217,602152450607;6,561279296875E-09;0,94970703125;6;421;1,23579427599907E-07;-1,16767361760139E-07;100 nA
0,90087890625;218,102640449344;2,838134765625E-09;0,899658203125;6;422;1,23579427599907E-07;-1,16767361760139E-07;100 nA
0,850830078125;218,60312844808;1,373291015625E-09;0,849609375;6;423;1,23579427599907E-07;-1,16767361760139E-07;100 nA
0,80078125;219,103616446817;9,1552734375E-11;0,8001708984375;6;424;1,23579427599907E-07;-1,16767361760139E-07;100 nA
0,750732421875;219,604104445553;-1,220703125E-10;0,74981689453125;6;425;1,23579427599907E-07;-1,16767361760139E-07;100 nA
0,70068359375;220,104592444289;-6,40869140625E-10;0,699981689453125;6;426;1,23579427599907E-07;-1,16767361760139E-07;100 nA
0,650634765625;220,605080443026;-1,15966796875E-09;0,650054931640625;6;427;1,23579427599907E-07;-1,16767361760139E-07;100 nA
0,6005859375;221,105568441762;-1,312255859375E-09;0,600067138671875;6;428;1,23579427599907E-07;-1,16767361760139E-07;100 nA
0,550537109375;221,606056440498;-1,64794921875E-09;0,550140380859375;6;429;1,23579427599907E-07;-1,16767361760139E-07;100 nA
0,50048828125;222,106544439235;-2,777099609375E-09;0,5001220703125;6;430;1,23579427599907E-07;-1,16767361760139E-07;100 nA
0,450439453125;222,607032437971;-4,180908203125E-09;0,450164794921875;6;431;1,23579427599907E-07;-1,16767361760139E-07;100 nA
0,400390625;223,107520436708;-3,173828125E-09;0,400177001953125;6;432;1,23579427599907E-07;-1,16767361760139E-07;100 nA
0,350341796875;223,608008435444;-3,41796875E-09;0,350128173828125;6;433;1,23579427599907E-07;-1,16767361760139E-07;100 nA
0,30029296875;224,10849643418;-4,45556640625E-09;0,300140380859375;6;434;1,23579427599907E-07;-1,16767361760139E-07;100 nA
0,250244140625;224,608984432917;-4,21142578125E-09;0,25018310546875;6;435;1,23579427599907E-07;-1,16767361760139E-07;100 nA
0,2001953125;225,109472431653;-4,119873046875E-09;0,2000732421875;6;436;1,23579427599907E-07;-1,16767361760139E-07;100 nA
0,150146484375;225,60996043039;-4,119873046875E-09;0,150177001953125;6;437;1,23579427599907E-07;-1,16767361760139E-07;100 nA
0,10009765625;226,110448429126;-4,669189453125E-09;0,10015869140625;6;438;1,23579427599907E-07;-1,16767361760139E-07;100 nA
0,050048828125;226,610936427862;-5,523681640625E-09;0,050140380859375;6;439;1,23579427599907E-07;-1,16767361760139E-07;100 nA
0;227,111424426599;-5,859375E-09;0,000143432617187494;6;440;1,23579427599907E-07;-1,16767361760139E-07;100 nA
-0,050048828125;227,611912425335;-6,744384765625E-09;-0,049725341796875;6;441;1,23579427599907E-07;-1,16767361760139E-07;100 nA
-0,10009765625;228,112400424072;-7,293701171875E-09;-0,099639892578125;6;442;1,23579427599907E-07;-1,16767361760139E-07;100 nA
-0,150146484375;228,612888422808;-7,568359375E-09;-0,149566650390625;6;443;1,23579427599907E-07;-1,16767361760139E-07;100 nA
-0,2001953125;229,113376421544;-7,598876953125E-09;-0,19940185546875;6;444;1,23579427599907E-07;-1,16767361760139E-07;100 nA
-0,250244140625;229,613864420281;-8,026123046875E-09;-0,24932861328125;6;445;1,23579427599907E-07;-1,16767361760139E-07;100 nA
-0,30029296875;230,114352419017;-7,904052734375E-09;-0,299285888671875;6;446;1,23579427599907E-07;-1,16767361760139E-07;100 nA
-0,350341796875;230,614840417754;-8,056640625E-09;-0,349151611328125;6;447;1,23579427599907E-07;-1,16767361760139E-07;100 nA
-0,400390625;231,11532841649;-8,4228515625E-09;-0,39898681640625;6;448;1,23579427599907E-07;-1,16767361760139E-07;100 nA
-0,450439453125;231,615816415226;-8,85009765625E-09;-0,448944091796875;6;449;1,23579427599907E-07;-1,16767361760139E-07;100 nA
-0,50048828125;232,116304413963;-9,490966796875E-09;-0,498809814453125;6;450;1,23579427599907E-07;-1,16767361760139E-07;100 nA
-0,550537109375;232,616792412699;-1,0498046875E-08;-0,548736572265625;6;451;1,23579427599907E-07;-1,16767361760139E-07;100 nA
-0,6005859375;233,117280411435;-1,2237548828125E-08;-0,5986328125;6;452;1,23579427599907E-07;-1,16767361760139E-07;100 nA
-0,650634765625;233,617768410172;-1,3641357421875E-08;-0,648590087890625;6;453;1,23579427599907E-07;-1,16767361760139E-07;100 nA
-0,70068359375;234,118256408908;-1,0528564453125E-08;-0,698577880859375;6;454;1,23579427599907E-07;-1,16767361760139E-07;100 nA
-0,750732421875;234,618744407645;-7,354736328125E-09;-0,748565673828125;6;455;1,23579427599907E-07;-1,16767361760139E-07;100 nA
-0,80078125;235,119232406381;-6,927490234375E-09;-0,79864501953125;6;456;1,23579427599907E-07;-1,16767361760139E-07;100 nA
-0,850830078125;235,619720405117;-7,568359375E-09;-0,848388671875;6;457;1,23579427599907E-07;-1,16767361760139E-07;100 nA
-0,90087890625;236,120208403854;-7,8125E-09;-0,89874267578125;6;458;1,23579427599907E-07;-1,16767361760139E-07;100 nA
-0,950927734375;236,62069640259;-8,331298828125E-09;-0,94879150390625;6;459;1,23579427599907E-07;-1,16767361760139E-07;100 nA
-1,0009765625;237,121184401327;-7,720947265625E-09;-0,99884033203125;6;460;1,23579427599907E-07;-1,16767361760139E-07;100 nA
-0,950927734375;237,621672400063;-4,7607421875E-09;-0,94818115234375;6;461;1,23579427599907E-07;-1,16767361760139E-07;100 nA
-0,90087890625;238,122160398799;-2,716064453125E-09;-0,8990478515625;6;462;1,23579427599907E-07;-1,16767361760139E-07;100 nA
-0,850830078125;238,622648397536;-1,40380859375E-09;-0,84808349609375;6;463;1,23579427599907E-07;-1,16767361760139E-07;100 nA
-0,80078125;239,123136396272;-4,57763671875E-10;-0,7989501953125;6;464;1,23579427599907E-07;-1,16767361760139E-07;100 nA
-0,750732421875;239,623624395009;1,52587890625E-10;-0,74859619140625;6;465;1,23579427599907E-07;-1,16767361760139E-07;100 nA
-0,70068359375;240,124112393745;8,85009765625E-10;-0,6986083984375;6;466;1,23579427599907E-07;-1,16767361760139E-07;100 nA
-0,650634765625;240,624600392481;1,15966796875E-09;-0,648590087890625;6;467;1,23579427599907E-07;-1,16767361760139E-07;100 nA
-0,6005859375;241,125088391218;2,86865234375E-09;-0,598724365234375;6;468;1,23579427599907E-07;-1,16767361760139E-07;100 nA
-0,550537109375;241,625576389954;3,72314453125E-09;-0,548828125;6;469;1,23579427599907E-07;-1,16767361760139E-07;100 nA
-0,50048828125;242,12606438869;5,9814453125E-09;-0,49896240234375;6;470;1,23579427599907E-07;-1,16767361760139E-07;100 nA
-0,450439453125;242,626552387427;6,805419921875E-09;-0,449127197265625;6;471;1,23579427599907E-07;-1,16767361760139E-07;100 nA
-0,400390625;243,127040386163;6,866455078125E-09;-0,399261474609375;6;472;1,23579427599907E-07;-1,16767361760139E-07;100 nA
-0,350341796875;243,6275283849;6,134033203125E-09;-0,349273681640625;6;473;1,23579427599907E-07;-1,16767361760139E-07;100 nA
-0,30029296875;244,128016383636;5,828857421875E-09;-0,29937744140625;6;474;1,23579427599907E-07;-1,16767361760139E-07;100 nA
-0,250244140625;244,628504382372;5,401611328125E-09;-0,249481201171875;6;475;1,23579427599907E-07;-1,16767361760139E-07;100 nA
-0,2001953125;245,128992381109;5,79833984375E-09;-0,1995849609375;6;476;1,23579427599907E-07;-1,16767361760139E-07;100 nA
-0,150146484375;245,629480379845;5,706787109375E-09;-0,149688720703125;6;477;1,23579427599907E-07;-1,16767361760139E-07;100 nA
-0,10009765625;246,129968378582;5,9814453125E-09;-0,099761962890625;6;478;1,23579427599907E-07;-1,16767361760139E-07;100 nA
-0,050048828125;246,630456377318;6,134033203125E-09;-0,04986572265625;6;479;1,23579427599907E-07;-1,16767361760139E-07;100 nA
0;247,130944376054;6,65283203125E-09;0,000119018554687503;6;480;1,23579427599907E-07;-1,16767361760139E-07;100 nA
0,050048828125;247,631432374791;6,622314453125E-09;0,050079345703125;7;481;1,28558650612831E-07;-1,17683783173561E-07;100 nA
0,10009765625;248,131920373527;6,256103515625E-09;0,10003662109375;7;482;1,28558650612831E-07;-1,17683783173561E-07;100 nA
0,150146484375;248,632408372264;6,4697265625E-09;0,1500244140625;7;483;1,28558650612831E-07;-1,17683783173561E-07;100 nA
0,2001953125;249,132896371;7,01904296875E-09;0,200042724609375;7;484;1,28558650612831E-07;-1,17683783173561E-07;100 nA
0,250244140625;249,633384369736;7,6904296875E-09;0,25006103515625;7;485;1,28558650612831E-07;-1,17683783173561E-07;100 nA
0,30029296875;250,133872368473;7,171630859375E-09;0,300079345703125;7;486;1,28558650612831E-07;-1,17683783173561E-07;100 nA
0,350341796875;250,634360367209;7,38525390625E-09;0,35009765625;7;487;1,28558650612831E-07;-1,17683783173561E-07;100 nA
0,400390625;251,134848365945;8,392333984375E-09;0,400146484375;7;488;1,28558650612831E-07;-1,17683783173561E-07;100 nA
0,450439453125;251,635336364682;8,9111328125E-09;0,450103759765625;7;489;1,28558650612831E-07;-1,17683783173561E-07;100 nA
0,50048828125;252,135824363418;9,033203125E-09;0,500091552734375;7;490;1,28558650612831E-07;-1,17683783173561E-07;100 nA
0,550537109375;252,636312362155;8,1787109375E-09;0,550140380859375;7;491;1,28558650612831E-07;-1,17683783173561E-07;100 nA
0,6005859375;253,136800360891;7,965087890625E-09;0,600128173828125;7;492;1,28558650612831E-07;-1,17683783173561E-07;100 nA
0,650634765625;253,637288359627;7,843017578125E-09;0,650054931640625;7;493;1,28558650612831E-07;-1,17683783173561E-07;100 nA
0,70068359375;254,137776358364;8,1787109375E-09;0,699951171875;7;494;1,28558650612831E-07;-1,17683783173561E-07;100 nA
0,750732421875;254,6382643571;8,6669921875E-09;0,749847412109375;7;495;1,28558650612831E-07;-1,17683783173561E-07;100 nA
0,80078125;255,138752355837;9,33837890625E-09;0,8001708984375;7;496;1,28558650612831E-07;-1,17683783173561E-07;100 nA
0,850830078125;255,639240354573;9,521484375E-09;0,8502197265625;7;497;1,28558650612831E-07;-1,17683783173561E-07;100 nA
0,90087890625;256,139728353309;9,21630859375E-09;0,899658203125;7;498;1,28558650612831E-07;-1,17683783173561E-07;100 nA
0,950927734375;256,640216352046;1,08642578125E-08;0,95001220703125;7;499;1,28558650612831E-07;-1,17683783173561E-07;100 nA
1,0009765625;257,140704350782;1,33056640625E-08;0,999755859375;7;500;1,28558650612831E-07;-1,17683783173561E-07;100 nA
0,950927734375;257,641192349519;7,080078125E-09;0,94940185546875;7;501;1,28558650612831E-07;-1,17683783173561E-07;100 nA
0,90087890625;258,141680348255;2,86865234375E-09;0,899658203125;7;502;1,28558650612831E-07;-1,17683783173561E-07;100 nA
0,850830078125;258,642168346991;1,373291015625E-09;0,84991455078125;7;503;1,28558650612831E-07;-1,17683783173561E-07;100 nA
0,80078125;259,142656345728;2,44140625E-10;0,80047607421875;7;504;1,28558650612831E-07;-1,17683783173561E-07;100 nA
0,750732421875;259,643144344464;-2,74658203125E-10;0,74981689453125;7;505;1,28558650612831E-07;-1,17683783173561E-07;100 nA
0,70068359375;260,1436323432;-8,23974609375E-10;0,69989013671875;7;506;1,28558650612831E-07;-1,17683783173561E-07;100 nA
0,650634765625;260,644120341937;-1,28173828125E-09;0,649993896484375;7;507;1,28558650612831E-07;-1,17683783173561E-07;100 nA
0,6005859375;261,144608340673;-1,556396484375E-09;0,60003662109375;7;508;1,28558650612831E-07;-1,17683783173561E-07;100 nA
0,550537109375;261,64509633941;-2,349853515625E-09;0,55010986328125;7;509;1,28558650612831E-07;-1,17683783173561E-07;100 nA
0,50048828125;262,145584338146;-2,685546875E-09;0,50006103515625;7;510;1,28558650612831E-07;-1,17683783173561E-07;100 nA
0,450439453125;262,646072336882;-4,180908203125E-09;0,450042724609375;7;511;1,28558650612831E-07;-1,17683783173561E-07;100 nA
0,400390625;263,146560335619;-4,180908203125E-09;0,4000244140625;7;512;1,28558650612831E-07;-1,17683783173561E-07;100 nA
0,350341796875;263,647048334355;-3,60107421875E-09;0,35009765625;7;513;1,28558650612831E-07;-1,17683783173561E-07;100 nA
0,30029296875;264,147536333092;-4,913330078125E-09;0,299957275390625;7;514;1,28558650612831E-07;-1,17683783173561E-07;100 nA
0,250244140625;264,648024331828;-4,913330078125E-09;0,250030517578125;7;515;1,28558650612831E-07;-1,17683783173561E-07;100 nA
0,2001953125;265,148512330564;-4,974365234375E-09;0,20001220703125;7;516;1,28558650612831E-07;-1,17683783173561E-07;100 nA
0,150146484375;265,649000329301;-4,852294921875E-09;0,14996337890625;7;517;1,28558650612831E-07;-1,17683783173561E-07;100 nA
0,10009765625;266,149488328037;-5,340576171875E-09;0,099884033203125;7;518;1,28558650612831E-07;-1,17683783173561E-07;100 nA
0,050048828125;266,649976326774;-5,859375E-09;0,049957275390625;7;519;1,28558650612831E-07;-1,17683783173561E-07;100 nA
0;267,15046432551;-6,378173828125E-09;9,46044921874972E-05;7;520;1,28558650612831E-07;-1,17683783173561E-07;100 nA
-0,050048828125;267,650952324246;-6,805419921875E-09;-0,04986572265625;7;521;1,28558650612831E-07;-1,17683783173561E-07;100 nA
-0,10009765625;268,151440322983;-7,4462890625E-09;-0,099700927734375;7;522;1,28558650612831E-07;-1,17683783173561E-07;100 nA
-0,150146484375;268,651928321719;-7,720947265625E-09;-0,149627685546875;7;523;1,28558650612831E-07;-1,17683783173561E-07;100 nA
-0,2001953125;269,152416320455;-7,8125E-09;-0,199493408203125;7;524;1,28558650612831E-07;-1,17683783173561E-07;100 nA
-0,250244140625;269,652904319192;-7,843017578125E-09;-0,24932861328125;7;525;1,28558650612831E-07;-1,17683783173561E-07;100 nA
-0,30029296875;270,153392317928;-7,9345703125E-09;-0,299224853515625;7;526;1,28558650612831E-07;-1,17683783173561E-07;100 nA
-0,350341796875;270,653880316665;-8,056640625E-09;-0,349151611328125;7;527;1,28558650612831E-07;-1,17683783173561E-07;100 nA
-0,400390625;271,154368315401;-8,36181640625E-09;-0,3990478515625;7;528;1,28558650612831E-07;-1,17683783173561E-07;100 nA
-0,450439453125;271,654856314137;-8,72802734375E-09;-0,44891357421875;7;529;1,28558650612831E-07;-1,17683783173561E-07;100 nA
-0,50048828125;272,155344312874;-9,368896484375E-09;-0,49884033203125;7;530;1,28558650612831E-07;-1,17683783173561E-07;100 nA
-0,550537109375;272,65583231161;-1,0345458984375E-08;-0,5487060546875;7;531;1,28558650612831E-07;-1,17683783173561E-07;100 nA
-0,6005859375;273,156320310347;-1,2054443359375E-08;-0,59857177734375;7;532;1,28558650612831E-07;-1,17683783173561E-07;100 nA
-0,650634765625;273,656808309083;-1,3275146484375E-08;-0,648468017578125;7;533;1,28558650612831E-07;-1,17683783173561E-07;100 nA
-0,70068359375;274,157296307819;-1,01318359375E-08;-0,698577880859375;7;534;1,28558650612831E-07;-1,17683783173561E-07;100 nA
-0,750732421875;274,657784306556;-7,171630859375E-09;-0,748565673828125;7;535;1,28558650612831E-07;-1,17683783173561E-07;100 nA
-0,80078125;275,158272305292;-7,01904296875E-09;-0,79864501953125;7;536;1,28558650612831E-07;-1,17683783173561E-07;100 nA
-0,850830078125;275,658760304029;-6,988525390625E-09;-0,84869384765625;7;537;1,28558650612831E-07;-1,17683783173561E-07;100 nA
-0,90087890625;276,159248302765;-7,080078125E-09;-0,8990478515625;7;538;1,28558650612831E-07;-1,17683783173561E-07;100 nA
-0,950927734375;276,659736301501;-7,38525390625E-09;-0,94879150390625;7;539;1,28558650612831E-07;-1,17683783173561E-07;100 nA
-1,0009765625;277,160224300238;-7,476806640625E-09;-0,99853515625;7;540;1,28558650612831E-07;-1,17683783173561E-07;100 nA
-0,950927734375;277,660712298974;-4,2724609375E-09;-0,94879150390625;7;541;1,28558650612831E-07;-1,17683783173561E-07;100 nA
-0,90087890625;278,16120029771;-2,50244140625E-09;-0,8984375;7;542;1,28558650612831E-07;-1,17683783173561E-07;100 nA
-0,850830078125;278,661688296447;-9,46044921875E-10;-0,8489990234375;7;543;1,28558650612831E-07;-1,17683783173561E-07;100 nA
-0,80078125;279,162176295183;-2,44140625E-10;-0,79864501953125;7;544;1,28558650612831E-07;-1,17683783173561E-07;100 nA
-0,750732421875;279,66266429392;5,18798828125E-10;-0,7486572265625;7;545;1,28558650612831E-07;-1,17683783173561E-07;100 nA
-0,70068359375;280,163152292656;1,3427734375E-09;-0,698516845703125;7;546;1,28558650612831E-07;-1,17683783173561E-07;100 nA
-0,650634765625;280,663640291392;1,922607421875E-09;-0,648590087890625;7;547;1,28558650612831E-07;-1,17683783173561E-07;100 nA
-0,6005859375;281,164128290129;3,0517578125E-09;-0,59869384765625;7;548;1,28558650612831E-07;-1,17683783173561E-07;100 nA
-0,550537109375;281,664616288865;4,486083984375E-09;-0,548828125;7;549;1,28558650612831E-07;-1,17683783173561E-07;100 nA
-0,50048828125;282,165104287602;5,767822265625E-09;-0,49884033203125;7;550;1,28558650612831E-07;-1,17683783173561E-07;100 nA
-0,450439453125;282,665592286338;6,805419921875E-09;-0,448944091796875;7;551;1,28558650612831E-07;-1,17683783173561E-07;100 nA
-0,400390625;283,166080285074;7,14111328125E-09;-0,39910888671875;7;552;1,28558650612831E-07;-1,17683783173561E-07;100 nA
-0,350341796875;283,666568283811;6,34765625E-09;-0,349212646484375;7;553;1,28558650612831E-07;-1,17683783173561E-07;100 nA
-0,30029296875;284,167056282547;5,859375E-09;-0,299285888671875;7;554;1,28558650612831E-07;-1,17683783173561E-07;100 nA
-0,250244140625;284,667544281284;5,645751953125E-09;-0,249359130859375;7;555;1,28558650612831E-07;-1,17683783173561E-07;100 nA
-0,2001953125;285,16803228002;5,55419921875E-09;-0,199432373046875;7;556;1,28558650612831E-07;-1,17683783173561E-07;100 nA
-0,150146484375;285,668520278756;5,4931640625E-09;-0,149658203125;7;557;1,28558650612831E-07;-1,17683783173561E-07;100 nA
-0,10009765625;286,169008277493;5,67626953125E-09;-0,099761962890625;7;558;1,28558650612831E-07;-1,17683783173561E-07;100 nA
-0,050048828125;286,669496276229;5,767822265625E-09;-0,0498046875;7;559;1,28558650612831E-07;-1,17683783173561E-07;100 nA
0;287,169984274965;5,889892578125E-09;0,000119018554687503;7;560;1,28558650612831E-07;-1,17683783173561E-07;100 nA
0,050048828125;287,670472273702;6,40869140625E-09;0,050018310546875;8;561;1,26893818378448E-07;-1,17469951510429E-07;100 nA
0,10009765625;288,170960272438;5,706787109375E-09;0,0999755859375;8;562;1,26893818378448E-07;-1,17469951510429E-07;100 nA
0,150146484375;288,671448271175;6,072998046875E-09;0,149932861328125;8;563;1,26893818378448E-07;-1,17469951510429E-07;100 nA
0,2001953125;289,171936269911;6,04248046875E-09;0,199981689453125;8;564;1,26893818378448E-07;-1,17469951510429E-07;100 nA
0,250244140625;289,672424268647;6,28662109375E-09;0,24993896484375;8;565;1,26893818378448E-07;-1,17469951510429E-07;100 nA
0,30029296875;290,172912267384;6,500244140625E-09;0,29998779296875;8;566;1,26893818378448E-07;-1,17469951510429E-07;100 nA
0,350341796875;290,67340026612;6,866455078125E-09;0,35003662109375;8;567;1,26893818378448E-07;-1,17469951510429E-07;100 nA
0,400390625;291,173888264857;7,9345703125E-09;0,400054931640625;8;568;1,26893818378448E-07;-1,17469951510429E-07;100 nA
0,450439453125;291,674376263593;8,6669921875E-09;0,449951171875;8;569;1,26893818378448E-07;-1,17469951510429E-07;100 nA
0,50048828125;292,174864262329;8,880615234375E-09;0,500030517578125;8;570;1,26893818378448E-07;-1,17469951510429E-07;100 nA
0,550537109375;292,675352261066;8,026123046875E-09;0,54998779296875;8;571;1,26893818378448E-07;-1,17469951510429E-07;100 nA
0,6005859375;293,175840259802;7,659912109375E-09;0,600067138671875;8;572;1,26893818378448E-07;-1,17469951510429E-07;100 nA
0,650634765625;293,676328258539;7,99560546875E-09;0,6500244140625;8;573;1,26893818378448E-07;-1,17469951510429E-07;100 nA
0,70068359375;294,176816257275;7,843017578125E-09;0,699859619140625;8;574;1,26893818378448E-07;-1,17469951510429E-07;100 nA
0,750732421875;294,677304256011;8,056640625E-09;0,749786376953125;8;575;1,26893818378448E-07;-1,17469951510429E-07;100 nA
0,80078125;295,177792254748;8,36181640625E-09;0,8001708984375;8;576;1,26893818378448E-07;-1,17469951510429E-07;100 nA
0,850830078125;295,678280253484;8,819580078125E-09;0,849609375;8;577;1,26893818378448E-07;-1,17469951510429E-07;100 nA
0,90087890625;296,17876825222;9,674072265625E-09;0,89996337890625;8;578;1,26893818378448E-07;-1,17469951510429E-07;100 nA
0,950927734375;296,679256250957;1,1260986328125E-08;0,95001220703125;8;579;1,26893818378448E-07;-1,17469951510429E-07;100 nA
1,0009765625;297,179744249693;1,336669921875E-08;0,99945068359375;8;580;1,26893818378448E-07;-1,17469951510429E-07;100 nA
0,950927734375;297,68023224843;6,591796875E-09;0,94970703125;8;581;1,26893818378448E-07;-1,17469951510429E-07;100 nA
0,90087890625;298,180720247166;3,11279296875E-09;0,899658203125;8;582;1,26893818378448E-07;-1,17469951510429E-07;100 nA
0,850830078125;298,681208245902;1,251220703125E-09;0,84991455078125;8;583;1,26893818378448E-07;-1,17469951510429E-07;100 nA
0,80078125;299,181696244639;3,96728515625E-10;0,79925537109375;8;584;1,26893818378448E-07;-1,17469951510429E-07;100 nA
0,750732421875;299,682184243375;-4,57763671875E-10;0,749847412109375;8;585;1,26893818378448E-07;-1,17469951510429E-07;100 nA
0,70068359375;300,182672242112;-5,4931640625E-10;0,699951171875;8;586;1,26893818378448E-07;-1,17469951510429E-07;100 nA
0,650634765625;300,683160240848;-1,03759765625E-09;0,650054931640625;8;587;1,26893818378448E-07;-1,17469951510429E-07;100 nA
0,6005859375;301,183648239584;-1,251220703125E-09;0,600128173828125;8;588;1,26893818378448E-07;-1,17469951510429E-07;100 nA
0,550537109375;301,684136238321;-1,708984375E-09;0,550140380859375;8;589;1,26893818378448E-07;-1,17469951510429E-07;100 nA
0,50048828125;302,184624237057;-2,655029296875E-09;0,50018310546875;8;590;1,26893818378448E-07;-1,17469951510429E-07;100 nA
0,450439453125;302,685112235794;-3,72314453125E-09;0,450225830078125;8;591;1,26893818378448E-07;-1,17469951510429E-07;100 nA
0,400390625;303,18560023453;-3,143310546875E-09;0,400177001953125;8;592;1,26893818378448E-07;-1,17469951510429E-07;100 nA
0,350341796875;303,686088233266;-3,082275390625E-09;0,35015869140625;8;593;1,26893818378448E-07;-1,17469951510429E-07;100 nA
0,30029296875;304,186576232003;-4,7607421875E-09;0,300079345703125;8;594;1,26893818378448E-07;-1,17469951510429E-07;100 nA
0,250244140625;304,687064230739;-4,33349609375E-09;0,250152587890625;8;595;1,26893818378448E-07;-1,17469951510429E-07;100 nA
0,2001953125;305,187552229476;-4,33349609375E-09;0,20013427734375;8;596;1,26893818378448E-07;-1,17469951510429E-07;100 nA
0,150146484375;305,688040228212;-4,638671875E-09;0,149993896484375;8;597;1,26893818378448E-07;-1,17469951510429E-07;100 nA
0,10009765625;306,188528226948;-5,096435546875E-09;0,100128173828125;8;598;1,26893818378448E-07;-1,17469951510429E-07;100 nA
0,050048828125;306,689016225685;-5,67626953125E-09;0,050140380859375;8;599;1,26893818378448E-07;-1,17469951510429E-07;100 nA
0;307,189504224421;-6,072998046875E-09;0,000119018554687503;8;600;1,26893818378448E-07;-1,17469951510429E-07;100 nA
-0,050048828125;307,689992223157;-7,171630859375E-09;-0,04974365234375;8;601;1,26893818378448E-07;-1,17469951510429E-07;100 nA
-0,10009765625;308,190480221894;-7,476806640625E-09;-0,099700927734375;8;602;1,26893818378448E-07;-1,17469951510429E-07;100 nA
-0,150146484375;308,69096822063;-7,781982421875E-09;-0,14959716796875;8;603;1,26893818378448E-07;-1,17469951510429E-07;100 nA
-0,2001953125;309,191456219367;-7,9345703125E-09;-0,199432373046875;8;604;1,26893818378448E-07;-1,17469951510429E-07;100 nA
-0,250244140625;309,691944218103;-7,9345703125E-09;-0,24932861328125;8;605;1,26893818378448E-07;-1,17469951510429E-07;100 nA
-0,30029296875;310,192432216839;-8,056640625E-09;-0,299224853515625;8;606;1,26893818378448E-07;-1,17469951510429E-07;100 nA
-0,350341796875;310,692920215576;-8,392333984375E-09;-0,349212646484375;8;607;1,26893818378448E-07;-1,17469951510429E-07;100 nA
-0,400390625;311,193408214312;-8,48388671875E-09;-0,399169921875;8;608;1,26893818378448E-07;-1,17469951510429E-07;100 nA
-0,450439453125;311,693896213049;-9,002685546875E-09;-0,449005126953125;8;609;1,26893818378448E-07;-1,17469951510429E-07;100 nA
-0,50048828125;312,194384211785;-9,552001953125E-09;-0,49884033203125;8;610;1,26893818378448E-07;-1,17469951510429E-07;100 nA
-0,550537109375;312,694872210521;-1,0955810546875E-08;-0,548797607421875;8;611;1,26893818378448E-07;-1,17469951510429E-07;100 nA
-0,6005859375;313,195360209258;-1,23291015625E-08;-0,598785400390625;8;612;1,26893818378448E-07;-1,17469951510429E-07;100 nA
-0,650634765625;313,695848207994;-1,3641357421875E-08;-0,64862060546875;8;613;1,26893818378448E-07;-1,17469951510429E-07;100 nA
-0,70068359375;314,196336206731;-1,03759765625E-08;-0,6986083984375;8;614;1,26893818378448E-07;-1,17469951510429E-07;100 nA
-0,750732421875;314,696824205467;-7,50732421875E-09;-0,748687744140625;8;615;1,26893818378448E-07;-1,17469951510429E-07;100 nA
-0,80078125;315,197312204203;-7,293701171875E-09;-0,79833984375;8;616;1,26893818378448E-07;-1,17469951510429E-07;100 nA
-0,850830078125;315,69780020294;-7,415771484375E-09;-0,8489990234375;8;617;1,26893818378448E-07;-1,17469951510429E-07;100 nA
-0,90087890625;316,198288201676;-7,537841796875E-09;-0,89874267578125;8;618;1,26893818378448E-07;-1,17469951510429E-07;100 nA
-0,950927734375;316,698776200412;-7,537841796875E-09;-0,948486328125;8;619;1,26893818378448E-07;-1,17469951510429E-07;100 nA
-1,0009765625;317,199264199149;-7,781982421875E-09;-0,99945068359375;8;620;1,26893818378448E-07;-1,17469951510429E-07;100 nA
-0,950927734375;317,699752197885;-4,364013671875E-09;-0,9490966796875;8;621;1,26893818378448E-07;-1,17469951510429E-07;100 nA
-0,90087890625;318,200240196622;-2,349853515625E-09;-0,8984375;8;622;1,26893818378448E-07;-1,17469951510429E-07;100 nA
-0,850830078125;318,700728195358;-1,068115234375E-09;-0,84869384765625;8;623;1,26893818378448E-07;-1,17469951510429E-07;100 nA
-0,80078125;319,201216194094;-2,44140625E-10;-0,79864501953125;8;624;1,26893818378448E-07;-1,17469951510429E-07;100 nA
-0,750732421875;319,701704192831;5,4931640625E-10;-0,748565673828125;8;625;1,26893818378448E-07;-1,17469951510429E-07;100 nA
-0,70068359375;320,202192191567;1,3427734375E-09;-0,6986083984375;8;626;1,26893818378448E-07;-1,17469951510429E-07;100 nA
-0,650634765625;320,702680190304;1,983642578125E-09;-0,6485595703125;8;627;1,26893818378448E-07;-1,17469951510429E-07;100 nA
-0,6005859375;321,20316818904;3,265380859375E-09;-0,59857177734375;8;628;1,26893818378448E-07;-1,17469951510429E-07;100 nA
-0,550537109375;321,703656187776;4,364013671875E-09;-0,548736572265625;8;629;1,26893818378448E-07;-1,17469951510429E-07;100 nA
-0,50048828125;322,204144186513;5,9814453125E-09;-0,498779296875;8;630;1,26893818378448E-07;-1,17469951510429E-07;100 nA
-0,450439453125;322,704632185249;7,080078125E-09;-0,44891357421875;8;631;1,26893818378448E-07;-1,17469951510429E-07;100 nA
-0,400390625;323,205120183986;7,476806640625E-09;-0,399078369140625;8;632;1,26893818378448E-07;-1,17469951510429E-07;100 nA
-0,350341796875;323,705608182722;7,14111328125E-09;-0,349090576171875;8;633;1,26893818378448E-07;-1,17469951510429E-07;100 nA
-0,30029296875;324,206096181458;6,134033203125E-09;-0,2991943359375;8;634;1,26893818378448E-07;-1,17469951510429E-07;100 nA
-0,250244140625;324,706584180195;5,92041015625E-09;-0,24932861328125;8;635;1,26893818378448E-07;-1,17469951510429E-07;100 nA
-0,2001953125;325,207072178931;5,92041015625E-09;-0,199371337890625;8;636;1,26893818378448E-07;-1,17469951510429E-07;100 nA
-0,150146484375;325,707560177667;6,16455078125E-09;-0,1495361328125;8;637;1,26893818378448E-07;-1,17469951510429E-07;100 nA
-0,10009765625;326,208048176404;6,04248046875E-09;-0,099609375;8;638;1,26893818378448E-07;-1,17469951510429E-07;100 nA
-0,050048828125;326,70853617514;6,011962890625E-09;-0,049725341796875;8;639;1,26893818378448E-07;-1,17469951510429E-07;100 nA
0;327,209024173877;6,378173828125E-09;0,0001373291015625;8;640;1,26893818378448E-07;-1,17469951510429E-07;100 nA
0,050048828125;327,709512172613;6,40869140625E-09;0,050079345703125;9;641;1,27794966101646E-07;-1,16782635450363E-07;100 nA
0,10009765625;328,210000171349;6,683349609375E-09;0,10009765625;9;642;1,27794966101646E-07;-1,16782635450363E-07;100 nA
0,150146484375;328,710488170086;6,77490234375E-09;0,15008544921875;9;643;1,27794966101646E-07;-1,16782635450363E-07;100 nA
0,2001953125;329,210976168822;6,7138671875E-09;0,200042724609375;9;644;1,27794966101646E-07;-1,16782635450363E-07;100 nA
0,250244140625;329,711464167559;6,683349609375E-09;0,25006103515625;9;645;1,27794966101646E-07;-1,16782635450363E-07;100 nA
0,30029296875;330,211952166295;6,988525390625E-09;0,300018310546875;9;646;1,27794966101646E-07;-1,16782635450363E-07;100 nA
0,350341796875;330,712440165031;7,171630859375E-09;0,350006103515625;9;647;1,27794966101646E-07;-1,16782635450363E-07;100 nA
0,400390625;331,212928163768;8,331298828125E-09;0,40008544921875;9;648;1,27794966101646E-07;-1,16782635450363E-07;100 nA
0,450439453125;331,713416162504;8,7890625E-09;0,4500732421875;9;649;1,27794966101646E-07;-1,16782635450363E-07;100 nA
0,50048828125;332,213904161241;8,9111328125E-09;0,5;9;650;1,27794966101646E-07;-1,16782635450363E-07;100 nA
0,550537109375;332,714392159977;7,8125E-09;0,550018310546875;9;651;1,27794966101646E-07;-1,16782635450363E-07;100 nA
0,6005859375;333,214880158713;7,659912109375E-09;0,5999755859375;9;652;1,27794966101646E-07;-1,16782635450363E-07;100 nA
0,650634765625;333,71536815745;7,38525390625E-09;0,649810791015625;9;653;1,27794966101646E-07;-1,16782635450363E-07;100 nA
0,70068359375;334,215856156186;8,056640625E-09;0,6998291015625;9;654;1,27794966101646E-07;-1,16782635450363E-07;100 nA
0,750732421875;334,716344154922;7,4462890625E-09;0,749786376953125;9;655;1,27794966101646E-07;-1,16782635450363E-07;100 nA
0,80078125;335,216832153659;8,30078125E-09;0,799560546875;9;656;1,27794966101646E-07;-1,16782635450363E-07;100 nA
0,850830078125;335,717320152395;8,7890625E-09;0,849609375;9;657;1,27794966101646E-07;-1,16782635450363E-07;100 nA
0,90087890625;336,217808151132;9,613037109375E-09;0,899658203125;9;658;1,27794966101646E-07;-1,16782635450363E-07;100 nA
0,950927734375;336,718296149868;1,1077880859375E-08;0,95001220703125;9;659;1,27794966101646E-07;-1,16782635450363E-07;100 nA
1,0009765625;337,218784148604;1,3702392578125E-08;0,99884033203125;9;660;1,27794966101646E-07;-1,16782635450363E-07;100 nA
0,950927734375;337,719272147341;6,622314453125E-09;0,95001220703125;9;661;1,27794966101646E-07;-1,16782635450363E-07;100 nA
0,90087890625;338,219760146077;2,74658203125E-09;0,89996337890625;9;662;1,27794966101646E-07;-1,16782635450363E-07;100 nA
0,850830078125;338,720248144814;1,373291015625E-09;0,84991455078125;9;663;1,27794966101646E-07;-1,16782635450363E-07;100 nA
0,80078125;339,22073614355;5,18798828125E-10;0,79986572265625;9;664;1,27794966101646E-07;-1,16782635450363E-07;100 nA
0,750732421875;339,721224142286;-2,13623046875E-10;0,749847412109375;9;665;1,27794966101646E-07;-1,16782635450363E-07;100 nA
0,70068359375;340,221712141023;-7,62939453125E-10;0,69989013671875;9;666;1,27794966101646E-07;-1,16782635450363E-07;100 nA
0,650634765625;340,722200139759;-1,0986328125E-09;0,65008544921875;9;667;1,27794966101646E-07;-1,16782635450363E-07;100 nA
0,6005859375;341,222688138496;-1,312255859375E-09;0,600128173828125;9;668;1,27794966101646E-07;-1,16782635450363E-07;100 nA
0,550537109375;341,723176137232;-1,739501953125E-09;0,55010986328125;9;669;1,27794966101646E-07;-1,16782635450363E-07;100 nA
0,50048828125;342,223664135968;-2,5634765625E-09;0,5001220703125;9;670;1,27794966101646E-07;-1,16782635450363E-07;100 nA
0,450439453125;342,724152134705;-4,08935546875E-09;0,450164794921875;9;671;1,27794966101646E-07;-1,16782635450363E-07;100 nA
0,400390625;343,224640133441;-3,173828125E-09;0,400177001953125;9;672;1,27794966101646E-07;-1,16782635450363E-07;100 nA
0,350341796875;343,725128132177;-3,387451171875E-09;0,350128173828125;9;673;1,27794966101646E-07;-1,16782635450363E-07;100 nA
0,30029296875;344,225616130914;-4,39453125E-09;0,3001708984375;9;674;1,27794966101646E-07;-1,16782635450363E-07;100 nA
0,250244140625;344,72610412965;-4,302978515625E-09;0,25018310546875;9;675;1,27794966101646E-07;-1,16782635450363E-07;100 nA
0,2001953125;345,226592128387;-4,08935546875E-09;0,200103759765625;9;676;1,27794966101646E-07;-1,16782635450363E-07;100 nA
0,150146484375;345,727080127123;-4,33349609375E-09;0,150146484375;9;677;1,27794966101646E-07;-1,16782635450363E-07;100 nA
0,10009765625;346,227568125859;-5,0048828125E-09;0,10009765625;9;678;1,27794966101646E-07;-1,16782635450363E-07;100 nA
0,050048828125;346,728056124596;-5,279541015625E-09;0,050079345703125;9;679;1,27794966101646E-07;-1,16782635450363E-07;100 nA
0;347,228544123332;-6,439208984375E-09;0,000131225585937506;9;680;1,27794966101646E-07;-1,16782635450363E-07;100 nA
-0,050048828125;347,729032122069;-7,049560546875E-09;-0,0497314453125;9;681;1,27794966101646E-07;-1,16782635450363E-07;100 nA
-0,10009765625;348,229520120805;-7,354736328125E-09;-0,099639892578125;9;682;1,27794966101646E-07;-1,16782635450363E-07;100 nA
-0,150146484375;348,730008119541;-7,659912109375E-09;-0,149566650390625;9;683;1,27794966101646E-07;-1,16782635450363E-07;100 nA
-0,2001953125;349,230496118278;-7,8125E-09;-0,199462890625;9;684;1,27794966101646E-07;-1,16782635450363E-07;100 nA
-0,250244140625;349,730984117014;-7,87353515625E-09;-0,249359130859375;9;685;1,27794966101646E-07;-1,16782635450363E-07;100 nA
-0,30029296875;350,231472115751;-8,056640625E-09;-0,29925537109375;9;686;1,27794966101646E-07;-1,16782635450363E-07;100 nA
-0,350341796875;350,731960114487;-8,209228515625E-09;-0,349151611328125;9;687;1,27794966101646E-07;-1,16782635450363E-07;100 nA
-0,400390625;351,232448113223;-8,48388671875E-09;-0,3990478515625;9;688;1,27794966101646E-07;-1,16782635450363E-07;100 nA
-0,450439453125;351,73293611196;-8,85009765625E-09;-0,448944091796875;9;689;1,27794966101646E-07;-1,16782635450363E-07;100 nA
-0,50048828125;352,233424110696;-9,46044921875E-09;-0,498870849609375;9;690;1,27794966101646E-07;-1,16782635450363E-07;100 nA
-0,550537109375;352,733912109432;-1,0498046875E-08;-0,5487060546875;9;691;1,27794966101646E-07;-1,16782635450363E-07;100 nA
-0,6005859375;353,234400108169;-1,2298583984375E-08;-0,5986328125;9;692;1,27794966101646E-07;-1,16782635450363E-07;100 nA
-0,650634765625;353,734888106905;-1,35498046875E-08;-0,6485595703125;9;693;1,27794966101646E-07;-1,16782635450363E-07;100 nA
-0,70068359375;354,235376105642;-1,0284423828125E-08;-0,698577880859375;9;694;1,27794966101646E-07;-1,16782635450363E-07;100 nA
-0,750732421875;354,735864104378;-7,476806640625E-09;-0,748565673828125;9;695;1,27794966101646E-07;-1,16782635450363E-07;100 nA
-0,80078125;355,236352103114;-7,415771484375E-09;-0,7989501953125;9;696;1,27794966101646E-07;-1,16782635450363E-07;100 nA
-0,850830078125;355,736840101851;-7,537841796875E-09;-0,84869384765625;9;697;1,27794966101646E-07;-1,16782635450363E-07;100 nA
-0,90087890625;356,237328100587;-7,720947265625E-09;-0,8984375;9;698;1,27794966101646E-07;-1,16782635450363E-07;100 nA
-0,950927734375;356,737816099324;-7,568359375E-09;-0,9490966796875;9;699;1,27794966101646E-07;-1,16782635450363E-07;100 nA
-1,0009765625;357,23830409806;-7,8125E-09;-0,99884033203125;9;700;1,27794966101646E-07;-1,16782635450363E-07;100 nA
-0,950927734375;357,738792096796;-4,5166015625E-09;-0,9490966796875;9;701;1,27794966101646E-07;-1,16782635450363E-07;100 nA
-0,90087890625;358,239280095533;-1,556396484375E-09;-0,89874267578125;9;702;1,27794966101646E-07;-1,16782635450363E-07;100 nA
-0,850830078125;358,739768094269;-1,068115234375E-09;-0,8489990234375;9;703;1,27794966101646E-07;-1,16782635450363E-07;100 nA
-0,80078125;359,240256093006;-8,23974609375E-10;-0,79864501953125;9;704;1,27794966101646E-07;-1,16782635450363E-07;100 nA
-0,750732421875;359,740744091742;-2,13623046875E-10;-0,748565673828125;9;705;1,27794966101646E-07;-1,16782635450363E-07;100 nA
-0,70068359375;360,241232090478;1,15966796875E-09;-0,69854736328125;9;706;1,27794966101646E-07;-1,16782635450363E-07;100 nA
-0,650634765625;360,741720089215;2,044677734375E-09;-0,6485595703125;9;707;1,27794966101646E-07;-1,16782635450363E-07;100 nA
-0,6005859375;361,242208087951;3,173828125E-09;-0,5986328125;9;708;1,27794966101646E-07;-1,16782635450363E-07;100 nA
-0,550537109375;361,742696086687;4,425048828125E-09;-0,548736572265625;9;709;1,27794966101646E-07;-1,16782635450363E-07;100 nA
-0,50048828125;362,243184085424;5,950927734375E-09;-0,498779296875;9;710;1,27794966101646E-07;-1,16782635450363E-07;100 nA
-0,450439453125;362,74367208416;6,988525390625E-09;-0,448974609375;9;711;1,27794966101646E-07;-1,16782635450363E-07;100 nA
-0,400390625;363,244160082897;7,38525390625E-09;-0,399017333984375;9;712;1,27794966101646E-07;-1,16782635450363E-07;100 nA
-0,350341796875;363,744648081633;6,591796875E-09;-0,349151611328125;9;713;1,27794966101646E-07;-1,16782635450363E-07;100 nA
-0,30029296875;364,245136080369;6,103515625E-09;-0,299224853515625;9;714;1,27794966101646E-07;-1,16782635450363E-07;100 nA
-0,250244140625;364,745624079106;5,92041015625E-09;-0,249298095703125;9;715;1,27794966101646E-07;-1,16782635450363E-07;100 nA
-0,2001953125;365,246112077842;5,79833984375E-09;-0,199432373046875;9;716;1,27794966101646E-07;-1,16782635450363E-07;100 nA
-0,150146484375;365,746600076579;6,2255859375E-09;-0,149505615234375;9;717;1,27794966101646E-07;-1,16782635450363E-07;100 nA
-0,10009765625;366,247088075315;6,2255859375E-09;-0,099700927734375;9;718;1,27794966101646E-07;-1,16782635450363E-07;100 nA
-0,050048828125;366,747576074051;6,4697265625E-09;-0,0497222900390625;9;719;1,27794966101646E-07;-1,16782635450363E-07;100 nA
0;367,248064072788;6,317138671875E-09;0,000143432617187494;9;720;1,27794966101646E-07;-1,16782635450363E-07;100 nA
0,050048828125;367,748552071524;6,40869140625E-09;0,050079345703125;10;721;1,25855207443237E-07;-1,17454677820206E-07;100 nA
0,10009765625;368,249040070261;6,500244140625E-09;0,100128173828125;10;722;1,25855207443237E-07;-1,17454677820206E-07;100 nA
0,150146484375;368,749528068997;6,439208984375E-09;0,150115966796875;10;723;1,25855207443237E-07;-1,17454677820206E-07;100 nA
0,2001953125;369,250016067733;6,7138671875E-09;0,20013427734375;10;724;1,25855207443237E-07;-1,17454677820206E-07;100 nA
0,250244140625;369,75050406647;6,7138671875E-09;0,250152587890625;10;725;1,25855207443237E-07;-1,17454677820206E-07;100 nA
0,30029296875;370,250992065206;6,866455078125E-09;0,300079345703125;10;726;1,25855207443237E-07;-1,17454677820206E-07;100 nA
0,350341796875;370,751480063942;7,232666015625E-09;0,350128173828125;10;727;1,25855207443237E-07;-1,17454677820206E-07;100 nA
0,400390625;371,251968062679;8,4228515625E-09;0,40008544921875;10;728;1,25855207443237E-07;-1,17454677820206E-07;100 nA
0,450439453125;371,752456061415;9,002685546875E-09;0,450042724609375;10;729;1,25855207443237E-07;-1,17454677820206E-07;100 nA
0,50048828125;372,252944060152;8,97216796875E-09;0,50006103515625;10;730;1,25855207443237E-07;-1,17454677820206E-07;100 nA
0,550537109375;372,753432058888;7,99560546875E-09;0,550079345703125;10;731;1,25855207443237E-07;-1,17454677820206E-07;100 nA
0,6005859375;373,253920057624;7,62939453125E-09;0,600067138671875;10;732;1,25855207443237E-07;-1,17454677820206E-07;100 nA
0,650634765625;373,754408056361;7,8125E-09;0,649993896484375;10;733;1,25855207443237E-07;-1,17454677820206E-07;100 nA
0,70068359375;374,254896055097;7,6904296875E-09;0,69989013671875;10;734;1,25855207443237E-07;-1,17454677820206E-07;100 nA
0,750732421875;374,755384053834;7,9345703125E-09;0,749786376953125;10;735;1,25855207443237E-07;-1,17454677820206E-07;100 nA
0,80078125;375,25587205257;8,087158203125E-09;0,8001708984375;10;736;1,25855207443237E-07;-1,17454677820206E-07;100 nA
0,850830078125;375,756360051306;8,575439453125E-09;0,849609375;10;737;1,25855207443237E-07;-1,17454677820206E-07;100 nA
0,90087890625;376,256848050043;9,613037109375E-09;0,899658203125;10;738;1,25855207443237E-07;-1,17454677820206E-07;100 nA
0,950927734375;376,757336048779;1,08642578125E-08;0,94940185546875;10;739;1,25855207443237E-07;-1,17454677820206E-07;100 nA
1,0009765625;377,257824047516;1,3092041015625E-08;1,00006103515625;10;740;1,25855207443237E-07;-1,17454677820206E-07;100 nA
0,950927734375;377,758312046252;6,561279296875E-09;0,94940185546875;10;741;1,25855207443237E-07;-1,17454677820206E-07;100 nA
0,90087890625;378,258800044988;1,922607421875E-09;0,899658203125;10;742;1,25855207443237E-07;-1,17454677820206E-07;100 nA
0,850830078125;378,759288043725;6,40869140625E-10;0,84991455078125;10;743;1,25855207443237E-07;-1,17454677820206E-07;100 nA
0,80078125;379,259776042461;1,0986328125E-09;0,8001708984375;10;744;1,25855207443237E-07;-1,17454677820206E-07;100 nA
0,750732421875;379,760264041198;-4,2724609375E-10;0,749755859375;10;745;1,25855207443237E-07;-1,17454677820206E-07;100 nA
0,70068359375;380,260752039934;-1,3427734375E-09;0,69989013671875;10;746;1,25855207443237E-07;-1,17454677820206E-07;100 nA
0,650634765625;380,76124003867;-5,18798828125E-10;0,649993896484375;10;747;1,25855207443237E-07;-1,17454677820206E-07;100 nA
0,6005859375;381,261728037407;-1,617431640625E-09;0,600067138671875;10;748;1,25855207443237E-07;-1,17454677820206E-07;100 nA
0,550537109375;381,762216036143;-2,197265625E-09;0,55010986328125;10;749;1,25855207443237E-07;-1,17454677820206E-07;100 nA
0,50048828125;382,262704034879;-2,62451171875E-09;0,500030517578125;10;750;1,25855207443237E-07;-1,17454677820206E-07;100 nA
0,450439453125;382,763192033616;-3,997802734375E-09;0,450103759765625;10;751;1,25855207443237E-07;-1,17454677820206E-07;100 nA
0,400390625;383,263680032352;-3,692626953125E-09;0,400177001953125;10;752;1,25855207443237E-07;-1,17454677820206E-07;100 nA
0,350341796875;383,764168031089;-3,35693359375E-09;0,35009765625;10;753;1,25855207443237E-07;-1,17454677820206E-07;100 nA
0,30029296875;384,264656029825;-4,94384765625E-09;0,30010986328125;10;754;1,25855207443237E-07;-1,17454677820206E-07;100 nA
0,250244140625;384,765144028561;-4,547119140625E-09;0,250091552734375;10;755;1,25855207443237E-07;-1,17454677820206E-07;100 nA
0,2001953125;385,265632027298;-4,608154296875E-09;0,20013427734375;10;756;1,25855207443237E-07;-1,17454677820206E-07;100 nA
0,150146484375;385,766120026034;-4,21142578125E-09;0,150115966796875;10;757;1,25855207443237E-07;-1,17454677820206E-07;100 nA
0,10009765625;386,266608024771;-4,791259765625E-09;0,10015869140625;10;758;1,25855207443237E-07;-1,17454677820206E-07;100 nA
0,050048828125;386,767096023507;-5,4931640625E-09;0,05010986328125;10;759;1,25855207443237E-07;-1,17454677820206E-07;100 nA
0;387,267584022243;-6,16455078125E-09;0,000155639648437497;10;760;1,25855207443237E-07;-1,17454677820206E-07;100 nA
-0,050048828125;387,76807202098;-6,8359375E-09;-0,0497161865234375;10;761;1,25855207443237E-07;-1,17454677820206E-07;100 nA
-0,10009765625;388,268560019716;-7,87353515625E-09;-0,09967041015625;10;762;1,25855207443237E-07;-1,17454677820206E-07;100 nA
-0,150146484375;388,769048018453;-7,598876953125E-09;-0,149566650390625;10;763;1,25855207443237E-07;-1,17454677820206E-07;100 nA
-0,2001953125;389,269536017189;-7,6904296875E-09;-0,19940185546875;10;764;1,25855207443237E-07;-1,17454677820206E-07;100 nA
-0,250244140625;389,770024015925;-7,720947265625E-09;-0,249359130859375;10;765;1,25855207443237E-07;-1,17454677820206E-07;100 nA
-0,30029296875;390,270512014662;-7,904052734375E-09;-0,29925537109375;10;766;1,25855207443237E-07;-1,17454677820206E-07;100 nA
-0,350341796875;390,771000013398;-6,988525390625E-09;-0,34912109375;10;767;1,25855207443237E-07;-1,17454677820206E-07;100 nA
-0,400390625;391,271488012134;-8,819580078125E-09;-0,399078369140625;10;768;1,25855207443237E-07;-1,17454677820206E-07;100 nA
-0,450439453125;391,771976010871;-8,514404296875E-09;-0,44891357421875;10;769;1,25855207443237E-07;-1,17454677820206E-07;100 nA
-0,50048828125;392,272464009607;-1,1077880859375E-08;-0,498809814453125;10;770;1,25855207443237E-07;-1,17454677820206E-07;100 nA
-0,550537109375;392,772952008344;-1,0162353515625E-08;-0,548736572265625;10;771;1,25855207443237E-07;-1,17454677820206E-07;100 nA
-0,6005859375;393,27344000708;-1,1627197265625E-08;-0,5986328125;10;772;1,25855207443237E-07;-1,17454677820206E-07;100 nA
-0,650634765625;393,773928005816;-1,3275146484375E-08;-0,648590087890625;10;773;1,25855207443237E-07;-1,17454677820206E-07;100 nA
-0,70068359375;394,274416004553;-9,796142578125E-09;-0,6986083984375;10;774;1,25855207443237E-07;-1,17454677820206E-07;100 nA
-0,750732421875;394,774904003289;-7,232666015625E-09;-0,748565673828125;10;775;1,25855207443237E-07;-1,17454677820206E-07;100 nA
-0,80078125;395,275392002026;-6,988525390625E-09;-0,79864501953125;10;776;1,25855207443237E-07;-1,17454677820206E-07;100 nA
-0,850830078125;395,775880000762;-7,38525390625E-09;-0,84930419921875;10;777;1,25855207443237E-07;-1,17454677820206E-07;100 nA
-0,90087890625;396,276367999498;-7,99560546875E-09;-0,89874267578125;10;778;1,25855207443237E-07;-1,17454677820206E-07;100 nA
-0,950927734375;396,776855998235;-7,843017578125E-09;-0,948486328125;10;779;1,25855207443237E-07;-1,17454677820206E-07;100 nA
-1,0009765625;397,277343996971;-7,9345703125E-09;-0,99853515625;10;780;1,25855207443237E-07;-1,17454677820206E-07;100 nA
-0,950927734375;397,777831995708;-4,5166015625E-09;-0,94879150390625;10;781;1,25855207443237E-07;-1,17454677820206E-07;100 nA
-0,90087890625;398,278319994444;-2,655029296875E-09;-0,89874267578125;10;782;1,25855207443237E-07;-1,17454677820206E-07;100 nA
-0,850830078125;398,77880799318;-1,28173828125E-09;-0,848388671875;10;783;1,25855207443237E-07;-1,17454677820206E-07;100 nA
-0,80078125;399,279295991917;-4,2724609375E-10;-0,79803466796875;10;784;1,25855207443237E-07;-1,17454677820206E-07;100 nA
-0,750732421875;399,779783990653;3,35693359375E-10;-0,748565673828125;10;785;1,25855207443237E-07;-1,17454677820206E-07;100 nA
-0,70068359375;400,280271989389;9,765625E-10;-0,6986083984375;10;786;1,25855207443237E-07;-1,17454677820206E-07;100 nA
-0,650634765625;400,780759988126;1,739501953125E-09;-0,648590087890625;10;787;1,25855207443237E-07;-1,17454677820206E-07;100 nA
-0,6005859375;401,281247986862;2,899169921875E-09;-0,5986328125;10;788;1,25855207443237E-07;-1,17454677820206E-07;100 nA
-0,550537109375;401,781735985599;4,302978515625E-09;-0,548736572265625;10;789;1,25855207443237E-07;-1,17454677820206E-07;100 nA
-0,50048828125;402,282223984335;6,011962890625E-09;-0,498809814453125;10;790;1,25855207443237E-07;-1,17454677820206E-07;100 nA
-0,450439453125;402,782711983071;6,89697265625E-09;-0,44891357421875;10;791;1,25855207443237E-07;-1,17454677820206E-07;100 nA
-0,400390625;403,283199981808;7,080078125E-09;-0,399078369140625;10;792;1,25855207443237E-07;-1,17454677820206E-07;100 nA
-0,350341796875;403,783687980544;6,53076171875E-09;-0,34918212890625;10;793;1,25855207443237E-07;-1,17454677820206E-07;100 nA
-0,30029296875;404,284175979281;5,9814453125E-09;-0,29925537109375;10;794;1,25855207443237E-07;-1,17454677820206E-07;100 nA
-0,250244140625;404,784663978017;5,859375E-09;-0,24932861328125;10;795;1,25855207443237E-07;-1,17454677820206E-07;100 nA
-0,2001953125;405,285151976753;5,767822265625E-09;-0,199462890625;10;796;1,25855207443237E-07;-1,17454677820206E-07;100 nA
-0,150146484375;405,78563997549;5,859375E-09;-0,1495361328125;10;797;1,25855207443237E-07;-1,17454677820206E-07;100 nA
-0,10009765625;406,286127974226;6,072998046875E-09;-0,099639892578125;10;798;1,25855207443237E-07;-1,17454677820206E-07;100 nA
-0,050048828125;406,786615972963;6,103515625E-09;-0,0497222900390625;10;799;1,25855207443237E-07;-1,17454677820206E-07;100 nA
0;407,287103971699;6,256103515625E-09;0,000125122070312497;10;800;1,25855207443237E-07;-1,17454677820206E-07;100 nA
