Potential applied (V);Time (s);WE(1).Current (A);WE(1).Potential (V);Scan;Index;Q+;Q-;Current range
0,050048828125;7,3571049814251;1,983642578125E-09;0,050140380859375;1;1;1,99336931109428E-07;-3,06191667914391E-07;100 nA
0,10009765625;7,85759298016148;2,960205078125E-09;0,100128173828125;1;2;1,99336931109428E-07;-3,06191667914391E-07;100 nA
0,150146484375;8,35808097889787;3,997802734375E-09;0,1500244140625;1;3;1,99336931109428E-07;-3,06191667914391E-07;100 nA
0,2001953125;8,85856897763426;4,8828125E-09;0,20001220703125;1;4;1,99336931109428E-07;-3,06191667914391E-07;100 nA
0,250244140625;9,35905697637065;6,2255859375E-09;0,25;1;5;1,99336931109428E-07;-3,06191667914391E-07;100 nA
0,30029296875;9,85954497510704;5,9814453125E-09;0,29998779296875;1;6;1,99336931109428E-07;-3,06191667914391E-07;100 nA
0,350341796875;10,3600329738434;6,53076171875E-09;0,3499755859375;1;7;1,99336931109428E-07;-3,06191667914391E-07;100 nA
0,400390625;10,8605209725798;7,965087890625E-09;0,400054931640625;1;8;1,99336931109428E-07;-3,06191667914391E-07;100 nA
0,450439453125;11,3610089713162;1,1566162109375E-08;0,45001220703125;1;9;1,99336931109428E-07;-3,06191667914391E-07;100 nA
0,50048828125;11,8614969700526;1,2420654296875E-08;0,499969482421875;1;10;1,99336931109428E-07;-3,06191667914391E-07;100 nA
0,550537109375;12,361984968789;1,190185546875E-08;0,550018310546875;1;11;1,99336931109428E-07;-3,06191667914391E-07;100 nA
0,6005859375;12,8624729675254;1,031494140625E-08;0,600006103515625;1;12;1,99336931109428E-07;-3,06191667914391E-07;100 nA
0,650634765625;13,3629609662618;1,2939453125E-08;0,64996337890625;1;13;1,99336931109428E-07;-3,06191667914391E-07;100 nA
0,70068359375;13,8634489649982;1,28173828125E-08;0,699920654296875;1;14;1,99336931109428E-07;-3,06191667914391E-07;100 nA
0,750732421875;14,3639369637345;1,397705078125E-08;0,749847412109375;1;15;1,99336931109428E-07;-3,06191667914391E-07;100 nA
0,80078125;14,8644249624709;1,4801025390625E-08;0,79925537109375;1;16;1,99336931109428E-07;-3,06191667914391E-07;100 nA
0,850830078125;15,3649129612073;1,5869140625E-08;0,84991455078125;1;17;1,99336931109428E-07;-3,06191667914391E-07;100 nA
0,90087890625;15,8654009599437;1,7181396484375E-08;0,89996337890625;1;18;1,99336931109428E-07;-3,06191667914391E-07;100 nA
0,950927734375;16,3658889586801;1,9256591796875E-08;0,9503173828125;1;19;1,99336931109428E-07;-3,06191667914391E-07;100 nA
1,0009765625;16,8663769574165;2,1484375E-08;0,99945068359375;1;20;1,99336931109428E-07;-3,06191667914391E-07;100 nA
0,950927734375;17,3668649561529;1,2939453125E-08;0,95001220703125;1;21;1,99336931109428E-07;-3,06191667914391E-07;100 nA
0,90087890625;17,8673529548893;8,270263671875E-09;0,89935302734375;1;22;1,99336931109428E-07;-3,06191667914391E-07;100 nA
0,850830078125;18,3678409536257;4,69970703125E-09;0,849609375;1;23;1,99336931109428E-07;-3,06191667914391E-07;100 nA
0,80078125;18,868328952362;2,74658203125E-09;0,8001708984375;1;24;1,99336931109428E-07;-3,06191667914391E-07;100 nA
0,750732421875;19,3688169510984;1,0986328125E-09;0,749908447265625;1;25;1,99336931109428E-07;-3,06191667914391E-07;100 nA
0,70068359375;19,8693049498348;-1,8310546875E-10;0,70001220703125;1;26;1,99336931109428E-07;-3,06191667914391E-07;100 nA
0,650634765625;20,3697929485712;-1,434326171875E-09;0,65008544921875;1;27;1,99336931109428E-07;-3,06191667914391E-07;100 nA
0,6005859375;20,8702809473076;-2,01416015625E-09;0,60015869140625;1;28;1,99336931109428E-07;-3,06191667914391E-07;100 nA
0,550537109375;21,370768946044;-2,655029296875E-09;0,55010986328125;1;29;1,99336931109428E-07;-3,06191667914391E-07;100 nA
0,50048828125;21,8712569447804;-3,936767578125E-09;0,500030517578125;1;30;1,99336931109428E-07;-3,06191667914391E-07;100 nA
0,450439453125;22,3717449435168;-6,34765625E-09;0,450042724609375;1;31;1,99336931109428E-07;-3,06191667914391E-07;100 nA
0,400390625;22,8722329422532;-8,60595703125E-09;0,400115966796875;1;32;1,99336931109428E-07;-3,06191667914391E-07;100 nA
0,350341796875;23,3727209409896;-8,758544921875E-09;0,350128173828125;1;33;1,99336931109428E-07;-3,06191667914391E-07;100 nA
0,30029296875;23,8732089397259;-8,392333984375E-09;0,300048828125;1;34;1,99336931109428E-07;-3,06191667914391E-07;100 nA
0,250244140625;24,3736969384623;-8,85009765625E-09;0,250030517578125;1;35;1,99336931109428E-07;-3,06191667914391E-07;100 nA
0,2001953125;24,8741849371987;-9,82666015625E-09;0,20001220703125;1;36;1,99336931109428E-07;-3,06191667914391E-07;100 nA
0,150146484375;25,3746729359351;-1,092529296875E-08;0,1500244140625;1;37;1,99336931109428E-07;-3,06191667914391E-07;100 nA
0,10009765625;25,8751609346715;-1,20849609375E-08;0,100067138671875;1;38;1,99336931109428E-07;-3,06191667914391E-07;100 nA
0,050048828125;26,3756489334079;-1,312255859375E-08;0,050048828125;1;39;1,99336931109428E-07;-3,06191667914391E-07;100 nA
0;26,8761369321443;-1,397705078125E-08;0,000131225585937506;1;40;1,99336931109428E-07;-3,06191667914391E-07;100 nA
-0,050048828125;27,3766249308807;-1,46484375E-08;-0,049957275390625;1;41;1,99336931109428E-07;-3,06191667914391E-07;100 nA
-0,10009765625;27,8771129296171;-1,5350341796875E-08;-0,099761962890625;1;42;1,99336931109428E-07;-3,06191667914391E-07;100 nA
-0,150146484375;28,3776009283534;-1,62353515625E-08;-0,14959716796875;1;43;1,99336931109428E-07;-3,06191667914391E-07;100 nA
-0,2001953125;28,8780889270898;-1,6845703125E-08;-0,199462890625;1;44;1,99336931109428E-07;-3,06191667914391E-07;100 nA
-0,250244140625;29,3785769258262;-1,708984375E-08;-0,249298095703125;1;45;1,99336931109428E-07;-3,06191667914391E-07;100 nA
-0,30029296875;29,8790649245626;-1,7181396484375E-08;-0,29925537109375;1;46;1,99336931109428E-07;-3,06191667914391E-07;100 nA
-0,350341796875;30,379552923299;-1,7425537109375E-08;-0,349151611328125;1;47;1,99336931109428E-07;-3,06191667914391E-07;100 nA
-0,400390625;30,8800409220354;-1,788330078125E-08;-0,3990478515625;1;48;1,99336931109428E-07;-3,06191667914391E-07;100 nA
-0,450439453125;31,3805289207718;-1,763916015625E-08;-0,448883056640625;1;49;1,99336931109428E-07;-3,06191667914391E-07;100 nA
-0,50048828125;31,8810169195082;-1,85546875E-08;-0,498809814453125;1;50;1,99336931109428E-07;-3,06191667914391E-07;100 nA
-0,550537109375;32,3815049182446;-1,9866943359375E-08;-0,548736572265625;1;51;1,99336931109428E-07;-3,06191667914391E-07;100 nA
-0,6005859375;32,8819929169809;-2,252197265625E-08;-0,598541259765625;1;52;1,99336931109428E-07;-3,06191667914391E-07;100 nA
-0,650634765625;33,3824809157173;-2,569580078125E-08;-0,648468017578125;1;53;1,99336931109428E-07;-3,06191667914391E-07;100 nA
-0,70068359375;33,8829689144537;-2,3681640625E-08;-0,698486328125;1;54;1,99336931109428E-07;-3,06191667914391E-07;100 nA
-0,750732421875;34,3834569131901;-2,1728515625E-08;-0,748443603515625;1;55;1,99336931109428E-07;-3,06191667914391E-07;100 nA
-0,80078125;34,8839449119265;-2,18505859375E-08;-0,79864501953125;1;56;1,99336931109428E-07;-3,06191667914391E-07;100 nA
-0,850830078125;35,3844329106629;-2,3773193359375E-08;-0,8489990234375;1;57;1,99336931109428E-07;-3,06191667914391E-07;100 nA
-0,90087890625;35,8849209093993;-2,72216796875E-08;-0,8984375;1;58;1,99336931109428E-07;-3,06191667914391E-07;100 nA
-0,950927734375;36,3854089081357;-3,1707763671875E-08;-0,9490966796875;1;59;1,99336931109428E-07;-3,06191667914391E-07;100 nA
-1,0009765625;36,8858969068721;-3,6407470703125E-08;-0,99884033203125;1;60;1,99336931109428E-07;-3,06191667914391E-07;100 nA
-0,950927734375;37,3863849056085;-2,618408203125E-08;-0,94879150390625;1;61;1,99336931109428E-07;-3,06191667914391E-07;100 nA
-0,90087890625;37,8868729043448;-1,9012451171875E-08;-0,89874267578125;1;62;1,99336931109428E-07;-3,06191667914391E-07;100 nA
-0,850830078125;38,3873609030812;-1,3946533203125E-08;-0,8489990234375;1;63;1,99336931109428E-07;-3,06191667914391E-07;100 nA
-0,80078125;38,8878489018176;-9,58251953125E-09;-0,7989501953125;1;64;1,99336931109428E-07;-3,06191667914391E-07;100 nA
-0,750732421875;39,388336900554;-5,9814453125E-09;-0,748626708984375;1;65;1,99336931109428E-07;-3,06191667914391E-07;100 nA
-0,70068359375;39,8888248992904;-2,655029296875E-09;-0,698577880859375;1;66;1,99336931109428E-07;-3,06191667914391E-07;100 nA
-0,650634765625;40,3893128980268;3,662109375E-10;-0,648590087890625;1;67;1,99336931109428E-07;-3,06191667914391E-07;100 nA
-0,6005859375;40,8898008967632;4,425048828125E-09;-0,598663330078125;1;68;1,99336931109428E-07;-3,06191667914391E-07;100 nA
-0,550537109375;41,3902888954996;8,544921875E-09;-0,548797607421875;1;69;1,99336931109428E-07;-3,06191667914391E-07;100 nA
-0,50048828125;41,890776894236;1,20849609375E-08;-0,498870849609375;1;70;1,99336931109428E-07;-3,06191667914391E-07;100 nA
-0,450439453125;42,3912648929723;1,26953125E-08;-0,448974609375;1;71;1,99336931109428E-07;-3,06191667914391E-07;100 nA
-0,400390625;42,8917528917087;1,129150390625E-08;-0,399200439453125;1;72;1,99336931109428E-07;-3,06191667914391E-07;100 nA
-0,350341796875;43,3922408904451;1,0833740234375E-08;-0,349365234375;1;73;1,99336931109428E-07;-3,06191667914391E-07;100 nA
-0,30029296875;43,8927288891815;1,123046875E-08;-0,299407958984375;1;74;1,99336931109428E-07;-3,06191667914391E-07;100 nA
-0,250244140625;44,3932168879179;1,190185546875E-08;-0,249542236328125;1;75;1,99336931109428E-07;-3,06191667914391E-07;100 nA
-0,2001953125;44,8937048866543;1,2542724609375E-08;-0,199615478515625;1;76;1,99336931109428E-07;-3,06191667914391E-07;100 nA
-0,150146484375;45,3941928853907;1,3397216796875E-08;-0,149688720703125;1;77;1,99336931109428E-07;-3,06191667914391E-07;100 nA
-0,10009765625;45,8946808841271;1,4129638671875E-08;-0,099761962890625;1;78;1,99336931109428E-07;-3,06191667914391E-07;100 nA
-0,050048828125;46,3951688828635;1,4678955078125E-08;-0,0498046875;1;79;1,99336931109428E-07;-3,06191667914391E-07;100 nA
0;46,8956568815998;1,5350341796875E-08;0,000134277343750003;1;80;1,99336931109428E-07;-3,06191667914391E-07;100 nA
0,050048828125;47,3961448803362;1,5838623046875E-08;0,050079345703125;2;81;2,65273451805115E-07;-2,90123745799065E-07;100 nA
0,10009765625;47,8966328790726;1,5899658203125E-08;0,100067138671875;2;82;2,65273451805115E-07;-2,90123745799065E-07;100 nA
0,150146484375;48,397120877809;1,5380859375E-08;0,15008544921875;2;83;2,65273451805115E-07;-2,90123745799065E-07;100 nA
0,2001953125;48,8976088765454;1,4495849609375E-08;0,200103759765625;2;84;2,65273451805115E-07;-2,90123745799065E-07;100 nA
0,250244140625;49,3980968752818;1,434326171875E-08;0,25018310546875;2;85;2,65273451805115E-07;-2,90123745799065E-07;100 nA
0,30029296875;49,8985848740182;1,42822265625E-08;0,300018310546875;2;86;2,65273451805115E-07;-2,90123745799065E-07;100 nA
0,350341796875;50,3990728727546;1,47705078125E-08;0,35015869140625;2;87;2,65273451805115E-07;-2,90123745799065E-07;100 nA
0,400390625;50,899560871491;1,6021728515625E-08;0,400146484375;2;88;2,65273451805115E-07;-2,90123745799065E-07;100 nA
0,450439453125;51,4000488702274;1,5594482421875E-08;0,45013427734375;2;89;2,65273451805115E-07;-2,90123745799065E-07;100 nA
0,50048828125;51,9005368689637;1,5411376953125E-08;0,500152587890625;2;90;2,65273451805115E-07;-2,90123745799065E-07;100 nA
0,550537109375;52,4010248677001;1,5716552734375E-08;0,5501708984375;2;91;2,65273451805115E-07;-2,90123745799065E-07;100 nA
0,6005859375;52,9015128664365;1,5960693359375E-08;0,60015869140625;2;92;2,65273451805115E-07;-2,90123745799065E-07;100 nA
0,650634765625;53,4020008651729;1,62353515625E-08;0,650054931640625;2;93;2,65273451805115E-07;-2,90123745799065E-07;100 nA
0,70068359375;53,9024888639093;1,67236328125E-08;0,69989013671875;2;94;2,65273451805115E-07;-2,90123745799065E-07;100 nA
0,750732421875;54,4029768626457;1,7303466796875E-08;0,74981689453125;2;95;2,65273451805115E-07;-2,90123745799065E-07;100 nA
0,80078125;54,9034648613821;1,79443359375E-08;0,8001708984375;2;96;2,65273451805115E-07;-2,90123745799065E-07;100 nA
0,850830078125;55,4039528601185;1,8951416015625E-08;0,8502197265625;2;97;2,65273451805115E-07;-2,90123745799065E-07;100 nA
0,90087890625;55,9044408588549;2,001953125E-08;0,899658203125;2;98;2,65273451805115E-07;-2,90123745799065E-07;100 nA
0,950927734375;56,4049288575912;2,2064208984375E-08;0,95001220703125;2;99;2,65273451805115E-07;-2,90123745799065E-07;100 nA
1,0009765625;56,9054168563276;2,50244140625E-08;0,99945068359375;2;100;2,65273451805115E-07;-2,90123745799065E-07;100 nA
0,950927734375;57,405904855064;1,4739990234375E-08;0,95001220703125;2;101;2,65273451805115E-07;-2,90123745799065E-07;100 nA
0,90087890625;57,9063928538004;9,307861328125E-09;0,89935302734375;2;102;2,65273451805115E-07;-2,90123745799065E-07;100 nA
0,850830078125;58,4068808525368;5,767822265625E-09;0,85052490234375;2;103;2,65273451805115E-07;-2,90123745799065E-07;100 nA
0,80078125;58,9073688512732;2,8076171875E-09;0,79986572265625;2;104;2,65273451805115E-07;-2,90123745799065E-07;100 nA
0,750732421875;59,4078568500096;1,0986328125E-09;0,749755859375;2;105;2,65273451805115E-07;-2,90123745799065E-07;100 nA
0,70068359375;59,908344848746;-9,1552734375E-11;0,699798583984375;2;106;2,65273451805115E-07;-2,90123745799065E-07;100 nA
0,650634765625;60,4088328474824;-1,312255859375E-09;0,6500244140625;2;107;2,65273451805115E-07;-2,90123745799065E-07;100 nA
0,6005859375;60,9093208462187;-1,953125E-09;0,600006103515625;2;108;2,65273451805115E-07;-2,90123745799065E-07;100 nA
0,550537109375;61,4098088449551;-2,50244140625E-09;0,550079345703125;2;109;2,65273451805115E-07;-2,90123745799065E-07;100 nA
0,50048828125;61,9102968436915;-3,60107421875E-09;0,5;2;110;2,65273451805115E-07;-2,90123745799065E-07;100 nA
0,450439453125;62,4107848424279;-5,0048828125E-09;0,450103759765625;2;111;2,65273451805115E-07;-2,90123745799065E-07;100 nA
0,400390625;62,9112728411643;-7,720947265625E-09;0,400146484375;2;112;2,65273451805115E-07;-2,90123745799065E-07;100 nA
0,350341796875;63,4117608399007;-8,85009765625E-09;0,350128173828125;2;113;2,65273451805115E-07;-2,90123745799065E-07;100 nA
0,30029296875;63,9122488386371;-8,148193359375E-09;0,300079345703125;2;114;2,65273451805115E-07;-2,90123745799065E-07;100 nA
0,250244140625;64,4127368373735;-8,148193359375E-09;0,250091552734375;2;115;2,65273451805115E-07;-2,90123745799065E-07;100 nA
0,2001953125;64,9132248361099;-8,636474609375E-09;0,20013427734375;2;116;2,65273451805115E-07;-2,90123745799065E-07;100 nA
0,150146484375;65,4137128348463;-9,27734375E-09;0,150146484375;2;117;2,65273451805115E-07;-2,90123745799065E-07;100 nA
0,10009765625;65,9142008335826;-1,0040283203125E-08;0,10009765625;2;118;2,65273451805115E-07;-2,90123745799065E-07;100 nA
0,050048828125;66,414688832319;-1,08642578125E-08;0,050140380859375;2;119;2,65273451805115E-07;-2,90123745799065E-07;100 nA
0;66,9151768310554;-1,1810302734375E-08;0,000146484375000006;2;120;2,65273451805115E-07;-2,90123745799065E-07;100 nA
-0,050048828125;67,4156648297918;-1,300048828125E-08;-0,049725341796875;2;121;2,65273451805115E-07;-2,90123745799065E-07;100 nA
-0,10009765625;67,9161528285282;-1,3641357421875E-08;-0,099578857421875;2;122;2,65273451805115E-07;-2,90123745799065E-07;100 nA
-0,150146484375;68,4166408272646;-1,47705078125E-08;-0,1495361328125;2;123;2,65273451805115E-07;-2,90123745799065E-07;100 nA
-0,2001953125;68,917128826001;-1,5350341796875E-08;-0,1993408203125;2;124;2,65273451805115E-07;-2,90123745799065E-07;100 nA
-0,250244140625;69,4176168247374;-1,580810546875E-08;-0,249267578125;2;125;2,65273451805115E-07;-2,90123745799065E-07;100 nA
-0,30029296875;69,9181048234738;-1,59912109375E-08;-0,299163818359375;2;126;2,65273451805115E-07;-2,90123745799065E-07;100 nA
-0,350341796875;70,4185928222101;-1,6082763671875E-08;-0,34906005859375;2;127;2,65273451805115E-07;-2,90123745799065E-07;100 nA
-0,400390625;70,9190808209465;-1,62353515625E-08;-0,3990478515625;2;128;2,65273451805115E-07;-2,90123745799065E-07;100 nA
-0,450439453125;71,4195688196829;-1,66015625E-08;-0,44891357421875;2;129;2,65273451805115E-07;-2,90123745799065E-07;100 nA
-0,50048828125;71,9200568184193;-1,7333984375E-08;-0,498779296875;2;130;2,65273451805115E-07;-2,90123745799065E-07;100 nA
-0,550537109375;72,4205448171557;-1,9073486328125E-08;-0,5487060546875;2;131;2,65273451805115E-07;-2,90123745799065E-07;100 nA
-0,6005859375;72,9210328158921;-2,142333984375E-08;-0,5986328125;2;132;2,65273451805115E-07;-2,90123745799065E-07;100 nA
-0,650634765625;73,4215208146285;-2,154541015625E-08;-0,648529052734375;2;133;2,65273451805115E-07;-2,90123745799065E-07;100 nA
-0,70068359375;73,9220088133649;-2,1240234375E-08;-0,698516845703125;2;134;2,65273451805115E-07;-2,90123745799065E-07;100 nA
-0,750732421875;74,4224968121013;-2,3529052734375E-08;-0,748565673828125;2;135;2,65273451805115E-07;-2,90123745799065E-07;100 nA
-0,80078125;74,9229848108376;-2,6336669921875E-08;-0,7989501953125;2;136;2,65273451805115E-07;-2,90123745799065E-07;100 nA
-0,850830078125;75,423472809574;-2,7740478515625E-08;-0,84869384765625;2;137;2,65273451805115E-07;-2,90123745799065E-07;100 nA
-0,90087890625;75,9239608083104;-2,91748046875E-08;-0,89874267578125;2;138;2,65273451805115E-07;-2,90123745799065E-07;100 nA
-0,950927734375;76,4244488070468;-3,1463623046875E-08;-0,9490966796875;2;139;2,65273451805115E-07;-2,90123745799065E-07;100 nA
-1,0009765625;76,9249368057832;-3,5003662109375E-08;-0,99884033203125;2;140;2,65273451805115E-07;-2,90123745799065E-07;100 nA
-0,950927734375;77,4254248045196;-2,4871826171875E-08;-0,94879150390625;2;141;2,65273451805115E-07;-2,90123745799065E-07;100 nA
-0,90087890625;77,925912803256;-1,788330078125E-08;-0,8990478515625;2;142;2,65273451805115E-07;-2,90123745799065E-07;100 nA
-0,850830078125;78,4264008019924;-1,263427734375E-08;-0,84869384765625;2;143;2,65273451805115E-07;-2,90123745799065E-07;100 nA
-0,80078125;78,9268888007288;-8,23974609375E-09;-0,79803466796875;2;144;2,65273451805115E-07;-2,90123745799065E-07;100 nA
-0,750732421875;79,4273767994652;-4,638671875E-09;-0,7486572265625;2;145;2,65273451805115E-07;-2,90123745799065E-07;100 nA
-0,70068359375;79,9278647982015;-2,105712890625E-09;-0,698638916015625;2;146;2,65273451805115E-07;-2,90123745799065E-07;100 nA
-0,650634765625;80,4283527969379;1,03759765625E-09;-0,64862060546875;2;147;2,65273451805115E-07;-2,90123745799065E-07;100 nA
-0,6005859375;80,9288407956743;4,82177734375E-09;-0,598663330078125;2;148;2,65273451805115E-07;-2,90123745799065E-07;100 nA
-0,550537109375;81,4293287944107;8,544921875E-09;-0,548736572265625;2;149;2,65273451805115E-07;-2,90123745799065E-07;100 nA
-0,50048828125;81,9298167931471;1,1871337890625E-08;-0,4989013671875;2;150;2,65273451805115E-07;-2,90123745799065E-07;100 nA
-0,450439453125;82,4303047918835;1,2786865234375E-08;-0,449005126953125;2;151;2,65273451805115E-07;-2,90123745799065E-07;100 nA
-0,400390625;82,9307927906199;1,177978515625E-08;-0,3990478515625;2;152;2,65273451805115E-07;-2,90123745799065E-07;100 nA
-0,350341796875;83,4312807893563;1,1138916015625E-08;-0,34918212890625;2;153;2,65273451805115E-07;-2,90123745799065E-07;100 nA
-0,30029296875;83,9317687880927;1,153564453125E-08;-0,29925537109375;2;154;2,65273451805115E-07;-2,90123745799065E-07;100 nA
-0,250244140625;84,432256786829;1,220703125E-08;-0,24932861328125;2;155;2,65273451805115E-07;-2,90123745799065E-07;100 nA
-0,2001953125;84,9327447855654;1,300048828125E-08;-0,199462890625;2;156;2,65273451805115E-07;-2,90123745799065E-07;100 nA
-0,150146484375;85,4332327843018;1,373291015625E-08;-0,149566650390625;2;157;2,65273451805115E-07;-2,90123745799065E-07;100 nA
-0,10009765625;85,9337207830382;1,4617919921875E-08;-0,099639892578125;2;158;2,65273451805115E-07;-2,90123745799065E-07;100 nA
-0,050048828125;86,4342087817746;1,531982421875E-08;-0,0497161865234375;2;159;2,65273451805115E-07;-2,90123745799065E-07;100 nA
0;86,934696780511;1,593017578125E-08;0,000128173828124994;2;160;2,65273451805115E-07;-2,90123745799065E-07;100 nA
0,050048828125;87,4351847792474;1,6387939453125E-08;0,050079345703125;3;161;2,69412621855736E-07;-2,85480543971062E-07;100 nA
0,10009765625;87,9356727779838;1,6754150390625E-08;0,100128173828125;3;162;2,69412621855736E-07;-2,85480543971062E-07;100 nA
0,150146484375;88,4361607767202;1,6998291015625E-08;0,150054931640625;3;163;2,69412621855736E-07;-2,85480543971062E-07;100 nA
0,2001953125;88,9366487754565;1,6571044921875E-08;0,200164794921875;3;164;2,69412621855736E-07;-2,85480543971062E-07;100 nA
0,250244140625;89,4371367741929;1,593017578125E-08;0,2501220703125;3;165;2,69412621855736E-07;-2,85480543971062E-07;100 nA
0,30029296875;89,9376247729293;1,5533447265625E-08;0,300140380859375;3;166;2,69412621855736E-07;-2,85480543971062E-07;100 nA
0,350341796875;90,4381127716657;1,6326904296875E-08;0,35015869140625;3;167;2,69412621855736E-07;-2,85480543971062E-07;100 nA
0,400390625;90,9386007704021;1,6326904296875E-08;0,400146484375;3;168;2,69412621855736E-07;-2,85480543971062E-07;100 nA
0,450439453125;91,4390887691385;1,568603515625E-08;0,45013427734375;3;169;2,69412621855736E-07;-2,85480543971062E-07;100 nA
0,50048828125;91,9395767678749;1,580810546875E-08;0,5001220703125;3;170;2,69412621855736E-07;-2,85480543971062E-07;100 nA
0,550537109375;92,4400647666113;1,6082763671875E-08;0,5501708984375;3;171;2,69412621855736E-07;-2,85480543971062E-07;100 nA
0,6005859375;92,9405527653477;1,6387939453125E-08;0,60015869140625;3;172;2,69412621855736E-07;-2,85480543971062E-07;100 nA
0,650634765625;93,4410407640841;1,5899658203125E-08;0,64996337890625;3;173;2,69412621855736E-07;-2,85480543971062E-07;100 nA
0,70068359375;93,9415287628204;1,8096923828125E-08;0,699920654296875;3;174;2,69412621855736E-07;-2,85480543971062E-07;100 nA
0,750732421875;94,4420167615568;1,580810546875E-08;0,749786376953125;3;175;2,69412621855736E-07;-2,85480543971062E-07;100 nA
0,80078125;94,9425047602932;1,7059326171875E-08;0,79986572265625;3;176;2,69412621855736E-07;-2,85480543971062E-07;100 nA
0,850830078125;95,4429927590296;1,947021484375E-08;0,84991455078125;3;177;2,69412621855736E-07;-2,85480543971062E-07;100 nA
0,90087890625;95,943480757766;2,1392822265625E-08;0,899658203125;3;178;2,69412621855736E-07;-2,85480543971062E-07;100 nA
0,950927734375;96,4439687565024;2,30712890625E-08;0,94970703125;3;179;2,69412621855736E-07;-2,85480543971062E-07;100 nA
1,0009765625;96,9444567552388;2,6123046875E-08;0,99945068359375;3;180;2,69412621855736E-07;-2,85480543971062E-07;100 nA
0,950927734375;97,4449447539752;1,5380859375E-08;0,94970703125;3;181;2,69412621855736E-07;-2,85480543971062E-07;100 nA
0,90087890625;97,9454327527116;9,735107421875E-09;0,9002685546875;3;182;2,69412621855736E-07;-2,85480543971062E-07;100 nA
0,850830078125;98,4459207514479;5,767822265625E-09;0,849609375;3;183;2,69412621855736E-07;-2,85480543971062E-07;100 nA
0,80078125;98,9464087501843;3,265380859375E-09;0,79986572265625;3;184;2,69412621855736E-07;-2,85480543971062E-07;100 nA
0,750732421875;99,4468967489207;1,64794921875E-09;0,74981689453125;3;185;2,69412621855736E-07;-2,85480543971062E-07;100 nA
0,70068359375;99,9473847476571;-4,2724609375E-10;0,699859619140625;3;186;2,69412621855736E-07;-2,85480543971062E-07;100 nA
0,650634765625;100,447872746394;-6,103515625E-10;0,649993896484375;3;187;2,69412621855736E-07;-2,85480543971062E-07;100 nA
0,6005859375;100,94836074513;-2,044677734375E-09;0,600006103515625;3;188;2,69412621855736E-07;-2,85480543971062E-07;100 nA
0,550537109375;101,448848743866;-2,899169921875E-09;0,550018310546875;3;189;2,69412621855736E-07;-2,85480543971062E-07;100 nA
0,50048828125;101,949336742603;-5,126953125E-09;0,500030517578125;3;190;2,69412621855736E-07;-2,85480543971062E-07;100 nA
0,450439453125;102,449824741339;-5,096435546875E-09;0,449981689453125;3;191;2,69412621855736E-07;-2,85480543971062E-07;100 nA
0,400390625;102,950312740075;-7,2021484375E-09;0,399993896484375;3;192;2,69412621855736E-07;-2,85480543971062E-07;100 nA
0,350341796875;103,450800738812;-8,575439453125E-09;0,35003662109375;3;193;2,69412621855736E-07;-2,85480543971062E-07;100 nA
0,30029296875;103,951288737548;-8,392333984375E-09;0,300018310546875;3;194;2,69412621855736E-07;-2,85480543971062E-07;100 nA
0,250244140625;104,451776736285;-8,11767578125E-09;0,249969482421875;3;195;2,69412621855736E-07;-2,85480543971062E-07;100 nA
0,2001953125;104,952264735021;-8,6669921875E-09;0,199981689453125;3;196;2,69412621855736E-07;-2,85480543971062E-07;100 nA
0,150146484375;105,452752733757;-9,002685546875E-09;0,14996337890625;3;197;2,69412621855736E-07;-2,85480543971062E-07;100 nA
0,10009765625;105,953240732494;-9,58251953125E-09;0,100067138671875;3;198;2,69412621855736E-07;-2,85480543971062E-07;100 nA
0,050048828125;106,45372873123;-1,0498046875E-08;0,05010986328125;3;199;2,69412621855736E-07;-2,85480543971062E-07;100 nA
0;106,954216729967;-1,1444091796875E-08;0,000149536132812503;3;200;2,69412621855736E-07;-2,85480543971062E-07;100 nA
-0,050048828125;107,454704728703;-1,25732421875E-08;-0,04974365234375;3;201;2,69412621855736E-07;-2,85480543971062E-07;100 nA
-0,10009765625;107,955192727439;-1,3763427734375E-08;-0,099700927734375;3;202;2,69412621855736E-07;-2,85480543971062E-07;100 nA
-0,150146484375;108,455680726176;-1,446533203125E-08;-0,149505615234375;3;203;2,69412621855736E-07;-2,85480543971062E-07;100 nA
-0,2001953125;108,956168724912;-1,5045166015625E-08;-0,199432373046875;3;204;2,69412621855736E-07;-2,85480543971062E-07;100 nA
-0,250244140625;109,456656723649;-1,568603515625E-08;-0,24932861328125;3;205;2,69412621855736E-07;-2,85480543971062E-07;100 nA
-0,30029296875;109,957144722385;-1,6082763671875E-08;-0,2991943359375;3;206;2,69412621855736E-07;-2,85480543971062E-07;100 nA
-0,350341796875;110,457632721121;-1,6326904296875E-08;-0,34912109375;3;207;2,69412621855736E-07;-2,85480543971062E-07;100 nA
-0,400390625;110,958120719858;-1,66015625E-08;-0,399017333984375;3;208;2,69412621855736E-07;-2,85480543971062E-07;100 nA
-0,450439453125;111,458608718594;-1,708984375E-08;-0,448883056640625;3;209;2,69412621855736E-07;-2,85480543971062E-07;100 nA
-0,50048828125;111,95909671733;-1,8035888671875E-08;-0,498809814453125;3;210;2,69412621855736E-07;-2,85480543971062E-07;100 nA
-0,550537109375;112,459584716067;-1,9561767578125E-08;-0,548736572265625;3;211;2,69412621855736E-07;-2,85480543971062E-07;100 nA
-0,6005859375;112,960072714803;-2,032470703125E-08;-0,598541259765625;3;212;2,69412621855736E-07;-2,85480543971062E-07;100 nA
-0,650634765625;113,46056071354;-1,971435546875E-08;-0,64849853515625;3;213;2,69412621855736E-07;-2,85480543971062E-07;100 nA
-0,70068359375;113,961048712276;-2,0263671875E-08;-0,698455810546875;3;214;2,69412621855736E-07;-2,85480543971062E-07;100 nA
-0,750732421875;114,461536711012;-2,34375E-08;-0,748443603515625;3;215;2,69412621855736E-07;-2,85480543971062E-07;100 nA
-0,80078125;114,962024709749;-2,6611328125E-08;-0,79833984375;3;216;2,69412621855736E-07;-2,85480543971062E-07;100 nA
-0,850830078125;115,462512708485;-2,91748046875E-08;-0,84869384765625;3;217;2,69412621855736E-07;-2,85480543971062E-07;100 nA
-0,90087890625;115,963000707222;-3,045654296875E-08;-0,89874267578125;3;218;2,69412621855736E-07;-2,85480543971062E-07;100 nA
-0,950927734375;116,463488705958;-3,1646728515625E-08;-0,94818115234375;3;219;2,69412621855736E-07;-2,85480543971062E-07;100 nA
-1,0009765625;116,963976704694;-3,4149169921875E-08;-0,99853515625;3;220;2,69412621855736E-07;-2,85480543971062E-07;100 nA
-0,950927734375;117,464464703431;-2,3468017578125E-08;-0,94970703125;3;221;2,69412621855736E-07;-2,85480543971062E-07;100 nA
-0,90087890625;117,964952702167;-1,6265869140625E-08;-0,89874267578125;3;222;2,69412621855736E-07;-2,85480543971062E-07;100 nA
-0,850830078125;118,465440700904;-1,0894775390625E-08;-0,8489990234375;3;223;2,69412621855736E-07;-2,85480543971062E-07;100 nA
-0,80078125;118,96592869964;-6,65283203125E-09;-0,79803466796875;3;224;2,69412621855736E-07;-2,85480543971062E-07;100 nA
-0,750732421875;119,466416698376;-3,509521484375E-09;-0,748626708984375;3;225;2,69412621855736E-07;-2,85480543971062E-07;100 nA
-0,70068359375;119,966904697113;-9,1552734375E-10;-0,6986083984375;3;226;2,69412621855736E-07;-2,85480543971062E-07;100 nA
-0,650634765625;120,467392695849;1,708984375E-09;-0,648590087890625;3;227;2,69412621855736E-07;-2,85480543971062E-07;100 nA
-0,6005859375;120,967880694585;4,69970703125E-09;-0,598663330078125;3;228;2,69412621855736E-07;-2,85480543971062E-07;100 nA
-0,550537109375;121,468368693322;8,1787109375E-09;-0,548797607421875;3;229;2,69412621855736E-07;-2,85480543971062E-07;100 nA
-0,50048828125;121,968856692058;1,1016845703125E-08;-0,498870849609375;3;230;2,69412621855736E-07;-2,85480543971062E-07;100 nA
-0,450439453125;122,469344690795;1,20849609375E-08;-0,449066162109375;3;231;2,69412621855736E-07;-2,85480543971062E-07;100 nA
-0,400390625;122,969832689531;1,129150390625E-08;-0,39910888671875;3;232;2,69412621855736E-07;-2,85480543971062E-07;100 nA
-0,350341796875;123,470320688267;1,019287109375E-08;-0,3492431640625;3;233;2,69412621855736E-07;-2,85480543971062E-07;100 nA
-0,30029296875;123,970808687004;1,0833740234375E-08;-0,29931640625;3;234;2,69412621855736E-07;-2,85480543971062E-07;100 nA
-0,250244140625;124,47129668574;1,129150390625E-08;-0,249481201171875;3;235;2,69412621855736E-07;-2,85480543971062E-07;100 nA
-0,2001953125;124,971784684477;1,2237548828125E-08;-0,199615478515625;3;236;2,69412621855736E-07;-2,85480543971062E-07;100 nA
-0,150146484375;125,472272683213;1,3031005859375E-08;-0,149688720703125;3;237;2,69412621855736E-07;-2,85480543971062E-07;100 nA
-0,10009765625;125,972760681949;1,373291015625E-08;-0,099822998046875;3;238;2,69412621855736E-07;-2,85480543971062E-07;100 nA
-0,050048828125;126,473248680686;1,46484375E-08;-0,0499267578125;3;239;2,69412621855736E-07;-2,85480543971062E-07;100 nA
0;126,973736679422;1,5838623046875E-08;0,000131225585937506;3;240;2,69412621855736E-07;-2,85480543971062E-07;100 nA
0,050048828125;127,474224678159;1,6632080078125E-08;0,050018310546875;4;241;2,74040549993515E-07;-2,81677395105362E-07;100 nA
0,10009765625;127,974712676895;1,708984375E-08;0,100067138671875;4;242;2,74040549993515E-07;-2,81677395105362E-07;100 nA
0,150146484375;128,475200675631;1,69677734375E-08;0,1500244140625;4;243;2,74040549993515E-07;-2,81677395105362E-07;100 nA
0,2001953125;128,975688674368;1,7059326171875E-08;0,2000732421875;4;244;2,74040549993515E-07;-2,81677395105362E-07;100 nA
0,250244140625;129,476176673104;1,654052734375E-08;0,250091552734375;4;245;2,74040549993515E-07;-2,81677395105362E-07;100 nA
0,30029296875;129,97666467184;1,62353515625E-08;0,300048828125;4;246;2,74040549993515E-07;-2,81677395105362E-07;100 nA
0,350341796875;130,477152670577;1,6510009765625E-08;0,35015869140625;4;247;2,74040549993515E-07;-2,81677395105362E-07;100 nA
0,400390625;130,977640669313;1,605224609375E-08;0,400115966796875;4;248;2,74040549993515E-07;-2,81677395105362E-07;100 nA
0,450439453125;131,47812866805;1,593017578125E-08;0,450103759765625;4;249;2,74040549993515E-07;-2,81677395105362E-07;100 nA
0,50048828125;131,978616666786;1,5625E-08;0,5001220703125;4;250;2,74040549993515E-07;-2,81677395105362E-07;100 nA
0,550537109375;132,479104665522;1,6448974609375E-08;0,5501708984375;4;251;2,74040549993515E-07;-2,81677395105362E-07;100 nA
0,6005859375;132,979592664259;1,6571044921875E-08;0,600128173828125;4;252;2,74040549993515E-07;-2,81677395105362E-07;100 nA
0,650634765625;133,480080662995;1,67236328125E-08;0,650054931640625;4;253;2,74040549993515E-07;-2,81677395105362E-07;100 nA
0,70068359375;133,980568661732;1,690673828125E-08;0,699981689453125;4;254;2,74040549993515E-07;-2,81677395105362E-07;100 nA
0,750732421875;134,481056660468;1,7852783203125E-08;0,7498779296875;4;255;2,74040549993515E-07;-2,81677395105362E-07;100 nA
0,80078125;134,981544659204;1,8280029296875E-08;0,8001708984375;4;256;2,74040549993515E-07;-2,81677395105362E-07;100 nA
0,850830078125;135,482032657941;1,934814453125E-08;0,84930419921875;4;257;2,74040549993515E-07;-2,81677395105362E-07;100 nA
0,90087890625;135,982520656677;2,1026611328125E-08;0,899658203125;4;258;2,74040549993515E-07;-2,81677395105362E-07;100 nA
0,950927734375;136,483008655414;2,35595703125E-08;0,95001220703125;4;259;2,74040549993515E-07;-2,81677395105362E-07;100 nA
1,0009765625;136,98349665415;2,691650390625E-08;0,999755859375;4;260;2,74040549993515E-07;-2,81677395105362E-07;100 nA
0,950927734375;137,483984652886;1,5655517578125E-08;0,94970703125;4;261;2,74040549993515E-07;-2,81677395105362E-07;100 nA
0,90087890625;137,984472651623;9,765625E-09;0,89996337890625;4;262;2,74040549993515E-07;-2,81677395105362E-07;100 nA
0,850830078125;138,484960650359;5,67626953125E-09;0,849609375;4;263;2,74040549993515E-07;-2,81677395105362E-07;100 nA
0,80078125;138,985448649095;3,021240234375E-09;0,79986572265625;4;264;2,74040549993515E-07;-2,81677395105362E-07;100 nA
0,750732421875;139,485936647832;1,068115234375E-09;0,749786376953125;4;265;2,74040549993515E-07;-2,81677395105362E-07;100 nA
0,70068359375;139,986424646568;3,96728515625E-10;0,699859619140625;4;266;2,74040549993515E-07;-2,81677395105362E-07;100 nA
0,650634765625;140,486912645305;-1,40380859375E-09;0,6500244140625;4;267;2,74040549993515E-07;-2,81677395105362E-07;100 nA
0,6005859375;140,987400644041;-2,197265625E-09;0,60003662109375;4;268;2,74040549993515E-07;-2,81677395105362E-07;100 nA
0,550537109375;141,487888642777;-3,021240234375E-09;0,54998779296875;4;269;2,74040549993515E-07;-2,81677395105362E-07;100 nA
0,50048828125;141,988376641514;-2,9296875E-09;0,500030517578125;4;270;2,74040549993515E-07;-2,81677395105362E-07;100 nA
0,450439453125;142,48886464025;-4,39453125E-09;0,449981689453125;4;271;2,74040549993515E-07;-2,81677395105362E-07;100 nA
0,400390625;142,989352638987;-6,866455078125E-09;0,400054931640625;4;272;2,74040549993515E-07;-2,81677395105362E-07;100 nA
0,350341796875;143,489840637723;-8,72802734375E-09;0,350128173828125;4;273;2,74040549993515E-07;-2,81677395105362E-07;100 nA
0,30029296875;143,990328636459;-8,392333984375E-09;0,300079345703125;4;274;2,74040549993515E-07;-2,81677395105362E-07;100 nA
0,250244140625;144,490816635196;-7,8125E-09;0,250091552734375;4;275;2,74040549993515E-07;-2,81677395105362E-07;100 nA
0,2001953125;144,991304633932;-7,9345703125E-09;0,2000732421875;4;276;2,74040549993515E-07;-2,81677395105362E-07;100 nA
0,150146484375;145,491792632669;-8,453369140625E-09;0,150115966796875;4;277;2,74040549993515E-07;-2,81677395105362E-07;100 nA
0,10009765625;145,992280631405;-9,185791015625E-09;0,100128173828125;4;278;2,74040549993515E-07;-2,81677395105362E-07;100 nA
0,050048828125;146,492768630141;-1,025390625E-08;0,050201416015625;4;279;2,74040549993515E-07;-2,81677395105362E-07;100 nA
0;146,993256628878;-1,1016845703125E-08;0,0001373291015625;4;280;2,74040549993515E-07;-2,81677395105362E-07;100 nA
-0,050048828125;147,493744627614;-1,2115478515625E-08;-0,0497283935546875;4;281;2,74040549993515E-07;-2,81677395105362E-07;100 nA
-0,10009765625;147,99423262635;-1,3153076171875E-08;-0,099609375;4;282;2,74040549993515E-07;-2,81677395105362E-07;100 nA
-0,150146484375;148,494720625087;-1,3885498046875E-08;-0,149505615234375;4;283;2,74040549993515E-07;-2,81677395105362E-07;100 nA
-0,2001953125;148,995208623823;-1,4617919921875E-08;-0,199371337890625;4;284;2,74040549993515E-07;-2,81677395105362E-07;100 nA
-0,250244140625;149,49569662256;-1,5350341796875E-08;-0,249298095703125;4;285;2,74040549993515E-07;-2,81677395105362E-07;100 nA
-0,30029296875;149,996184621296;-1,580810546875E-08;-0,2991943359375;4;286;2,74040549993515E-07;-2,81677395105362E-07;100 nA
-0,350341796875;150,496672620032;-1,605224609375E-08;-0,34912109375;4;287;2,74040549993515E-07;-2,81677395105362E-07;100 nA
-0,400390625;150,997160618769;-1,6632080078125E-08;-0,398956298828125;4;288;2,74040549993515E-07;-2,81677395105362E-07;100 nA
-0,450439453125;151,497648617505;-1,7303466796875E-08;-0,448944091796875;4;289;2,74040549993515E-07;-2,81677395105362E-07;100 nA
-0,50048828125;151,998136616242;-1,85546875E-08;-0,498779296875;4;290;2,74040549993515E-07;-2,81677395105362E-07;100 nA
-0,550537109375;152,498624614978;-1,995849609375E-08;-0,548797607421875;4;291;2,74040549993515E-07;-2,81677395105362E-07;100 nA
-0,6005859375;152,999112613714;-1,9927978515625E-08;-0,598663330078125;4;292;2,74040549993515E-07;-2,81677395105362E-07;100 nA
-0,650634765625;153,499600612451;-1,9561767578125E-08;-0,648529052734375;4;293;2,74040549993515E-07;-2,81677395105362E-07;100 nA
-0,70068359375;154,000088611187;-2,1270751953125E-08;-0,6986083984375;4;294;2,74040549993515E-07;-2,81677395105362E-07;100 nA
-0,750732421875;154,500576609924;-2,4078369140625E-08;-0,748565673828125;4;295;2,74040549993515E-07;-2,81677395105362E-07;100 nA
-0,80078125;155,00106460866;-2,716064453125E-08;-0,79833984375;4;296;2,74040549993515E-07;-2,81677395105362E-07;100 nA
-0,850830078125;155,501552607396;-3,0059814453125E-08;-0,8489990234375;4;297;2,74040549993515E-07;-2,81677395105362E-07;100 nA
-0,90087890625;156,002040606133;-3,143310546875E-08;-0,8984375;4;298;2,74040549993515E-07;-2,81677395105362E-07;100 nA
-0,950927734375;156,502528604869;-3,271484375E-08;-0,94879150390625;4;299;2,74040549993515E-07;-2,81677395105362E-07;100 nA
-1,0009765625;157,003016603605;-3,436279296875E-08;-0,99884033203125;4;300;2,74040549993515E-07;-2,81677395105362E-07;100 nA
-0,950927734375;157,503504602342;-2,30712890625E-08;-0,948486328125;4;301;2,74040549993515E-07;-2,81677395105362E-07;100 nA
-0,90087890625;158,003992601078;-1,5106201171875E-08;-0,8990478515625;4;302;2,74040549993515E-07;-2,81677395105362E-07;100 nA
-0,850830078125;158,504480599815;-9,8876953125E-09;-0,84930419921875;4;303;2,74040549993515E-07;-2,81677395105362E-07;100 nA
-0,80078125;159,004968598551;-5,706787109375E-09;-0,79833984375;4;304;2,74040549993515E-07;-2,81677395105362E-07;100 nA
-0,750732421875;159,505456597287;-2,38037109375E-09;-0,74853515625;4;305;2,74040549993515E-07;-2,81677395105362E-07;100 nA
-0,70068359375;160,005944596024;-6,103515625E-11;-0,698577880859375;4;306;2,74040549993515E-07;-2,81677395105362E-07;100 nA
-0,650634765625;160,50643259476;2,13623046875E-09;-0,64862060546875;4;307;2,74040549993515E-07;-2,81677395105362E-07;100 nA
-0,6005859375;161,006920593497;4,94384765625E-09;-0,598663330078125;4;308;2,74040549993515E-07;-2,81677395105362E-07;100 nA
-0,550537109375;161,507408592233;8,209228515625E-09;-0,5487060546875;4;309;2,74040549993515E-07;-2,81677395105362E-07;100 nA
-0,50048828125;162,007896590969;1,0833740234375E-08;-0,498779296875;4;310;2,74040549993515E-07;-2,81677395105362E-07;100 nA
-0,450439453125;162,508384589706;1,214599609375E-08;-0,448883056640625;4;311;2,74040549993515E-07;-2,81677395105362E-07;100 nA
-0,400390625;163,008872588442;1,1566162109375E-08;-0,399017333984375;4;312;2,74040549993515E-07;-2,81677395105362E-07;100 nA
-0,350341796875;163,509360587179;1,043701171875E-08;-0,34918212890625;4;313;2,74040549993515E-07;-2,81677395105362E-07;100 nA
-0,30029296875;164,009848585915;1,0498046875E-08;-0,2991943359375;4;314;2,74040549993515E-07;-2,81677395105362E-07;100 nA
-0,250244140625;164,510336584651;1,165771484375E-08;-0,249298095703125;4;315;2,74040549993515E-07;-2,81677395105362E-07;100 nA
-0,2001953125;165,010824583388;1,2542724609375E-08;-0,19940185546875;4;316;2,74040549993515E-07;-2,81677395105362E-07;100 nA
-0,150146484375;165,511312582124;1,348876953125E-08;-0,149566650390625;4;317;2,74040549993515E-07;-2,81677395105362E-07;100 nA
-0,10009765625;166,01180058086;1,4434814453125E-08;-0,0997314453125;4;318;2,74040549993515E-07;-2,81677395105362E-07;100 nA
-0,050048828125;166,512288579597;1,5045166015625E-08;-0,0498046875;4;319;2,74040549993515E-07;-2,81677395105362E-07;100 nA
0;167,012776578333;1,57470703125E-08;0,000128173828124994;4;320;2,74040549993515E-07;-2,81677395105362E-07;100 nA
0,050048828125;167,51326457707;1,641845703125E-08;0,04998779296875;5;321;2,71535664796829E-07;-2,78973951935768E-07;100 nA
0,10009765625;168,013752575806;1,67236328125E-08;0,0999755859375;5;322;2,71535664796829E-07;-2,78973951935768E-07;100 nA
0,150146484375;168,514240574542;1,727294921875E-08;0,149993896484375;5;323;2,71535664796829E-07;-2,78973951935768E-07;100 nA
0,2001953125;169,014728573279;1,715087890625E-08;0,199951171875;5;324;2,71535664796829E-07;-2,78973951935768E-07;100 nA
0,250244140625;169,515216572015;1,617431640625E-08;0,249969482421875;5;325;2,71535664796829E-07;-2,78973951935768E-07;100 nA
0,30029296875;170,015704570752;1,62353515625E-08;0,29998779296875;5;326;2,71535664796829E-07;-2,78973951935768E-07;100 nA
0,350341796875;170,516192569488;1,678466796875E-08;0,350006103515625;5;327;2,71535664796829E-07;-2,78973951935768E-07;100 nA
0,400390625;171,016680568224;1,6021728515625E-08;0,4000244140625;5;328;2,71535664796829E-07;-2,78973951935768E-07;100 nA
0,450439453125;171,517168566961;1,5350341796875E-08;0,449951171875;5;329;2,71535664796829E-07;-2,78973951935768E-07;100 nA
0,50048828125;172,017656565697;1,5533447265625E-08;0,500030517578125;5;330;2,71535664796829E-07;-2,78973951935768E-07;100 nA
0,550537109375;172,518144564434;1,5716552734375E-08;0,549957275390625;5;331;2,71535664796829E-07;-2,78973951935768E-07;100 nA
0,6005859375;173,01863256317;1,5960693359375E-08;0,600067138671875;5;332;2,71535664796829E-07;-2,78973951935768E-07;100 nA
0,650634765625;173,519120561906;1,654052734375E-08;0,64990234375;5;333;2,71535664796829E-07;-2,78973951935768E-07;100 nA
0,70068359375;174,019608560643;1,69677734375E-08;0,69989013671875;5;334;2,71535664796829E-07;-2,78973951935768E-07;100 nA
0,750732421875;174,520096559379;1,7578125E-08;0,749755859375;5;335;2,71535664796829E-07;-2,78973951935768E-07;100 nA
0,80078125;175,020584558116;1,81884765625E-08;0,79986572265625;5;336;2,71535664796829E-07;-2,78973951935768E-07;100 nA
0,850830078125;175,521072556852;1,94091796875E-08;0,849609375;5;337;2,71535664796829E-07;-2,78973951935768E-07;100 nA
0,90087890625;176,021560555588;2,1240234375E-08;0,89935302734375;5;338;2,71535664796829E-07;-2,78973951935768E-07;100 nA
0,950927734375;176,522048554325;2,3834228515625E-08;0,94970703125;5;339;2,71535664796829E-07;-2,78973951935768E-07;100 nA
1,0009765625;177,022536553061;2,734375E-08;0,999755859375;5;340;2,71535664796829E-07;-2,78973951935768E-07;100 nA
0,950927734375;177,523024551797;1,593017578125E-08;0,94970703125;5;341;2,71535664796829E-07;-2,78973951935768E-07;100 nA
0,90087890625;178,023512550534;1,0040283203125E-08;0,89996337890625;5;342;2,71535664796829E-07;-2,78973951935768E-07;100 nA
0,850830078125;178,52400054927;5,950927734375E-09;0,849609375;5;343;2,71535664796829E-07;-2,78973951935768E-07;100 nA
0,80078125;179,024488548007;3,5400390625E-09;0,79986572265625;5;344;2,71535664796829E-07;-2,78973951935768E-07;100 nA
0,750732421875;179,524976546743;1,922607421875E-09;0,74993896484375;5;345;2,71535664796829E-07;-2,78973951935768E-07;100 nA
0,70068359375;180,025464545479;1,52587890625E-10;0,699951171875;5;346;2,71535664796829E-07;-2,78973951935768E-07;100 nA
0,650634765625;180,525952544216;-6,7138671875E-10;0,6500244140625;5;347;2,71535664796829E-07;-2,78973951935768E-07;100 nA
0,6005859375;181,026440542952;-1,617431640625E-09;0,600128173828125;5;348;2,71535664796829E-07;-2,78973951935768E-07;100 nA
0,550537109375;181,526928541689;-2,288818359375E-09;0,55010986328125;5;349;2,71535664796829E-07;-2,78973951935768E-07;100 nA
0,50048828125;182,027416540425;-2,899169921875E-09;0,500152587890625;5;350;2,71535664796829E-07;-2,78973951935768E-07;100 nA
0,450439453125;182,527904539161;-4,364013671875E-09;0,450103759765625;5;351;2,71535664796829E-07;-2,78973951935768E-07;100 nA
0,400390625;183,028392537898;-6,561279296875E-09;0,40008544921875;5;352;2,71535664796829E-07;-2,78973951935768E-07;100 nA
0,350341796875;183,528880536634;-8,575439453125E-09;0,35009765625;5;353;2,71535664796829E-07;-2,78973951935768E-07;100 nA
0,30029296875;184,029368535371;-8,453369140625E-09;0,300079345703125;5;354;2,71535664796829E-07;-2,78973951935768E-07;100 nA
0,250244140625;184,529856534107;-7,843017578125E-09;0,250030517578125;5;355;2,71535664796829E-07;-2,78973951935768E-07;100 nA
0,2001953125;185,030344532843;-8,056640625E-09;0,200042724609375;5;356;2,71535664796829E-07;-2,78973951935768E-07;100 nA
0,150146484375;185,53083253158;-8,544921875E-09;0,1500244140625;5;357;2,71535664796829E-07;-2,78973951935768E-07;100 nA
0,10009765625;186,031320530316;-9,246826171875E-09;0,100067138671875;5;358;2,71535664796829E-07;-2,78973951935768E-07;100 nA
0,050048828125;186,531808529052;-1,01318359375E-08;0,04998779296875;5;359;2,71535664796829E-07;-2,78973951935768E-07;100 nA
0;187,032296527789;-1,1383056640625E-08;0,000109863281249997;5;360;2,71535664796829E-07;-2,78973951935768E-07;100 nA
-0,050048828125;187,532784526525;-1,2359619140625E-08;-0,0498046875;5;361;2,71535664796829E-07;-2,78973951935768E-07;100 nA
-0,10009765625;188,033272525262;-1,348876953125E-08;-0,0997314453125;5;362;2,71535664796829E-07;-2,78973951935768E-07;100 nA
-0,150146484375;188,533760523998;-1,4190673828125E-08;-0,14959716796875;5;363;2,71535664796829E-07;-2,78973951935768E-07;100 nA
-0,2001953125;189,034248522734;-1,50146484375E-08;-0,199493408203125;5;364;2,71535664796829E-07;-2,78973951935768E-07;100 nA
-0,250244140625;189,534736521471;-1,5533447265625E-08;-0,249359130859375;5;365;2,71535664796829E-07;-2,78973951935768E-07;100 nA
-0,30029296875;190,035224520207;-1,5716552734375E-08;-0,299224853515625;5;366;2,71535664796829E-07;-2,78973951935768E-07;100 nA
-0,350341796875;190,535712518944;-1,6143798828125E-08;-0,349151611328125;5;367;2,71535664796829E-07;-2,78973951935768E-07;100 nA
-0,400390625;191,03620051768;-1,6754150390625E-08;-0,399017333984375;5;368;2,71535664796829E-07;-2,78973951935768E-07;100 nA
-0,450439453125;191,536688516416;-1,74560546875E-08;-0,448883056640625;5;369;2,71535664796829E-07;-2,78973951935768E-07;100 nA
-0,50048828125;192,037176515153;-1,849365234375E-08;-0,498809814453125;5;370;2,71535664796829E-07;-2,78973951935768E-07;100 nA
-0,550537109375;192,537664513889;-1,9927978515625E-08;-0,5487060546875;5;371;2,71535664796829E-07;-2,78973951935768E-07;100 nA
-0,6005859375;193,038152512626;-1,9378662109375E-08;-0,598541259765625;5;372;2,71535664796829E-07;-2,78973951935768E-07;100 nA
-0,650634765625;193,538640511362;-1,910400390625E-08;-0,6484375;5;373;2,71535664796829E-07;-2,78973951935768E-07;100 nA
-0,70068359375;194,039128510098;-2,0782470703125E-08;-0,698394775390625;5;374;2,71535664796829E-07;-2,78973951935768E-07;100 nA
-0,750732421875;194,539616508835;-2,3651123046875E-08;-0,74847412109375;5;375;2,71535664796829E-07;-2,78973951935768E-07;100 nA
-0,80078125;195,040104507571;-2,691650390625E-08;-0,79833984375;5;376;2,71535664796829E-07;-2,78973951935768E-07;100 nA
-0,850830078125;195,540592506307;-2,923583984375E-08;-0,848388671875;5;377;2,71535664796829E-07;-2,78973951935768E-07;100 nA
-0,90087890625;196,041080505044;-3,057861328125E-08;-0,8984375;5;378;2,71535664796829E-07;-2,78973951935768E-07;100 nA
-0,950927734375;196,54156850378;-3,228759765625E-08;-0,94879150390625;5;379;2,71535664796829E-07;-2,78973951935768E-07;100 nA
-1,0009765625;197,042056502517;-3,40576171875E-08;-0,99884033203125;5;380;2,71535664796829E-07;-2,78973951935768E-07;100 nA
-0,950927734375;197,542544501253;-2,2857666015625E-08;-0,94879150390625;5;381;2,71535664796829E-07;-2,78973951935768E-07;100 nA
-0,90087890625;198,043032499989;-1,5106201171875E-08;-0,8984375;5;382;2,71535664796829E-07;-2,78973951935768E-07;100 nA
-0,850830078125;198,543520498726;-9,70458984375E-09;-0,848388671875;5;383;2,71535664796829E-07;-2,78973951935768E-07;100 nA
-0,80078125;199,044008497462;-5,523681640625E-09;-0,7989501953125;5;384;2,71535664796829E-07;-2,78973951935768E-07;100 nA
-0,750732421875;199,544496496199;-2,25830078125E-09;-0,748626708984375;5;385;2,71535664796829E-07;-2,78973951935768E-07;100 nA
-0,70068359375;200,044984494935;-2,44140625E-10;-0,698638916015625;5;386;2,71535664796829E-07;-2,78973951935768E-07;100 nA
-0,650634765625;200,545472493671;2,197265625E-09;-0,648590087890625;5;387;2,71535664796829E-07;-2,78973951935768E-07;100 nA
-0,6005859375;201,045960492408;4,82177734375E-09;-0,598724365234375;5;388;2,71535664796829E-07;-2,78973951935768E-07;100 nA
-0,550537109375;201,546448491144;7,50732421875E-09;-0,548797607421875;5;389;2,71535664796829E-07;-2,78973951935768E-07;100 nA
-0,50048828125;202,046936489881;1,01318359375E-08;-0,498992919921875;5;390;2,71535664796829E-07;-2,78973951935768E-07;100 nA
-0,450439453125;202,547424488617;1,1383056640625E-08;-0,4490966796875;5;391;2,71535664796829E-07;-2,78973951935768E-07;100 nA
-0,400390625;203,047912487353;1,0894775390625E-08;-0,399139404296875;5;392;2,71535664796829E-07;-2,78973951935768E-07;100 nA
-0,350341796875;203,54840048609;9,82666015625E-09;-0,349365234375;5;393;2,71535664796829E-07;-2,78973951935768E-07;100 nA
-0,30029296875;204,048888484826;1,0009765625E-08;-0,299346923828125;5;394;2,71535664796829E-07;-2,78973951935768E-07;100 nA
-0,250244140625;204,549376483562;1,129150390625E-08;-0,2493896484375;5;395;2,71535664796829E-07;-2,78973951935768E-07;100 nA
-0,2001953125;205,049864482299;1,23291015625E-08;-0,199462890625;5;396;2,71535664796829E-07;-2,78973951935768E-07;100 nA
-0,150146484375;205,550352481035;1,3214111328125E-08;-0,14959716796875;5;397;2,71535664796829E-07;-2,78973951935768E-07;100 nA
-0,10009765625;206,050840479772;1,42822265625E-08;-0,09967041015625;5;398;2,71535664796829E-07;-2,78973951935768E-07;100 nA
-0,050048828125;206,551328478508;1,507568359375E-08;-0,0498046875;5;399;2,71535664796829E-07;-2,78973951935768E-07;100 nA
0;207,051816477244;1,5594482421875E-08;0,0001220703125;5;400;2,71535664796829E-07;-2,78973951935768E-07;100 nA
0,050048828125;207,552304475981;1,6265869140625E-08;0,050079345703125;6;401;2,73658707737923E-07;-2,78760120272636E-07;100 nA
0,10009765625;208,052792474717;1,6845703125E-08;0,100128173828125;6;402;2,73658707737923E-07;-2,78760120272636E-07;100 nA
0,150146484375;208,553280473454;1,7303466796875E-08;0,15008544921875;6;403;2,73658707737923E-07;-2,78760120272636E-07;100 nA
0,2001953125;209,05376847219;1,7120361328125E-08;0,200042724609375;6;404;2,73658707737923E-07;-2,78760120272636E-07;100 nA
0,250244140625;209,554256470926;1,67236328125E-08;0,2501220703125;6;405;2,73658707737923E-07;-2,78760120272636E-07;100 nA
0,30029296875;210,054744469663;1,6448974609375E-08;0,300140380859375;6;406;2,73658707737923E-07;-2,78760120272636E-07;100 nA
0,350341796875;210,555232468399;1,72119140625E-08;0,350189208984375;6;407;2,73658707737923E-07;-2,78760120272636E-07;100 nA
0,400390625;211,055720467136;1,6571044921875E-08;0,400115966796875;6;408;2,73658707737923E-07;-2,78760120272636E-07;100 nA
0,450439453125;211,556208465872;1,580810546875E-08;0,45013427734375;6;409;2,73658707737923E-07;-2,78760120272636E-07;100 nA
0,50048828125;212,056696464608;1,611328125E-08;0,5001220703125;6;410;2,73658707737923E-07;-2,78760120272636E-07;100 nA
0,550537109375;212,557184463345;1,59912109375E-08;0,550140380859375;6;411;2,73658707737923E-07;-2,78760120272636E-07;100 nA
0,6005859375;213,057672462081;1,641845703125E-08;0,60009765625;6;412;2,73658707737923E-07;-2,78760120272636E-07;100 nA
0,650634765625;213,558160460817;1,641845703125E-08;0,650054931640625;6;413;2,73658707737923E-07;-2,78760120272636E-07;100 nA
0,70068359375;214,058648459554;1,6754150390625E-08;0,69989013671875;6;414;2,73658707737923E-07;-2,78760120272636E-07;100 nA
0,750732421875;214,55913645829;1,7242431640625E-08;0,749786376953125;6;415;2,73658707737923E-07;-2,78760120272636E-07;100 nA
0,80078125;215,059624457027;1,806640625E-08;0,8001708984375;6;416;2,73658707737923E-07;-2,78760120272636E-07;100 nA
0,850830078125;215,560112455763;1,9287109375E-08;0,84991455078125;6;417;2,73658707737923E-07;-2,78760120272636E-07;100 nA
0,90087890625;216,060600454499;2,1087646484375E-08;0,899658203125;6;418;2,73658707737923E-07;-2,78760120272636E-07;100 nA
0,950927734375;216,561088453236;2,3773193359375E-08;0,94940185546875;6;419;2,73658707737923E-07;-2,78760120272636E-07;100 nA
1,0009765625;217,061576451972;2,7252197265625E-08;0,9991455078125;6;420;2,73658707737923E-07;-2,78760120272636E-07;100 nA
0,950927734375;217,562064450709;1,5716552734375E-08;0,95001220703125;6;421;2,73658707737923E-07;-2,78760120272636E-07;100 nA
0,90087890625;218,062552449445;9,735107421875E-09;0,89996337890625;6;422;2,73658707737923E-07;-2,78760120272636E-07;100 nA
0,850830078125;218,563040448181;5,645751953125E-09;0,84930419921875;6;423;2,73658707737923E-07;-2,78760120272636E-07;100 nA
0,80078125;219,063528446918;2,838134765625E-09;0,79986572265625;6;424;2,73658707737923E-07;-2,78760120272636E-07;100 nA
0,750732421875;219,564016445654;1,190185546875E-09;0,74981689453125;6;425;2,73658707737923E-07;-2,78760120272636E-07;100 nA
0,70068359375;220,064504444391;-1,52587890625E-10;0,69989013671875;6;426;2,73658707737923E-07;-2,78760120272636E-07;100 nA
0,650634765625;220,564992443127;-1,220703125E-09;0,649932861328125;6;427;2,73658707737923E-07;-2,78760120272636E-07;100 nA
0,6005859375;221,065480441863;-2,044677734375E-09;0,600006103515625;6;428;2,73658707737923E-07;-2,78760120272636E-07;100 nA
0,550537109375;221,5659684406;-2,44140625E-09;0,54998779296875;6;429;2,73658707737923E-07;-2,78760120272636E-07;100 nA
0,50048828125;222,066456439336;-3,204345703125E-09;0,500091552734375;6;430;2,73658707737923E-07;-2,78760120272636E-07;100 nA
0,450439453125;222,566944438072;-4,425048828125E-09;0,4500732421875;6;431;2,73658707737923E-07;-2,78760120272636E-07;100 nA
0,400390625;223,067432436809;-6,317138671875E-09;0,40008544921875;6;432;2,73658707737923E-07;-2,78760120272636E-07;100 nA
0,350341796875;223,567920435545;-8,4228515625E-09;0,350128173828125;6;433;2,73658707737923E-07;-2,78760120272636E-07;100 nA
0,30029296875;224,068408434282;-8,331298828125E-09;0,300079345703125;6;434;2,73658707737923E-07;-2,78760120272636E-07;100 nA
0,250244140625;224,568896433018;-7,6904296875E-09;0,250091552734375;6;435;2,73658707737923E-07;-2,78760120272636E-07;100 nA
0,2001953125;225,069384431754;-7,720947265625E-09;0,2000732421875;6;436;2,73658707737923E-07;-2,78760120272636E-07;100 nA
0,150146484375;225,569872430491;-8,270263671875E-09;0,15008544921875;6;437;2,73658707737923E-07;-2,78760120272636E-07;100 nA
0,10009765625;226,070360429227;-9,1552734375E-09;0,10009765625;6;438;2,73658707737923E-07;-2,78760120272636E-07;100 nA
0,050048828125;226,570848427964;-9,857177734375E-09;0,05023193359375;6;439;2,73658707737923E-07;-2,78760120272636E-07;100 nA
0;227,0713364267;-1,092529296875E-08;0,0001220703125;6;440;2,73658707737923E-07;-2,78760120272636E-07;100 nA
-0,050048828125;227,571824425436;-1,1962890625E-08;-0,0497161865234375;6;441;2,73658707737923E-07;-2,78760120272636E-07;100 nA
-0,10009765625;228,072312424173;-1,28173828125E-08;-0,099609375;6;442;2,73658707737923E-07;-2,78760120272636E-07;100 nA
-0,150146484375;228,572800422909;-1,35498046875E-08;-0,149444580078125;6;443;2,73658707737923E-07;-2,78760120272636E-07;100 nA
-0,2001953125;229,073288421646;-1,45263671875E-08;-0,199432373046875;6;444;2,73658707737923E-07;-2,78760120272636E-07;100 nA
-0,250244140625;229,573776420382;-1,513671875E-08;-0,249298095703125;6;445;2,73658707737923E-07;-2,78760120272636E-07;100 nA
-0,30029296875;230,074264419118;-1,55029296875E-08;-0,29925537109375;6;446;2,73658707737923E-07;-2,78760120272636E-07;100 nA
-0,350341796875;230,574752417855;-1,605224609375E-08;-0,34918212890625;6;447;2,73658707737923E-07;-2,78760120272636E-07;100 nA
-0,400390625;231,075240416591;-1,6876220703125E-08;-0,399078369140625;6;448;2,73658707737923E-07;-2,78760120272636E-07;100 nA
-0,450439453125;231,575728415327;-1,7608642578125E-08;-0,44891357421875;6;449;2,73658707737923E-07;-2,78760120272636E-07;100 nA
-0,50048828125;232,076216414064;-1,89208984375E-08;-0,498748779296875;6;450;2,73658707737923E-07;-2,78760120272636E-07;100 nA
-0,550537109375;232,5767044128;-2,001953125E-08;-0,5487060546875;6;451;2,73658707737923E-07;-2,78760120272636E-07;100 nA
-0,6005859375;233,077192411537;-1,9500732421875E-08;-0,598602294921875;6;452;2,73658707737923E-07;-2,78760120272636E-07;100 nA
-0,650634765625;233,577680410273;-1,947021484375E-08;-0,64862060546875;6;453;2,73658707737923E-07;-2,78760120272636E-07;100 nA
-0,70068359375;234,078168409009;-2,1270751953125E-08;-0,69854736328125;6;454;2,73658707737923E-07;-2,78760120272636E-07;100 nA
-0,750732421875;234,578656407746;-2,4200439453125E-08;-0,748565673828125;6;455;2,73658707737923E-07;-2,78760120272636E-07;100 nA
-0,80078125;235,079144406482;-2,716064453125E-08;-0,7989501953125;6;456;2,73658707737923E-07;-2,78760120272636E-07;100 nA
-0,850830078125;235,579632405219;-2,9541015625E-08;-0,84869384765625;6;457;2,73658707737923E-07;-2,78760120272636E-07;100 nA
-0,90087890625;236,080120403955;-3,076171875E-08;-0,8984375;6;458;2,73658707737923E-07;-2,78760120272636E-07;100 nA
-0,950927734375;236,580608402691;-3,2196044921875E-08;-0,9490966796875;6;459;2,73658707737923E-07;-2,78760120272636E-07;100 nA
-1,0009765625;237,081096401428;-3,4088134765625E-08;-0,9991455078125;6;460;2,73658707737923E-07;-2,78760120272636E-07;100 nA
-0,950927734375;237,581584400164;-2,313232421875E-08;-0,948486328125;6;461;2,73658707737923E-07;-2,78760120272636E-07;100 nA
-0,90087890625;238,082072398901;-1,531982421875E-08;-0,89874267578125;6;462;2,73658707737923E-07;-2,78760120272636E-07;100 nA
-0,850830078125;238,582560397637;-9,613037109375E-09;-0,84869384765625;6;463;2,73658707737923E-07;-2,78760120272636E-07;100 nA
-0,80078125;239,083048396373;-5,37109375E-09;-0,79864501953125;6;464;2,73658707737923E-07;-2,78760120272636E-07;100 nA
-0,750732421875;239,58353639511;-2,197265625E-09;-0,74859619140625;6;465;2,73658707737923E-07;-2,78760120272636E-07;100 nA
-0,70068359375;240,084024393846;3,662109375E-10;-0,698577880859375;6;466;2,73658707737923E-07;-2,78760120272636E-07;100 nA
-0,650634765625;240,584512392583;2,86865234375E-09;-0,64862060546875;6;467;2,73658707737923E-07;-2,78760120272636E-07;100 nA
-0,6005859375;241,085000391319;5,096435546875E-09;-0,598663330078125;6;468;2,73658707737923E-07;-2,78760120272636E-07;100 nA
-0,550537109375;241,585488390055;8,026123046875E-09;-0,548736572265625;6;469;2,73658707737923E-07;-2,78760120272636E-07;100 nA
-0,50048828125;242,085976388792;1,0528564453125E-08;-0,498870849609375;6;470;2,73658707737923E-07;-2,78760120272636E-07;100 nA
-0,450439453125;242,586464387528;1,1810302734375E-08;-0,44891357421875;6;471;2,73658707737923E-07;-2,78760120272636E-07;100 nA
-0,400390625;243,086952386264;1,104736328125E-08;-0,399078369140625;6;472;2,73658707737923E-07;-2,78760120272636E-07;100 nA
-0,350341796875;243,587440385001;1,0223388671875E-08;-0,349151611328125;6;473;2,73658707737923E-07;-2,78760120272636E-07;100 nA
-0,30029296875;244,087928383737;1,019287109375E-08;-0,29925537109375;6;474;2,73658707737923E-07;-2,78760120272636E-07;100 nA
-0,250244140625;244,588416382474;1,1322021484375E-08;-0,24932861328125;6;475;2,73658707737923E-07;-2,78760120272636E-07;100 nA
-0,2001953125;245,08890438121;1,2451171875E-08;-0,199493408203125;6;476;2,73658707737923E-07;-2,78760120272636E-07;100 nA
-0,150146484375;245,589392379946;1,3458251953125E-08;-0,1495361328125;6;477;2,73658707737923E-07;-2,78760120272636E-07;100 nA
-0,10009765625;246,089880378683;1,42822265625E-08;-0,099578857421875;6;478;2,73658707737923E-07;-2,78760120272636E-07;100 nA
-0,050048828125;246,590368377419;1,531982421875E-08;-0,0497344970703125;6;479;2,73658707737923E-07;-2,78760120272636E-07;100 nA
0;247,090856376156;1,5960693359375E-08;0,000131225585937506;6;480;2,73658707737923E-07;-2,78760120272636E-07;100 nA
0,050048828125;247,591344374892;1,6693115234375E-08;0,05010986328125;7;481;2,71978601813316E-07;-2,7737021446228E-07;100 nA
0,10009765625;248,091832373628;1,72119140625E-08;0,10015869140625;7;482;2,71978601813316E-07;-2,7737021446228E-07;100 nA
0,150146484375;248,592320372365;1,7364501953125E-08;0,150054931640625;7;483;2,71978601813316E-07;-2,7737021446228E-07;100 nA
0,2001953125;249,092808371101;1,7425537109375E-08;0,200042724609375;7;484;2,71978601813316E-07;-2,7737021446228E-07;100 nA
0,250244140625;249,593296369838;1,7425537109375E-08;0,25006103515625;7;485;2,71978601813316E-07;-2,7737021446228E-07;100 nA
0,30029296875;250,093784368574;1,55029296875E-08;0,300079345703125;7;486;2,71978601813316E-07;-2,7737021446228E-07;100 nA
0,350341796875;250,59427236731;1,6693115234375E-08;0,350067138671875;7;487;2,71978601813316E-07;-2,7737021446228E-07;100 nA
0,400390625;251,094760366047;1,50146484375E-08;0,40008544921875;7;488;2,71978601813316E-07;-2,7737021446228E-07;100 nA
0,450439453125;251,595248364783;1,593017578125E-08;0,4500732421875;7;489;2,71978601813316E-07;-2,7737021446228E-07;100 nA
0,50048828125;252,095736363519;1,5350341796875E-08;0,500030517578125;7;490;2,71978601813316E-07;-2,7737021446228E-07;100 nA
0,550537109375;252,596224362256;1,6082763671875E-08;0,550048828125;7;491;2,71978601813316E-07;-2,7737021446228E-07;100 nA
0,6005859375;253,096712360992;1,5838623046875E-08;0,600006103515625;7;492;2,71978601813316E-07;-2,7737021446228E-07;100 nA
0,650634765625;253,597200359729;1,6387939453125E-08;0,64996337890625;7;493;2,71978601813316E-07;-2,7737021446228E-07;100 nA
0,70068359375;254,097688358465;1,6571044921875E-08;0,69989013671875;7;494;2,71978601813316E-07;-2,7737021446228E-07;100 nA
0,750732421875;254,598176357201;1,708984375E-08;0,749725341796875;7;495;2,71978601813316E-07;-2,7737021446228E-07;100 nA
0,80078125;255,098664355938;1,77001953125E-08;0,79986572265625;7;496;2,71978601813316E-07;-2,7737021446228E-07;100 nA
0,850830078125;255,599152354674;1,885986328125E-08;0,8502197265625;7;497;2,71978601813316E-07;-2,7737021446228E-07;100 nA
0,90087890625;256,099640353411;2,081298828125E-08;0,899658203125;7;498;2,71978601813316E-07;-2,7737021446228E-07;100 nA
0,950927734375;256,600128352147;2,374267578125E-08;0,94970703125;7;499;2,71978601813316E-07;-2,7737021446228E-07;100 nA
1,0009765625;257,100616350883;2,77099609375E-08;0,99945068359375;7;500;2,71978601813316E-07;-2,7737021446228E-07;100 nA
0,950927734375;257,60110434962;1,5655517578125E-08;0,94970703125;7;501;2,71978601813316E-07;-2,7737021446228E-07;100 nA
0,90087890625;258,101592348356;9,368896484375E-09;0,89996337890625;7;502;2,71978601813316E-07;-2,7737021446228E-07;100 nA
0,850830078125;258,602080347093;6,40869140625E-09;0,84991455078125;7;503;2,71978601813316E-07;-2,7737021446228E-07;100 nA
0,80078125;259,102568345829;3,387451171875E-09;0,8001708984375;7;504;2,71978601813316E-07;-2,7737021446228E-07;100 nA
0,750732421875;259,603056344565;1,068115234375E-09;0,749847412109375;7;505;2,71978601813316E-07;-2,7737021446228E-07;100 nA
0,70068359375;260,103544343302;-3,0517578125E-11;0,69989013671875;7;506;2,71978601813316E-07;-2,7737021446228E-07;100 nA
0,650634765625;260,604032342038;-1,0986328125E-09;0,650054931640625;7;507;2,71978601813316E-07;-2,7737021446228E-07;100 nA
0,6005859375;261,104520340774;-1,64794921875E-09;0,600128173828125;7;508;2,71978601813316E-07;-2,7737021446228E-07;100 nA
0,550537109375;261,605008339511;-2,227783203125E-09;0,550140380859375;7;509;2,71978601813316E-07;-2,7737021446228E-07;100 nA
0,50048828125;262,105496338247;-2,960205078125E-09;0,5001220703125;7;510;2,71978601813316E-07;-2,7737021446228E-07;100 nA
0,450439453125;262,605984336984;-3,96728515625E-09;0,450103759765625;7;511;2,71978601813316E-07;-2,7737021446228E-07;100 nA
0,400390625;263,10647233572;-6,256103515625E-09;0,400146484375;7;512;2,71978601813316E-07;-2,7737021446228E-07;100 nA
0,350341796875;263,606960334456;-8,30078125E-09;0,350128173828125;7;513;2,71978601813316E-07;-2,7737021446228E-07;100 nA
0,30029296875;264,107448333193;-8,23974609375E-09;0,300140380859375;7;514;2,71978601813316E-07;-2,7737021446228E-07;100 nA
0,250244140625;264,607936331929;-7,62939453125E-09;0,2501220703125;7;515;2,71978601813316E-07;-2,7737021446228E-07;100 nA
0,2001953125;265,108424330666;-7,62939453125E-09;0,2000732421875;7;516;2,71978601813316E-07;-2,7737021446228E-07;100 nA
0,150146484375;265,608912329402;-8,148193359375E-09;0,150115966796875;7;517;2,71978601813316E-07;-2,7737021446228E-07;100 nA
0,10009765625;266,109400328138;-8,514404296875E-09;0,100189208984375;7;518;2,71978601813316E-07;-2,7737021446228E-07;100 nA
0,050048828125;266,609888326875;-9,674072265625E-09;0,050201416015625;7;519;2,71978601813316E-07;-2,7737021446228E-07;100 nA
0;267,110376325611;-1,0650634765625E-08;0,000140380859374997;7;520;2,71978601813316E-07;-2,7737021446228E-07;100 nA
-0,050048828125;267,610864324348;-1,177978515625E-08;-0,049737548828125;7;521;2,71978601813316E-07;-2,7737021446228E-07;100 nA
-0,10009765625;268,111352323084;-1,2786865234375E-08;-0,099609375;7;522;2,71978601813316E-07;-2,7737021446228E-07;100 nA
-0,150146484375;268,61184032182;-1,40380859375E-08;-0,1495361328125;7;523;2,71978601813316E-07;-2,7737021446228E-07;100 nA
-0,2001953125;269,112328320557;-1,4678955078125E-08;-0,199462890625;7;524;2,71978601813316E-07;-2,7737021446228E-07;100 nA
-0,250244140625;269,612816319293;-1,513671875E-08;-0,24932861328125;7;525;2,71978601813316E-07;-2,7737021446228E-07;100 nA
-0,30029296875;270,113304318029;-1,580810546875E-08;-0,299224853515625;7;526;2,71978601813316E-07;-2,7737021446228E-07;100 nA
-0,350341796875;270,613792316766;-1,6387939453125E-08;-0,34912109375;7;527;2,71978601813316E-07;-2,7737021446228E-07;100 nA
-0,400390625;271,114280315502;-1,7120361328125E-08;-0,3990478515625;7;528;2,71978601813316E-07;-2,7737021446228E-07;100 nA
-0,450439453125;271,614768314239;-1,7547607421875E-08;-0,448944091796875;7;529;2,71978601813316E-07;-2,7737021446228E-07;100 nA
-0,50048828125;272,115256312975;-1,89208984375E-08;-0,498870849609375;7;530;2,71978601813316E-07;-2,7737021446228E-07;100 nA
-0,550537109375;272,615744311711;-2,03857421875E-08;-0,548797607421875;7;531;2,71978601813316E-07;-2,7737021446228E-07;100 nA
-0,6005859375;273,116232310448;-1,9622802734375E-08;-0,598663330078125;7;532;2,71978601813316E-07;-2,7737021446228E-07;100 nA
-0,650634765625;273,616720309184;-2,0263671875E-08;-0,6485595703125;7;533;2,71978601813316E-07;-2,7737021446228E-07;100 nA
-0,70068359375;274,117208307921;-2,1087646484375E-08;-0,6986083984375;7;534;2,71978601813316E-07;-2,7737021446228E-07;100 nA
-0,750732421875;274,617696306657;-2,3834228515625E-08;-0,74859619140625;7;535;2,71978601813316E-07;-2,7737021446228E-07;100 nA
-0,80078125;275,118184305393;-2,69775390625E-08;-0,7989501953125;7;536;2,71978601813316E-07;-2,7737021446228E-07;100 nA
-0,850830078125;275,61867230413;-2,9449462890625E-08;-0,84869384765625;7;537;2,71978601813316E-07;-2,7737021446228E-07;100 nA
-0,90087890625;276,119160302866;-3,0792236328125E-08;-0,89874267578125;7;538;2,71978601813316E-07;-2,7737021446228E-07;100 nA
-0,950927734375;276,619648301603;-3,240966796875E-08;-0,948486328125;7;539;2,71978601813316E-07;-2,7737021446228E-07;100 nA
-1,0009765625;277,120136300339;-3,411865234375E-08;-0,99884033203125;7;540;2,71978601813316E-07;-2,7737021446228E-07;100 nA
-0,950927734375;277,620624299075;-2,313232421875E-08;-0,9490966796875;7;541;2,71978601813316E-07;-2,7737021446228E-07;100 nA
-0,90087890625;278,121112297812;-1,4556884765625E-08;-0,89935302734375;7;542;2,71978601813316E-07;-2,7737021446228E-07;100 nA
-0,850830078125;278,621600296548;-9,490966796875E-09;-0,84869384765625;7;543;2,71978601813316E-07;-2,7737021446228E-07;100 nA
-0,80078125;279,122088295284;-5,096435546875E-09;-0,79833984375;7;544;2,71978601813316E-07;-2,7737021446228E-07;100 nA
-0,750732421875;279,622576294021;-1,800537109375E-09;-0,748565673828125;7;545;2,71978601813316E-07;-2,7737021446228E-07;100 nA
-0,70068359375;280,123064292757;6,40869140625E-10;-0,698516845703125;7;546;2,71978601813316E-07;-2,7737021446228E-07;100 nA
-0,650634765625;280,623552291494;2,50244140625E-09;-0,64862060546875;7;547;2,71978601813316E-07;-2,7737021446228E-07;100 nA
-0,6005859375;281,12404029023;5,157470703125E-09;-0,5986328125;7;548;2,71978601813316E-07;-2,7737021446228E-07;100 nA
-0,550537109375;281,624528288966;7,99560546875E-09;-0,54876708984375;7;549;2,71978601813316E-07;-2,7737021446228E-07;100 nA
-0,50048828125;282,125016287703;1,0467529296875E-08;-0,498870849609375;7;550;2,71978601813316E-07;-2,7737021446228E-07;100 nA
-0,450439453125;282,625504286439;1,177978515625E-08;-0,44891357421875;7;551;2,71978601813316E-07;-2,7737021446228E-07;100 nA
-0,400390625;283,125992285176;1,116943359375E-08;-0,3990478515625;7;552;2,71978601813316E-07;-2,7737021446228E-07;100 nA
-0,350341796875;283,626480283912;1,0345458984375E-08;-0,34918212890625;7;553;2,71978601813316E-07;-2,7737021446228E-07;100 nA
-0,30029296875;284,126968282648;1,0040283203125E-08;-0,2991943359375;7;554;2,71978601813316E-07;-2,7737021446228E-07;100 nA
-0,250244140625;284,627456281385;1,1260986328125E-08;-0,24932861328125;7;555;2,71978601813316E-07;-2,7737021446228E-07;100 nA
-0,2001953125;285,127944280121;1,2298583984375E-08;-0,199371337890625;7;556;2,71978601813316E-07;-2,7737021446228E-07;100 nA
-0,150146484375;285,628432278858;1,3427734375E-08;-0,14959716796875;7;557;2,71978601813316E-07;-2,7737021446228E-07;100 nA
-0,10009765625;286,128920277594;1,4129638671875E-08;-0,09967041015625;7;558;2,71978601813316E-07;-2,7737021446228E-07;100 nA
-0,050048828125;286,62940827633;1,4892578125E-08;-0,049725341796875;7;559;2,71978601813316E-07;-2,7737021446228E-07;100 nA
0;287,129896275067;1,6021728515625E-08;0,000131225585937506;7;560;2,71978601813316E-07;-2,7737021446228E-07;100 nA
0,050048828125;287,630384273803;1,7181396484375E-08;0,05010986328125;8;561;2,74284929037094E-07;-2,76453793048859E-07;100 nA
0,10009765625;288,130872272539;1,751708984375E-08;0,100128173828125;8;562;2,74284929037094E-07;-2,76453793048859E-07;100 nA
0,150146484375;288,631360271276;1,7181396484375E-08;0,150115966796875;8;563;2,74284929037094E-07;-2,76453793048859E-07;100 nA
0,2001953125;289,131848270012;1,7730712890625E-08;0,2000732421875;8;564;2,74284929037094E-07;-2,76453793048859E-07;100 nA
0,250244140625;289,632336268749;1,708984375E-08;0,250091552734375;8;565;2,74284929037094E-07;-2,76453793048859E-07;100 nA
0,30029296875;290,132824267485;1,6448974609375E-08;0,30010986328125;8;566;2,74284929037094E-07;-2,76453793048859E-07;100 nA
0,350341796875;290,633312266221;1,7242431640625E-08;0,350128173828125;8;567;2,74284929037094E-07;-2,76453793048859E-07;100 nA
0,400390625;291,133800264958;1,6448974609375E-08;0,400146484375;8;568;2,74284929037094E-07;-2,76453793048859E-07;100 nA
0,450439453125;291,634288263694;1,593017578125E-08;0,4501953125;8;569;2,74284929037094E-07;-2,76453793048859E-07;100 nA
0,50048828125;292,134776262431;1,6204833984375E-08;0,500152587890625;8;570;2,74284929037094E-07;-2,76453793048859E-07;100 nA
0,550537109375;292,635264261167;1,593017578125E-08;0,550140380859375;8;571;2,74284929037094E-07;-2,76453793048859E-07;100 nA
0,6005859375;293,135752259903;1,6204833984375E-08;0,60009765625;8;572;2,74284929037094E-07;-2,76453793048859E-07;100 nA
0,650634765625;293,63624025864;1,62353515625E-08;0,650054931640625;8;573;2,74284929037094E-07;-2,76453793048859E-07;100 nA
0,70068359375;294,136728257376;1,6754150390625E-08;0,699920654296875;8;574;2,74284929037094E-07;-2,76453793048859E-07;100 nA
0,750732421875;294,637216256113;1,7425537109375E-08;0,74981689453125;8;575;2,74284929037094E-07;-2,76453793048859E-07;100 nA
0,80078125;295,137704254849;1,812744140625E-08;0,799560546875;8;576;2,74284929037094E-07;-2,76453793048859E-07;100 nA
0,850830078125;295,638192253585;1,9287109375E-08;0,849609375;8;577;2,74284929037094E-07;-2,76453793048859E-07;100 nA
0,90087890625;296,138680252322;2,1148681640625E-08;0,899658203125;8;578;2,74284929037094E-07;-2,76453793048859E-07;100 nA
0,950927734375;296,639168251058;2,3651123046875E-08;0,94879150390625;8;579;2,74284929037094E-07;-2,76453793048859E-07;100 nA
1,0009765625;297,139656249794;2,74658203125E-08;0,999755859375;8;580;2,74284929037094E-07;-2,76453793048859E-07;100 nA
0,950927734375;297,640144248531;1,5472412109375E-08;0,95001220703125;8;581;2,74284929037094E-07;-2,76453793048859E-07;100 nA
0,90087890625;298,140632247267;9,796142578125E-09;0,89996337890625;8;582;2,74284929037094E-07;-2,76453793048859E-07;100 nA
0,850830078125;298,641120246004;5,706787109375E-09;0,84991455078125;8;583;2,74284929037094E-07;-2,76453793048859E-07;100 nA
0,80078125;299,14160824474;3,143310546875E-09;0,8001708984375;8;584;2,74284929037094E-07;-2,76453793048859E-07;100 nA
0,750732421875;299,642096243476;1,28173828125E-09;0,749755859375;8;585;2,74284929037094E-07;-2,76453793048859E-07;100 nA
0,70068359375;300,142584242213;-2,74658203125E-10;0,699920654296875;8;586;2,74284929037094E-07;-2,76453793048859E-07;100 nA
0,650634765625;300,643072240949;-1,129150390625E-09;0,649993896484375;8;587;2,74284929037094E-07;-2,76453793048859E-07;100 nA
0,6005859375;301,143560239686;-1,861572265625E-09;0,600067138671875;8;588;2,74284929037094E-07;-2,76453793048859E-07;100 nA
0,550537109375;301,644048238422;-2,655029296875E-09;0,54998779296875;8;589;2,74284929037094E-07;-2,76453793048859E-07;100 nA
0,50048828125;302,144536237158;-3,570556640625E-09;0,500030517578125;8;590;2,74284929037094E-07;-2,76453793048859E-07;100 nA
0,450439453125;302,645024235895;-4,150390625E-09;0,45001220703125;8;591;2,74284929037094E-07;-2,76453793048859E-07;100 nA
0,400390625;303,145512234631;-4,302978515625E-09;0,4000244140625;8;592;2,74284929037094E-07;-2,76453793048859E-07;100 nA
0,350341796875;303,646000233368;-9,185791015625E-09;0,3499755859375;8;593;2,74284929037094E-07;-2,76453793048859E-07;100 nA
0,30029296875;304,146488232104;-9,58251953125E-09;0,300018310546875;8;594;2,74284929037094E-07;-2,76453793048859E-07;100 nA
0,250244140625;304,64697623084;-7,965087890625E-09;0,249969482421875;8;595;2,74284929037094E-07;-2,76453793048859E-07;100 nA
0,2001953125;305,147464229577;-7,99560546875E-09;0,20001220703125;8;596;2,74284929037094E-07;-2,76453793048859E-07;100 nA
0,150146484375;305,647952228313;-8,453369140625E-09;0,149993896484375;8;597;2,74284929037094E-07;-2,76453793048859E-07;100 nA
0,10009765625;306,148440227049;-9,124755859375E-09;0,10003662109375;8;598;2,74284929037094E-07;-2,76453793048859E-07;100 nA
0,050048828125;306,648928225786;-9,979248046875E-09;0,05010986328125;8;599;2,74284929037094E-07;-2,76453793048859E-07;100 nA
0;307,149416224522;-1,123046875E-08;0,000131225585937506;8;600;2,74284929037094E-07;-2,76453793048859E-07;100 nA
-0,050048828125;307,649904223259;-1,2115478515625E-08;-0,049835205078125;8;601;2,74284929037094E-07;-2,76453793048859E-07;100 nA
-0,10009765625;308,150392221995;-1,312255859375E-08;-0,099700927734375;8;602;2,74284929037094E-07;-2,76453793048859E-07;100 nA
-0,150146484375;308,650880220731;-1,3885498046875E-08;-0,1495361328125;8;603;2,74284929037094E-07;-2,76453793048859E-07;100 nA
-0,2001953125;309,151368219468;-1,47705078125E-08;-0,199432373046875;8;604;2,74284929037094E-07;-2,76453793048859E-07;100 nA
-0,250244140625;309,651856218204;-1,519775390625E-08;-0,2493896484375;8;605;2,74284929037094E-07;-2,76453793048859E-07;100 nA
-0,30029296875;310,152344216941;-1,580810546875E-08;-0,299224853515625;8;606;2,74284929037094E-07;-2,76453793048859E-07;100 nA
-0,350341796875;310,652832215677;-1,6357421875E-08;-0,349090576171875;8;607;2,74284929037094E-07;-2,76453793048859E-07;100 nA
-0,400390625;311,153320214413;-1,6937255859375E-08;-0,3990478515625;8;608;2,74284929037094E-07;-2,76453793048859E-07;100 nA
-0,450439453125;311,65380821315;-1,7913818359375E-08;-0,448883056640625;8;609;2,74284929037094E-07;-2,76453793048859E-07;100 nA
-0,50048828125;312,154296211886;-1,9012451171875E-08;-0,498779296875;8;610;2,74284929037094E-07;-2,76453793048859E-07;100 nA
-0,550537109375;312,654784210623;-1,995849609375E-08;-0,5487060546875;8;611;2,74284929037094E-07;-2,76453793048859E-07;100 nA
-0,6005859375;313,155272209359;-1,9256591796875E-08;-0,5986328125;8;612;2,74284929037094E-07;-2,76453793048859E-07;100 nA
-0,650634765625;313,655760208095;-1,9256591796875E-08;-0,6485595703125;8;613;2,74284929037094E-07;-2,76453793048859E-07;100 nA
-0,70068359375;314,156248206832;-2,1209716796875E-08;-0,698516845703125;8;614;2,74284929037094E-07;-2,76453793048859E-07;100 nA
-0,750732421875;314,656736205568;-2,3895263671875E-08;-0,748565673828125;8;615;2,74284929037094E-07;-2,76453793048859E-07;100 nA
-0,80078125;315,157224204305;-2,667236328125E-08;-0,7989501953125;8;616;2,74284929037094E-07;-2,76453793048859E-07;100 nA
-0,850830078125;315,657712203041;-2,8961181640625E-08;-0,8489990234375;8;617;2,74284929037094E-07;-2,76453793048859E-07;100 nA
-0,90087890625;316,158200201777;-3,0181884765625E-08;-0,89874267578125;8;618;2,74284929037094E-07;-2,76453793048859E-07;100 nA
-0,950927734375;316,658688200514;-3,173828125E-08;-0,94879150390625;8;619;2,74284929037094E-07;-2,76453793048859E-07;100 nA
-1,0009765625;317,15917619925;-3,3782958984375E-08;-0,9991455078125;8;620;2,74284929037094E-07;-2,76453793048859E-07;100 nA
-0,950927734375;317,659664197986;-2,23388671875E-08;-0,9490966796875;8;621;2,74284929037094E-07;-2,76453793048859E-07;100 nA
-0,90087890625;318,160152196723;-1,409912109375E-08;-0,8984375;8;622;2,74284929037094E-07;-2,76453793048859E-07;100 nA
-0,850830078125;318,660640195459;-8,6669921875E-09;-0,84869384765625;8;623;2,74284929037094E-07;-2,76453793048859E-07;100 nA
-0,80078125;319,161128194196;-4,486083984375E-09;-0,79864501953125;8;624;2,74284929037094E-07;-2,76453793048859E-07;100 nA
-0,750732421875;319,661616192932;-1,28173828125E-09;-0,74853515625;8;625;2,74284929037094E-07;-2,76453793048859E-07;100 nA
-0,70068359375;320,162104191668;8,85009765625E-10;-0,69854736328125;8;626;2,74284929037094E-07;-2,76453793048859E-07;100 nA
-0,650634765625;320,662592190405;3,35693359375E-09;-0,6485595703125;8;627;2,74284929037094E-07;-2,76453793048859E-07;100 nA
-0,6005859375;321,163080189141;5,462646484375E-09;-0,598602294921875;8;628;2,74284929037094E-07;-2,76453793048859E-07;100 nA
-0,550537109375;321,663568187878;8,270263671875E-09;-0,548675537109375;8;629;2,74284929037094E-07;-2,76453793048859E-07;100 nA
-0,50048828125;322,164056186614;1,0498046875E-08;-0,498809814453125;8;630;2,74284929037094E-07;-2,76453793048859E-07;100 nA
-0,450439453125;322,66454418535;1,1688232421875E-08;-0,448944091796875;8;631;2,74284929037094E-07;-2,76453793048859E-07;100 nA
-0,400390625;323,165032184087;1,1138916015625E-08;-0,3990478515625;8;632;2,74284929037094E-07;-2,76453793048859E-07;100 nA
-0,350341796875;323,665520182823;1,0101318359375E-08;-0,349212646484375;8;633;2,74284929037094E-07;-2,76453793048859E-07;100 nA
-0,30029296875;324,16600818156;9,918212890625E-09;-0,299285888671875;8;634;2,74284929037094E-07;-2,76453793048859E-07;100 nA
-0,250244140625;324,666496180296;1,0894775390625E-08;-0,2493896484375;8;635;2,74284929037094E-07;-2,76453793048859E-07;100 nA
-0,2001953125;325,166984179032;1,2176513671875E-08;-0,199432373046875;8;636;2,74284929037094E-07;-2,76453793048859E-07;100 nA
-0,150146484375;325,667472177769;1,3214111328125E-08;-0,149627685546875;8;637;2,74284929037094E-07;-2,76453793048859E-07;100 nA
-0,10009765625;326,167960176505;1,3702392578125E-08;-0,099761962890625;8;638;2,74284929037094E-07;-2,76453793048859E-07;100 nA
-0,050048828125;326,668448175241;1,4678955078125E-08;-0,04986572265625;8;639;2,74284929037094E-07;-2,76453793048859E-07;100 nA
0;327,168936173978;1,544189453125E-08;0,0001220703125;8;640;2,74284929037094E-07;-2,76453793048859E-07;100 nA
0,050048828125;327,669424172714;1,6143798828125E-08;0,050018310546875;9;641;2,70680338144302E-07;-2,76301056146622E-07;100 nA
0,10009765625;328,169912171451;1,67236328125E-08;0,100006103515625;9;642;2,70680338144302E-07;-2,76301056146622E-07;100 nA
0,150146484375;328,670400170187;1,702880859375E-08;0,150054931640625;9;643;2,70680338144302E-07;-2,76301056146622E-07;100 nA
0,2001953125;329,170888168923;1,7120361328125E-08;0,199981689453125;9;644;2,70680338144302E-07;-2,76301056146622E-07;100 nA
0,250244140625;329,67137616766;1,654052734375E-08;0,25;9;645;2,70680338144302E-07;-2,76301056146622E-07;100 nA
0,30029296875;330,171864166396;1,6326904296875E-08;0,2999267578125;9;646;2,70680338144302E-07;-2,76301056146622E-07;100 nA
0,350341796875;330,672352165133;1,690673828125E-08;0,35003662109375;9;647;2,70680338144302E-07;-2,76301056146622E-07;100 nA
0,400390625;331,172840163869;1,611328125E-08;0,399993896484375;9;648;2,70680338144302E-07;-2,76301056146622E-07;100 nA
0,450439453125;331,673328162605;1,55029296875E-08;0,449981689453125;9;649;2,70680338144302E-07;-2,76301056146622E-07;100 nA
0,50048828125;332,173816161342;1,556396484375E-08;0,4998779296875;9;650;2,70680338144302E-07;-2,76301056146622E-07;100 nA
0,550537109375;332,674304160078;1,5350341796875E-08;0,549957275390625;9;651;2,70680338144302E-07;-2,76301056146622E-07;100 nA
0,6005859375;333,174792158815;1,59912109375E-08;0,60003662109375;9;652;2,70680338144302E-07;-2,76301056146622E-07;100 nA
0,650634765625;333,675280157551;1,5960693359375E-08;0,649932861328125;9;653;2,70680338144302E-07;-2,76301056146622E-07;100 nA
0,70068359375;334,175768156287;1,6387939453125E-08;0,6998291015625;9;654;2,70680338144302E-07;-2,76301056146622E-07;100 nA
0,750732421875;334,676256155024;1,678466796875E-08;0,749755859375;9;655;2,70680338144302E-07;-2,76301056146622E-07;100 nA
0,80078125;335,17674415376;1,7791748046875E-08;0,799560546875;9;656;2,70680338144302E-07;-2,76301056146622E-07;100 nA
0,850830078125;335,677232152496;1,910400390625E-08;0,84991455078125;9;657;2,70680338144302E-07;-2,76301056146622E-07;100 nA
0,90087890625;336,177720151233;2,105712890625E-08;0,89935302734375;9;658;2,70680338144302E-07;-2,76301056146622E-07;100 nA
0,950927734375;336,678208149969;2,38037109375E-08;0,94970703125;9;659;2,70680338144302E-07;-2,76301056146622E-07;100 nA
1,0009765625;337,178696148706;2,7557373046875E-08;0,9991455078125;9;660;2,70680338144302E-07;-2,76301056146622E-07;100 nA
0,950927734375;337,679184147442;1,5869140625E-08;0,9490966796875;9;661;2,70680338144302E-07;-2,76301056146622E-07;100 nA
0,90087890625;338,179672146178;9,918212890625E-09;0,89935302734375;9;662;2,70680338144302E-07;-2,76301056146622E-07;100 nA
0,850830078125;338,680160144915;6,04248046875E-09;0,8502197265625;9;663;2,70680338144302E-07;-2,76301056146622E-07;100 nA
0,80078125;339,180648143651;3,35693359375E-09;0,799560546875;9;664;2,70680338144302E-07;-2,76301056146622E-07;100 nA
0,750732421875;339,681136142388;1,678466796875E-09;0,7498779296875;9;665;2,70680338144302E-07;-2,76301056146622E-07;100 nA
0,70068359375;340,181624141124;9,1552734375E-11;0,699981689453125;9;666;2,70680338144302E-07;-2,76301056146622E-07;100 nA
0,650634765625;340,68211213986;-6,40869140625E-10;0,65008544921875;9;667;2,70680338144302E-07;-2,76301056146622E-07;100 nA
0,6005859375;341,182600138597;-1,678466796875E-09;0,600189208984375;9;668;2,70680338144302E-07;-2,76301056146622E-07;100 nA
0,550537109375;341,683088137333;-2,105712890625E-09;0,550201416015625;9;669;2,70680338144302E-07;-2,76301056146622E-07;100 nA
0,50048828125;342,18357613607;-2,9296875E-09;0,500152587890625;9;670;2,70680338144302E-07;-2,76301056146622E-07;100 nA
0,450439453125;342,684064134806;-3,84521484375E-09;0,450164794921875;9;671;2,70680338144302E-07;-2,76301056146622E-07;100 nA
0,400390625;343,184552133542;-6,072998046875E-09;0,400177001953125;9;672;2,70680338144302E-07;-2,76301056146622E-07;100 nA
0,350341796875;343,685040132279;-8,087158203125E-09;0,3502197265625;9;673;2,70680338144302E-07;-2,76301056146622E-07;100 nA
0,30029296875;344,185528131015;-7,904052734375E-09;0,3001708984375;9;674;2,70680338144302E-07;-2,76301056146622E-07;100 nA
0,250244140625;344,686016129751;-7,26318359375E-09;0,2501220703125;9;675;2,70680338144302E-07;-2,76301056146622E-07;100 nA
0,2001953125;345,186504128488;-7,415771484375E-09;0,20013427734375;9;676;2,70680338144302E-07;-2,76301056146622E-07;100 nA
0,150146484375;345,686992127224;-7,904052734375E-09;0,150115966796875;9;677;2,70680338144302E-07;-2,76301056146622E-07;100 nA
0,10009765625;346,187480125961;-8,85009765625E-09;0,10009765625;9;678;2,70680338144302E-07;-2,76301056146622E-07;100 nA
0,050048828125;346,687968124697;-9,82666015625E-09;0,050079345703125;9;679;2,70680338144302E-07;-2,76301056146622E-07;100 nA
0;347,188456123433;-1,031494140625E-08;0,000143432617187494;9;680;2,70680338144302E-07;-2,76301056146622E-07;100 nA
-0,050048828125;347,68894412217;-1,15966796875E-08;-0,0497161865234375;9;681;2,70680338144302E-07;-2,76301056146622E-07;100 nA
-0,10009765625;348,189432120906;-1,2542724609375E-08;-0,099700927734375;9;682;2,70680338144302E-07;-2,76301056146622E-07;100 nA
-0,150146484375;348,689920119643;-1,4068603515625E-08;-0,1495361328125;9;683;2,70680338144302E-07;-2,76301056146622E-07;100 nA
-0,2001953125;349,190408118379;-1,6082763671875E-08;-0,19940185546875;9;684;2,70680338144302E-07;-2,76301056146622E-07;100 nA
-0,250244140625;349,690896117115;-1,4892578125E-08;-0,24932861328125;9;685;2,70680338144302E-07;-2,76301056146622E-07;100 nA
-0,30029296875;350,191384115852;-1,4801025390625E-08;-0,299224853515625;9;686;2,70680338144302E-07;-2,76301056146622E-07;100 nA
-0,350341796875;350,691872114588;-1,6571044921875E-08;-0,349151611328125;9;687;2,70680338144302E-07;-2,76301056146622E-07;100 nA
-0,400390625;351,192360113325;-1,72119140625E-08;-0,3990478515625;9;688;2,70680338144302E-07;-2,76301056146622E-07;100 nA
-0,450439453125;351,692848112061;-1,8096923828125E-08;-0,44891357421875;9;689;2,70680338144302E-07;-2,76301056146622E-07;100 nA
-0,50048828125;352,193336110797;-1,9317626953125E-08;-0,498809814453125;9;690;2,70680338144302E-07;-2,76301056146622E-07;100 nA
-0,550537109375;352,693824109534;-2,0111083984375E-08;-0,548736572265625;9;691;2,70680338144302E-07;-2,76301056146622E-07;100 nA
-0,6005859375;353,19431210827;-1,947021484375E-08;-0,598663330078125;9;692;2,70680338144302E-07;-2,76301056146622E-07;100 nA
-0,650634765625;353,694800107006;-2,020263671875E-08;-0,6485595703125;9;693;2,70680338144302E-07;-2,76301056146622E-07;100 nA
-0,70068359375;354,195288105743;-2,1759033203125E-08;-0,698577880859375;9;694;2,70680338144302E-07;-2,76301056146622E-07;100 nA
-0,750732421875;354,695776104479;-2,3223876953125E-08;-0,748626708984375;9;695;2,70680338144302E-07;-2,76301056146622E-07;100 nA
-0,80078125;355,196264103216;-2,7191162109375E-08;-0,79833984375;9;696;2,70680338144302E-07;-2,76301056146622E-07;100 nA
-0,850830078125;355,696752101952;-2,96630859375E-08;-0,84869384765625;9;697;2,70680338144302E-07;-2,76301056146622E-07;100 nA
-0,90087890625;356,197240100688;-3,0670166015625E-08;-0,8984375;9;698;2,70680338144302E-07;-2,76301056146622E-07;100 nA
-0,950927734375;356,697728099425;-3,2501220703125E-08;-0,94879150390625;9;699;2,70680338144302E-07;-2,76301056146622E-07;100 nA
-1,0009765625;357,198216098161;-3,4088134765625E-08;-0,99884033203125;9;700;2,70680338144302E-07;-2,76301056146622E-07;100 nA
-0,950927734375;357,698704096898;-2,264404296875E-08;-0,9490966796875;9;701;2,70680338144302E-07;-2,76301056146622E-07;100 nA
-0,90087890625;358,199192095634;-1,434326171875E-08;-0,8990478515625;9;702;2,70680338144302E-07;-2,76301056146622E-07;100 nA
-0,850830078125;358,69968009437;-9,552001953125E-09;-0,848388671875;9;703;2,70680338144302E-07;-2,76301056146622E-07;100 nA
-0,80078125;359,200168093107;-5,06591796875E-09;-0,79803466796875;9;704;2,70680338144302E-07;-2,76301056146622E-07;100 nA
-0,750732421875;359,700656091843;-1,556396484375E-09;-0,748687744140625;9;705;2,70680338144302E-07;-2,76301056146622E-07;100 nA
-0,70068359375;360,20114409058;3,96728515625E-10;-0,69866943359375;9;706;2,70680338144302E-07;-2,76301056146622E-07;100 nA
-0,650634765625;360,701632089316;2,74658203125E-09;-0,648681640625;9;707;2,70680338144302E-07;-2,76301056146622E-07;100 nA
-0,6005859375;361,202120088052;5,126953125E-09;-0,5987548828125;9;708;2,70680338144302E-07;-2,76301056146622E-07;100 nA
-0,550537109375;361,702608086789;7,781982421875E-09;-0,548828125;9;709;2,70680338144302E-07;-2,76301056146622E-07;100 nA
-0,50048828125;362,203096085525;1,0345458984375E-08;-0,498931884765625;9;710;2,70680338144302E-07;-2,76301056146622E-07;100 nA
-0,450439453125;362,703584084261;1,153564453125E-08;-0,449127197265625;9;711;2,70680338144302E-07;-2,76301056146622E-07;100 nA
-0,400390625;363,204072082998;1,080322265625E-08;-0,3990478515625;9;712;2,70680338144302E-07;-2,76301056146622E-07;100 nA
-0,350341796875;363,704560081734;1,019287109375E-08;-0,349212646484375;9;713;2,70680338144302E-07;-2,76301056146622E-07;100 nA
-0,30029296875;364,205048080471;9,8876953125E-09;-0,29925537109375;9;714;2,70680338144302E-07;-2,76301056146622E-07;100 nA
-0,250244140625;364,705536079207;1,104736328125E-08;-0,249359130859375;9;715;2,70680338144302E-07;-2,76301056146622E-07;100 nA
-0,2001953125;365,206024077943;1,2176513671875E-08;-0,199493408203125;9;716;2,70680338144302E-07;-2,76301056146622E-07;100 nA
-0,150146484375;365,70651207668;1,3397216796875E-08;-0,1495361328125;9;717;2,70680338144302E-07;-2,76301056146622E-07;100 nA
-0,10009765625;366,207000075416;1,422119140625E-08;-0,099639892578125;9;718;2,70680338144302E-07;-2,76301056146622E-07;100 nA
-0,050048828125;366,707488074153;1,4862060546875E-08;-0,04986572265625;9;719;2,70680338144302E-07;-2,76301056146622E-07;100 nA
0;367,207976072889;1,5594482421875E-08;0,000134277343750003;9;720;2,70680338144302E-07;-2,76301056146622E-07;100 nA
0,050048828125;367,708464071625;1,6387939453125E-08;0,050079345703125;10;721;2,748042345047E-07;-2,79615446925163E-07;100 nA
0,10009765625;368,208952070362;1,690673828125E-08;0,10003662109375;10;722;2,748042345047E-07;-2,79615446925163E-07;100 nA
0,150146484375;368,709440069098;1,7364501953125E-08;0,1500244140625;10;723;2,748042345047E-07;-2,79615446925163E-07;100 nA
0,2001953125;369,209928067835;1,7120361328125E-08;0,2000732421875;10;724;2,748042345047E-07;-2,79615446925163E-07;100 nA
0,250244140625;369,710416066571;1,6754150390625E-08;0,25006103515625;10;725;2,748042345047E-07;-2,79615446925163E-07;100 nA
0,30029296875;370,210904065307;1,6632080078125E-08;0,30010986328125;10;726;2,748042345047E-07;-2,79615446925163E-07;100 nA
0,350341796875;370,711392064044;1,74560546875E-08;0,350189208984375;10;727;2,748042345047E-07;-2,79615446925163E-07;100 nA
0,400390625;371,21188006278;1,6387939453125E-08;0,400146484375;10;728;2,748042345047E-07;-2,79615446925163E-07;100 nA
0,450439453125;371,712368061516;1,5869140625E-08;0,4500732421875;10;729;2,748042345047E-07;-2,79615446925163E-07;100 nA
0,50048828125;372,212856060253;1,593017578125E-08;0,500152587890625;10;730;2,748042345047E-07;-2,79615446925163E-07;100 nA
0,550537109375;372,713344058989;1,605224609375E-08;0,55010986328125;10;731;2,748042345047E-07;-2,79615446925163E-07;100 nA
0,6005859375;373,213832057726;1,6204833984375E-08;0,600128173828125;10;732;2,748042345047E-07;-2,79615446925163E-07;100 nA
0,650634765625;373,714320056462;1,66015625E-08;0,65008544921875;10;733;2,748042345047E-07;-2,79615446925163E-07;100 nA
0,70068359375;374,214808055198;1,69677734375E-08;0,699951171875;10;734;2,748042345047E-07;-2,79615446925163E-07;100 nA
0,750732421875;374,715296053935;1,7608642578125E-08;0,749908447265625;10;735;2,748042345047E-07;-2,79615446925163E-07;100 nA
0,80078125;375,215784052671;1,8310546875E-08;0,799560546875;10;736;2,748042345047E-07;-2,79615446925163E-07;100 nA
0,850830078125;375,716272051408;1,9439697265625E-08;0,84991455078125;10;737;2,748042345047E-07;-2,79615446925163E-07;100 nA
0,90087890625;376,216760050144;2,1392822265625E-08;0,899658203125;10;738;2,748042345047E-07;-2,79615446925163E-07;100 nA
0,950927734375;376,71724804888;2,4139404296875E-08;0,94940185546875;10;739;2,748042345047E-07;-2,79615446925163E-07;100 nA
1,0009765625;377,217736047617;2,777099609375E-08;0,999755859375;10;740;2,748042345047E-07;-2,79615446925163E-07;100 nA
0,950927734375;377,718224046353;1,580810546875E-08;0,94970703125;10;741;2,748042345047E-07;-2,79615446925163E-07;100 nA
0,90087890625;378,21871204509;1,0101318359375E-08;0,899658203125;10;742;2,748042345047E-07;-2,79615446925163E-07;100 nA
0,850830078125;378,719200043826;5,889892578125E-09;0,8502197265625;10;743;2,748042345047E-07;-2,79615446925163E-07;100 nA
0,80078125;379,219688042562;3,387451171875E-09;0,8001708984375;10;744;2,748042345047E-07;-2,79615446925163E-07;100 nA
0,750732421875;379,720176041299;1,678466796875E-09;0,74981689453125;10;745;2,748042345047E-07;-2,79615446925163E-07;100 nA
0,70068359375;380,220664040035;1,220703125E-10;0,699951171875;10;746;2,748042345047E-07;-2,79615446925163E-07;100 nA
0,650634765625;380,721152038771;-1,0986328125E-09;0,6500244140625;10;747;2,748042345047E-07;-2,79615446925163E-07;100 nA
0,6005859375;381,221640037508;-1,617431640625E-09;0,600067138671875;10;748;2,748042345047E-07;-2,79615446925163E-07;100 nA
0,550537109375;381,722128036244;-2,471923828125E-09;0,5501708984375;10;749;2,748042345047E-07;-2,79615446925163E-07;100 nA
0,50048828125;382,222616034981;-3,021240234375E-09;0,500091552734375;10;750;2,748042345047E-07;-2,79615446925163E-07;100 nA
0,450439453125;382,723104033717;-4,302978515625E-09;0,450103759765625;10;751;2,748042345047E-07;-2,79615446925163E-07;100 nA
0,400390625;383,223592032453;-6,317138671875E-09;0,400054931640625;10;752;2,748042345047E-07;-2,79615446925163E-07;100 nA
0,350341796875;383,72408003119;-8,453369140625E-09;0,350067138671875;10;753;2,748042345047E-07;-2,79615446925163E-07;100 nA
0,30029296875;384,224568029926;-8,4228515625E-09;0,300048828125;10;754;2,748042345047E-07;-2,79615446925163E-07;100 nA
0,250244140625;384,725056028663;-7,75146484375E-09;0,25006103515625;10;755;2,748042345047E-07;-2,79615446925163E-07;100 nA
0,2001953125;385,225544027399;-7,87353515625E-09;0,200042724609375;10;756;2,748042345047E-07;-2,79615446925163E-07;100 nA
0,150146484375;385,726032026135;-8,36181640625E-09;0,1500244140625;10;757;2,748042345047E-07;-2,79615446925163E-07;100 nA
0,10009765625;386,226520024872;-9,09423828125E-09;0,10009765625;10;758;2,748042345047E-07;-2,79615446925163E-07;100 nA
0,050048828125;386,727008023608;-1,0101318359375E-08;0,050079345703125;10;759;2,748042345047E-07;-2,79615446925163E-07;100 nA
0;387,227496022345;-1,1199951171875E-08;0,000125122070312497;10;760;2,748042345047E-07;-2,79615446925163E-07;100 nA
-0,050048828125;387,727984021081;-1,220703125E-08;-0,049835205078125;10;761;2,748042345047E-07;-2,79615446925163E-07;100 nA
-0,10009765625;388,228472019817;-1,324462890625E-08;-0,0997314453125;10;762;2,748042345047E-07;-2,79615446925163E-07;100 nA
-0,150146484375;388,728960018554;-1,422119140625E-08;-0,14959716796875;10;763;2,748042345047E-07;-2,79615446925163E-07;100 nA
-0,2001953125;389,22944801729;-1,4862060546875E-08;-0,199493408203125;10;764;2,748042345047E-07;-2,79615446925163E-07;100 nA
-0,250244140625;389,729936016027;-1,5411376953125E-08;-0,2493896484375;10;765;2,748042345047E-07;-2,79615446925163E-07;100 nA
-0,30029296875;390,230424014763;-1,605224609375E-08;-0,299285888671875;10;766;2,748042345047E-07;-2,79615446925163E-07;100 nA
-0,350341796875;390,730912013499;-1,6754150390625E-08;-0,349151611328125;10;767;2,748042345047E-07;-2,79615446925163E-07;100 nA
-0,400390625;391,231400012236;-1,77001953125E-08;-0,39910888671875;10;768;2,748042345047E-07;-2,79615446925163E-07;100 nA
-0,450439453125;391,731888010972;-1,84326171875E-08;-0,449005126953125;10;769;2,748042345047E-07;-2,79615446925163E-07;100 nA
-0,50048828125;392,232376009708;-1,9561767578125E-08;-0,498870849609375;10;770;2,748042345047E-07;-2,79615446925163E-07;100 nA
-0,550537109375;392,732864008445;-2,0355224609375E-08;-0,548797607421875;10;771;2,748042345047E-07;-2,79615446925163E-07;100 nA
-0,6005859375;393,233352007181;-1,959228515625E-08;-0,59869384765625;10;772;2,748042345047E-07;-2,79615446925163E-07;100 nA
-0,650634765625;393,733840005918;-1,96533203125E-08;-0,648590087890625;10;773;2,748042345047E-07;-2,79615446925163E-07;100 nA
-0,70068359375;394,234328004654;-2,154541015625E-08;-0,698638916015625;10;774;2,748042345047E-07;-2,79615446925163E-07;100 nA
-0,750732421875;394,73481600339;-2,42919921875E-08;-0,74859619140625;10;775;2,748042345047E-07;-2,79615446925163E-07;100 nA
-0,80078125;395,235304002127;-2,7069091796875E-08;-0,7989501953125;10;776;2,748042345047E-07;-2,79615446925163E-07;100 nA
-0,850830078125;395,735792000863;-2,9205322265625E-08;-0,8489990234375;10;777;2,748042345047E-07;-2,79615446925163E-07;100 nA
-0,90087890625;396,2362799996;-3,02734375E-08;-0,89874267578125;10;778;2,748042345047E-07;-2,79615446925163E-07;100 nA
-0,950927734375;396,736767998336;-3,1982421875E-08;-0,948486328125;10;779;2,748042345047E-07;-2,79615446925163E-07;100 nA
-1,0009765625;397,237255997072;-3,3935546875E-08;-0,99884033203125;10;780;2,748042345047E-07;-2,79615446925163E-07;100 nA
-0,950927734375;397,737743995809;-2,264404296875E-08;-0,94879150390625;10;781;2,748042345047E-07;-2,79615446925163E-07;100 nA
-0,90087890625;398,238231994545;-1,4495849609375E-08;-0,8984375;10;782;2,748042345047E-07;-2,79615446925163E-07;100 nA
-0,850830078125;398,738719993282;-9,033203125E-09;-0,84869384765625;10;783;2,748042345047E-07;-2,79615446925163E-07;100 nA
-0,80078125;399,239207992018;-4,7607421875E-09;-0,79833984375;10;784;2,748042345047E-07;-2,79615446925163E-07;100 nA
-0,750732421875;399,739695990754;-1,312255859375E-09;-0,74859619140625;10;785;2,748042345047E-07;-2,79615446925163E-07;100 nA
-0,70068359375;400,240183989491;8,85009765625E-10;-0,698577880859375;10;786;2,748042345047E-07;-2,79615446925163E-07;100 nA
-0,650634765625;400,740671988227;2,86865234375E-09;-0,648590087890625;10;787;2,748042345047E-07;-2,79615446925163E-07;100 nA
-0,6005859375;401,241159986963;5,523681640625E-09;-0,598663330078125;10;788;2,748042345047E-07;-2,79615446925163E-07;100 nA
-0,550537109375;401,7416479857;8,11767578125E-09;-0,548736572265625;10;789;2,748042345047E-07;-2,79615446925163E-07;100 nA
-0,50048828125;402,242135984436;1,0406494140625E-08;-0,498870849609375;10;790;2,748042345047E-07;-2,79615446925163E-07;100 nA
-0,450439453125;402,742623983173;1,15966796875E-08;-0,448974609375;10;791;2,748042345047E-07;-2,79615446925163E-07;100 nA
-0,400390625;403,243111981909;1,08642578125E-08;-0,399017333984375;10;792;2,748042345047E-07;-2,79615446925163E-07;100 nA
-0,350341796875;403,743599980645;1,0009765625E-08;-0,349212646484375;10;793;2,748042345047E-07;-2,79615446925163E-07;100 nA
-0,30029296875;404,244087979382;9,82666015625E-09;-0,299285888671875;10;794;2,748042345047E-07;-2,79615446925163E-07;100 nA
-0,250244140625;404,744575978118;1,080322265625E-08;-0,249420166015625;10;795;2,748042345047E-07;-2,79615446925163E-07;100 nA
-0,2001953125;405,245063976855;1,2115478515625E-08;-0,199554443359375;10;796;2,748042345047E-07;-2,79615446925163E-07;100 nA
-0,150146484375;405,745551975591;1,3214111328125E-08;-0,149627685546875;10;797;2,748042345047E-07;-2,79615446925163E-07;100 nA
-0,10009765625;406,246039974327;1,4312744140625E-08;-0,09979248046875;10;798;2,748042345047E-07;-2,79615446925163E-07;100 nA
-0,050048828125;406,746527973064;1,470947265625E-08;-0,04986572265625;10;799;2,748042345047E-07;-2,79615446925163E-07;100 nA
0;407,2470159718;1,5533447265625E-08;0,000131225585937506;10;800;2,748042345047E-07;-2,79615446925163E-07;100 nA
