Potential applied (V);Time (s);WE(1).Current (A);WE(1).Potential (V);Scan;Index;Q+;Q-;Current range
0,050048828125;7,34637698145218;2,9296875E-09;0,050079345703125;1;1;1,70927867293358E-07;-2,8005838394165E-07;100 nA
0,10009765625;7,84686498018857;3,936767578125E-09;0,10009765625;1;2;1,70927867293358E-07;-2,8005838394165E-07;100 nA
0,150146484375;8,34735297892496;5,2490234375E-09;0,15008544921875;1;3;1,70927867293358E-07;-2,8005838394165E-07;100 nA
0,2001953125;8,84784097766135;5,9814453125E-09;0,200042724609375;1;4;1,70927867293358E-07;-2,8005838394165E-07;100 nA
0,250244140625;9,34832897639774;7,080078125E-09;0,2501220703125;1;5;1,70927867293358E-07;-2,8005838394165E-07;100 nA
0,30029296875;9,84881697513413;7,843017578125E-09;0,30010986328125;1;6;1,70927867293358E-07;-2,8005838394165E-07;100 nA
0,350341796875;10,3493049738705;8,23974609375E-09;0,35015869140625;1;7;1,70927867293358E-07;-2,8005838394165E-07;100 nA
0,400390625;10,8497929726069;9,185791015625E-09;0,400115966796875;1;8;1,70927867293358E-07;-2,8005838394165E-07;100 nA
0,450439453125;11,3502809713433;1,0528564453125E-08;0,450103759765625;1;9;1,70927867293358E-07;-2,8005838394165E-07;100 nA
0,50048828125;11,8507689700797;1,031494140625E-08;0,500152587890625;1;10;1,70927867293358E-07;-2,8005838394165E-07;100 nA
0,550537109375;12,3512569688161;1,0498046875E-08;0,55010986328125;1;11;1,70927867293358E-07;-2,8005838394165E-07;100 nA
0,6005859375;12,8517449675525;1,0711669921875E-08;0,600189208984375;1;12;1,70927867293358E-07;-2,8005838394165E-07;100 nA
0,650634765625;13,3522329662889;1,0986328125E-08;0,650054931640625;1;13;1,70927867293358E-07;-2,8005838394165E-07;100 nA
0,70068359375;13,8527209650252;1,1383056640625E-08;0,699981689453125;1;14;1,70927867293358E-07;-2,8005838394165E-07;100 nA
0,750732421875;14,3532089637616;1,202392578125E-08;0,749908447265625;1;15;1,70927867293358E-07;-2,8005838394165E-07;100 nA
0,80078125;14,853696962498;1,2664794921875E-08;0,799560546875;1;16;1,70927867293358E-07;-2,8005838394165E-07;100 nA
0,850830078125;15,3541849612344;1,275634765625E-08;0,84991455078125;1;17;1,70927867293358E-07;-2,8005838394165E-07;100 nA
0,90087890625;15,8546729599708;1,3153076171875E-08;0,899658203125;1;18;1,70927867293358E-07;-2,8005838394165E-07;100 nA
0,950927734375;16,3551609587072;1,4129638671875E-08;0,94970703125;1;19;1,70927867293358E-07;-2,8005838394165E-07;100 nA
1,0009765625;16,8556489574436;1,556396484375E-08;1,00006103515625;1;20;1,70927867293358E-07;-2,8005838394165E-07;100 nA
0,950927734375;17,35613695618;9,70458984375E-09;0,94940185546875;1;21;1,70927867293358E-07;-2,8005838394165E-07;100 nA
0,90087890625;17,8566249549164;6,317138671875E-09;0,899658203125;1;22;1,70927867293358E-07;-2,8005838394165E-07;100 nA
0,850830078125;18,3571129536527;4,33349609375E-09;0,84991455078125;1;23;1,70927867293358E-07;-2,8005838394165E-07;100 nA
0,80078125;18,8576009523891;2,685546875E-09;0,80047607421875;1;24;1,70927867293358E-07;-2,8005838394165E-07;100 nA
0,750732421875;19,3580889511255;1,434326171875E-09;0,749847412109375;1;25;1,70927867293358E-07;-2,8005838394165E-07;100 nA
0,70068359375;19,8585769498619;6,40869140625E-10;0,69989013671875;1;26;1,70927867293358E-07;-2,8005838394165E-07;100 nA
0,650634765625;20,3590649485983;-6,103515625E-10;0,650054931640625;1;27;1,70927867293358E-07;-2,8005838394165E-07;100 nA
0,6005859375;20,8595529473347;-1,373291015625E-09;0,600067138671875;1;28;1,70927867293358E-07;-2,8005838394165E-07;100 nA
0,550537109375;21,3600409460711;-2,0751953125E-09;0,550048828125;1;29;1,70927867293358E-07;-2,8005838394165E-07;100 nA
0,50048828125;21,8605289448075;-3,448486328125E-09;0,50006103515625;1;30;1,70927867293358E-07;-2,8005838394165E-07;100 nA
0,450439453125;22,3610169435439;-5,7373046875E-09;0,449981689453125;1;31;1,70927867293358E-07;-2,8005838394165E-07;100 nA
0,400390625;22,8615049422802;-6,28662109375E-09;0,399993896484375;1;32;1,70927867293358E-07;-2,8005838394165E-07;100 nA
0,350341796875;23,3619929410166;-5,2490234375E-09;0,35003662109375;1;33;1,70927867293358E-07;-2,8005838394165E-07;100 nA
0,30029296875;23,862480939753;-4,913330078125E-09;0,300018310546875;1;34;1,70927867293358E-07;-2,8005838394165E-07;100 nA
0,250244140625;24,3629689384894;-5,18798828125E-09;0,25;1;35;1,70927867293358E-07;-2,8005838394165E-07;100 nA
0,2001953125;24,8634569372258;-5,615234375E-09;0,20001220703125;1;36;1,70927867293358E-07;-2,8005838394165E-07;100 nA
0,150146484375;25,3639449359622;-6,34765625E-09;0,1500244140625;1;37;1,70927867293358E-07;-2,8005838394165E-07;100 nA
0,10009765625;25,8644329346986;-7,171630859375E-09;0,100128173828125;1;38;1,70927867293358E-07;-2,8005838394165E-07;100 nA
0,050048828125;26,364920933435;-8,331298828125E-09;0,0501708984375;1;39;1,70927867293358E-07;-2,8005838394165E-07;100 nA
0;26,8654089321714;-9,765625E-09;0,000134277343750003;1;40;1,70927867293358E-07;-2,8005838394165E-07;100 nA
-0,050048828125;27,3658969309078;-1,1077880859375E-08;-0,049713134765625;1;41;1,70927867293358E-07;-2,8005838394165E-07;100 nA
-0,10009765625;27,8663849296441;-1,263427734375E-08;-0,09967041015625;1;42;1,70927867293358E-07;-2,8005838394165E-07;100 nA
-0,150146484375;28,3668729283805;-1,385498046875E-08;-0,1495361328125;1;43;1,70927867293358E-07;-2,8005838394165E-07;100 nA
-0,2001953125;28,8673609271169;-1,55029296875E-08;-0,199432373046875;1;44;1,70927867293358E-07;-2,8005838394165E-07;100 nA
-0,250244140625;29,3678489258533;-1,72119140625E-08;-0,249298095703125;1;45;1,70927867293358E-07;-2,8005838394165E-07;100 nA
-0,30029296875;29,8683369245897;-1,898193359375E-08;-0,2991943359375;1;46;1,70927867293358E-07;-2,8005838394165E-07;100 nA
-0,350341796875;30,3688249233261;-2,0904541015625E-08;-0,34912109375;1;47;1,70927867293358E-07;-2,8005838394165E-07;100 nA
-0,400390625;30,8693129220625;-2,2430419921875E-08;-0,399017333984375;1;48;1,70927867293358E-07;-2,8005838394165E-07;100 nA
-0,450439453125;31,3698009207989;-2,392578125E-08;-0,448944091796875;1;49;1,70927867293358E-07;-2,8005838394165E-07;100 nA
-0,50048828125;31,8702889195353;-2,5421142578125E-08;-0,49871826171875;1;50;1,70927867293358E-07;-2,8005838394165E-07;100 nA
-0,550537109375;32,3707769182716;-2,7313232421875E-08;-0,54864501953125;1;51;1,70927867293358E-07;-2,8005838394165E-07;100 nA
-0,6005859375;32,871264917008;-2,9541015625E-08;-0,598602294921875;1;52;1,70927867293358E-07;-2,8005838394165E-07;100 nA
-0,650634765625;33,3717529157444;-3,1707763671875E-08;-0,648468017578125;1;53;1,70927867293358E-07;-2,8005838394165E-07;100 nA
-0,70068359375;33,8722409144808;-2,3162841796875E-08;-0,698455810546875;1;54;1,70927867293358E-07;-2,8005838394165E-07;100 nA
-0,750732421875;34,3727289132172;-1,873779296875E-08;-0,748565673828125;1;55;1,70927867293358E-07;-2,8005838394165E-07;100 nA
-0,80078125;34,8732169119536;-1,9134521484375E-08;-0,79833984375;1;56;1,70927867293358E-07;-2,8005838394165E-07;100 nA
-0,850830078125;35,37370491069;-2,05078125E-08;-0,848388671875;1;57;1,70927867293358E-07;-2,8005838394165E-07;100 nA
-0,90087890625;35,8741929094264;-2,374267578125E-08;-0,89874267578125;1;58;1,70927867293358E-07;-2,8005838394165E-07;100 nA
-0,950927734375;36,3746809081628;-2,8778076171875E-08;-0,948486328125;1;59;1,70927867293358E-07;-2,8005838394165E-07;100 nA
-1,0009765625;36,8751689068991;-3,466796875E-08;-0,9991455078125;1;60;1,70927867293358E-07;-2,8005838394165E-07;100 nA
-0,950927734375;37,3756569056355;-2,069091796875E-08;-0,94879150390625;1;61;1,70927867293358E-07;-2,8005838394165E-07;100 nA
-0,90087890625;37,8761449043719;-1,2847900390625E-08;-0,8984375;1;62;1,70927867293358E-07;-2,8005838394165E-07;100 nA
-0,850830078125;38,3766329031083;-7,720947265625E-09;-0,84869384765625;1;63;1,70927867293358E-07;-2,8005838394165E-07;100 nA
-0,80078125;38,8771209018447;-4,302978515625E-09;-0,79833984375;1;64;1,70927867293358E-07;-2,8005838394165E-07;100 nA
-0,750732421875;39,3776089005811;-2,197265625E-09;-0,748626708984375;1;65;1,70927867293358E-07;-2,8005838394165E-07;100 nA
-0,70068359375;39,8780968993175;-4,57763671875E-10;-0,698638916015625;1;66;1,70927867293358E-07;-2,8005838394165E-07;100 nA
-0,650634765625;40,3785848980539;4,8828125E-10;-0,648590087890625;1;67;1,70927867293358E-07;-2,8005838394165E-07;100 nA
-0,6005859375;40,8790728967903;1,495361328125E-09;-0,598663330078125;1;68;1,70927867293358E-07;-2,8005838394165E-07;100 nA
-0,550537109375;41,3795608955267;1,89208984375E-09;-0,548797607421875;1;69;1,70927867293358E-07;-2,8005838394165E-07;100 nA
-0,50048828125;41,880048894263;2,5634765625E-09;-0,49896240234375;1;70;1,70927867293358E-07;-2,8005838394165E-07;100 nA
-0,450439453125;42,3805368929994;3,72314453125E-09;-0,449066162109375;1;71;1,70927867293358E-07;-2,8005838394165E-07;100 nA
-0,400390625;42,8810248917358;5,279541015625E-09;-0,399200439453125;1;72;1,70927867293358E-07;-2,8005838394165E-07;100 nA
-0,350341796875;43,3815128904722;7,6904296875E-09;-0,349273681640625;1;73;1,70927867293358E-07;-2,8005838394165E-07;100 nA
-0,30029296875;43,8820008892086;9,857177734375E-09;-0,29937744140625;1;74;1,70927867293358E-07;-2,8005838394165E-07;100 nA
-0,250244140625;44,382488887945;1,2481689453125E-08;-0,24951171875;1;75;1,70927867293358E-07;-2,8005838394165E-07;100 nA
-0,2001953125;44,8829768866814;1,40380859375E-08;-0,19952392578125;1;76;1,70927867293358E-07;-2,8005838394165E-07;100 nA
-0,150146484375;45,3834648854178;1,507568359375E-08;-0,14959716796875;1;77;1,70927867293358E-07;-2,8005838394165E-07;100 nA
-0,10009765625;45,8839528841542;1,5472412109375E-08;-0,0997314453125;1;78;1,70927867293358E-07;-2,8005838394165E-07;100 nA
-0,050048828125;46,3844408828905;1,5594482421875E-08;-0,04986572265625;1;79;1,70927867293358E-07;-2,8005838394165E-07;100 nA
0;46,8849288816269;1,5594482421875E-08;0,0001373291015625;1;80;1,70927867293358E-07;-2,8005838394165E-07;100 nA
0,050048828125;47,3854168803633;1,556396484375E-08;0,050048828125;2;81;2,43798643350601E-07;-2,48090550303459E-07;100 nA
0,10009765625;47,8859048790997;1,5350341796875E-08;0,100006103515625;2;82;2,43798643350601E-07;-2,48090550303459E-07;100 nA
0,150146484375;48,3863928778361;1,5228271484375E-08;0,150146484375;2;83;2,43798643350601E-07;-2,48090550303459E-07;100 nA
0,2001953125;48,8868808765725;1,513671875E-08;0,200042724609375;2;84;2,43798643350601E-07;-2,48090550303459E-07;100 nA
0,250244140625;49,3873688753089;1,5380859375E-08;0,25006103515625;2;85;2,43798643350601E-07;-2,48090550303459E-07;100 nA
0,30029296875;49,8878568740453;1,59912109375E-08;0,300140380859375;2;86;2,43798643350601E-07;-2,48090550303459E-07;100 nA
0,350341796875;50,3883448727817;1,544189453125E-08;0,350128173828125;2;87;2,43798643350601E-07;-2,48090550303459E-07;100 nA
0,400390625;50,888832871518;1,52587890625E-08;0,400146484375;2;88;2,43798643350601E-07;-2,48090550303459E-07;100 nA
0,450439453125;51,3893208702544;1,4923095703125E-08;0,450103759765625;2;89;2,43798643350601E-07;-2,48090550303459E-07;100 nA
0,50048828125;51,8898088689908;1,483154296875E-08;0,50018310546875;2;90;2,43798643350601E-07;-2,48090550303459E-07;100 nA
0,550537109375;52,3902968677272;1,458740234375E-08;0,550201416015625;2;91;2,43798643350601E-07;-2,48090550303459E-07;100 nA
0,6005859375;52,8907848664636;1,4892578125E-08;0,600006103515625;2;92;2,43798643350601E-07;-2,48090550303459E-07;100 nA
0,650634765625;53,3912728652;1,5167236328125E-08;0,65008544921875;2;93;2,43798643350601E-07;-2,48090550303459E-07;100 nA
0,70068359375;53,8917608639364;1,531982421875E-08;0,699951171875;2;94;2,43798643350601E-07;-2,48090550303459E-07;100 nA
0,750732421875;54,3922488626728;1,5533447265625E-08;0,7498779296875;2;95;2,43798643350601E-07;-2,48090550303459E-07;100 nA
0,80078125;54,8927368614092;1,5716552734375E-08;0,79986572265625;2;96;2,43798643350601E-07;-2,48090550303459E-07;100 nA
0,850830078125;55,3932248601456;1,6265869140625E-08;0,84991455078125;2;97;2,43798643350601E-07;-2,48090550303459E-07;100 nA
0,90087890625;55,8937128588819;1,739501953125E-08;0,89935302734375;2;98;2,43798643350601E-07;-2,48090550303459E-07;100 nA
0,950927734375;56,3942008576183;1,910400390625E-08;0,94970703125;2;99;2,43798643350601E-07;-2,48090550303459E-07;100 nA
1,0009765625;56,8946888563547;2,1514892578125E-08;0,999755859375;2;100;2,43798643350601E-07;-2,48090550303459E-07;100 nA
0,950927734375;57,3951768550911;1,3427734375E-08;0,95001220703125;2;101;2,43798643350601E-07;-2,48090550303459E-07;100 nA
0,90087890625;57,8956648538275;9,46044921875E-09;0,899658203125;2;102;2,43798643350601E-07;-2,48090550303459E-07;100 nA
0,850830078125;58,3961528525639;6,683349609375E-09;0,849609375;2;103;2,43798643350601E-07;-2,48090550303459E-07;100 nA
0,80078125;58,8966408513003;5,096435546875E-09;0,79986572265625;2;104;2,43798643350601E-07;-2,48090550303459E-07;100 nA
0,750732421875;59,3971288500367;3,41796875E-09;0,749755859375;2;105;2,43798643350601E-07;-2,48090550303459E-07;100 nA
0,70068359375;59,8976168487731;2,197265625E-09;0,699859619140625;2;106;2,43798643350601E-07;-2,48090550303459E-07;100 nA
0,650634765625;60,3981048475094;7,9345703125E-10;0,649993896484375;2;107;2,43798643350601E-07;-2,48090550303459E-07;100 nA
0,6005859375;60,8985928462458;-1,8310546875E-10;0,600067138671875;2;108;2,43798643350601E-07;-2,48090550303459E-07;100 nA
0,550537109375;61,3990808449822;-1,03759765625E-09;0,54998779296875;2;109;2,43798643350601E-07;-2,48090550303459E-07;100 nA
0,50048828125;61,8995688437186;-1,373291015625E-09;0,5;2;110;2,43798643350601E-07;-2,48090550303459E-07;100 nA
0,450439453125;62,400056842455;-2,86865234375E-09;0,45001220703125;2;111;2,43798643350601E-07;-2,48090550303459E-07;100 nA
0,400390625;62,9005448411914;-5,126953125E-09;0,399993896484375;2;112;2,43798643350601E-07;-2,48090550303459E-07;100 nA
0,350341796875;63,4010328399278;-6,134033203125E-09;0,350067138671875;2;113;2,43798643350601E-07;-2,48090550303459E-07;100 nA
0,30029296875;63,9015208386642;-5,0048828125E-09;0,300018310546875;2;114;2,43798643350601E-07;-2,48090550303459E-07;100 nA
0,250244140625;64,4020088374006;-4,57763671875E-09;0,250030517578125;2;115;2,43798643350601E-07;-2,48090550303459E-07;100 nA
0,2001953125;64,9024968361369;-4,94384765625E-09;0,200042724609375;2;116;2,43798643350601E-07;-2,48090550303459E-07;100 nA
0,150146484375;65,4029848348733;-5,4931640625E-09;0,150115966796875;2;117;2,43798643350601E-07;-2,48090550303459E-07;100 nA
0,10009765625;65,9034728336097;-6,28662109375E-09;0,10009765625;2;118;2,43798643350601E-07;-2,48090550303459E-07;100 nA
0,050048828125;66,4039608323461;-7,293701171875E-09;0,050079345703125;2;119;2,43798643350601E-07;-2,48090550303459E-07;100 nA
0;66,9044488310825;-8,544921875E-09;0,000131225585937506;2;120;2,43798643350601E-07;-2,48090550303459E-07;100 nA
-0,050048828125;67,4049368298189;-9,8876953125E-09;-0,0497283935546875;2;121;2,43798643350601E-07;-2,48090550303459E-07;100 nA
-0,10009765625;67,9054248285553;-1,1322021484375E-08;-0,099639892578125;2;122;2,43798643350601E-07;-2,48090550303459E-07;100 nA
-0,150146484375;68,4059128272917;-1,2908935546875E-08;-0,149566650390625;2;123;2,43798643350601E-07;-2,48090550303459E-07;100 nA
-0,2001953125;68,9064008260281;-1,4129638671875E-08;-0,199432373046875;2;124;2,43798643350601E-07;-2,48090550303459E-07;100 nA
-0,250244140625;69,4068888247645;-1,513671875E-08;-0,24932861328125;2;125;2,43798643350601E-07;-2,48090550303459E-07;100 nA
-0,30029296875;69,9073768235008;-1,690673828125E-08;-0,299163818359375;2;126;2,43798643350601E-07;-2,48090550303459E-07;100 nA
-0,350341796875;70,4078648222372;-1,861572265625E-08;-0,349151611328125;2;127;2,43798643350601E-07;-2,48090550303459E-07;100 nA
-0,400390625;70,9083528209736;-2,0172119140625E-08;-0,39898681640625;2;128;2,43798643350601E-07;-2,48090550303459E-07;100 nA
-0,450439453125;71,40884081971;-2,1728515625E-08;-0,448883056640625;2;129;2,43798643350601E-07;-2,48090550303459E-07;100 nA
-0,50048828125;71,9093288184464;-2,3529052734375E-08;-0,49884033203125;2;130;2,43798643350601E-07;-2,48090550303459E-07;100 nA
-0,550537109375;72,4098168171828;-2,5421142578125E-08;-0,548675537109375;2;131;2,43798643350601E-07;-2,48090550303459E-07;100 nA
-0,6005859375;72,9103048159192;-2,79541015625E-08;-0,5986328125;2;132;2,43798643350601E-07;-2,48090550303459E-07;100 nA
-0,650634765625;73,4107928146556;-2,7801513671875E-08;-0,6485595703125;2;133;2,43798643350601E-07;-2,48090550303459E-07;100 nA
-0,70068359375;73,911280813392;-1,8310546875E-08;-0,69854736328125;2;134;2,43798643350601E-07;-2,48090550303459E-07;100 nA
-0,750732421875;74,4117688121283;-1,6876220703125E-08;-0,748504638671875;2;135;2,43798643350601E-07;-2,48090550303459E-07;100 nA
-0,80078125;74,9122568108647;-1,708984375E-08;-0,7989501953125;2;136;2,43798643350601E-07;-2,48090550303459E-07;100 nA
-0,850830078125;75,4127448096011;-1,8157958984375E-08;-0,8489990234375;2;137;2,43798643350601E-07;-2,48090550303459E-07;100 nA
-0,90087890625;75,9132328083375;-2,093505859375E-08;-0,89874267578125;2;138;2,43798643350601E-07;-2,48090550303459E-07;100 nA
-0,950927734375;76,4137208070739;-2,5726318359375E-08;-0,94940185546875;2;139;2,43798643350601E-07;-2,48090550303459E-07;100 nA
-1,0009765625;76,9142088058103;-3,1707763671875E-08;-0,99884033203125;2;140;2,43798643350601E-07;-2,48090550303459E-07;100 nA
-0,950927734375;77,4146968045467;-1,873779296875E-08;-0,94879150390625;2;141;2,43798643350601E-07;-2,48090550303459E-07;100 nA
-0,90087890625;77,9151848032831;-1,1444091796875E-08;-0,89935302734375;2;142;2,43798643350601E-07;-2,48090550303459E-07;100 nA
-0,850830078125;78,4156728020195;-6,89697265625E-09;-0,8489990234375;2;143;2,43798643350601E-07;-2,48090550303459E-07;100 nA
-0,80078125;78,9161608007558;-3,662109375E-09;-0,79864501953125;2;144;2,43798643350601E-07;-2,48090550303459E-07;100 nA
-0,750732421875;79,4166487994922;-1,64794921875E-09;-0,74859619140625;2;145;2,43798643350601E-07;-2,48090550303459E-07;100 nA
-0,70068359375;79,9171367982286;-1,220703125E-10;-0,6986083984375;2;146;2,43798643350601E-07;-2,48090550303459E-07;100 nA
-0,650634765625;80,417624796965;9,1552734375E-10;-0,648529052734375;2;147;2,43798643350601E-07;-2,48090550303459E-07;100 nA
-0,6005859375;80,9181127957014;2,0751953125E-09;-0,598663330078125;2;148;2,43798643350601E-07;-2,48090550303459E-07;100 nA
-0,550537109375;81,4186007944378;2,62451171875E-09;-0,548736572265625;2;149;2,43798643350601E-07;-2,48090550303459E-07;100 nA
-0,50048828125;81,9190887931742;3,23486328125E-09;-0,49884033203125;2;150;2,43798643350601E-07;-2,48090550303459E-07;100 nA
-0,450439453125;82,4195767919106;4,08935546875E-09;-0,448944091796875;2;151;2,43798643350601E-07;-2,48090550303459E-07;100 nA
-0,400390625;82,920064790647;5,706787109375E-09;-0,3990478515625;2;152;2,43798643350601E-07;-2,48090550303459E-07;100 nA
-0,350341796875;83,4205527893834;8,087158203125E-09;-0,349151611328125;2;153;2,43798643350601E-07;-2,48090550303459E-07;100 nA
-0,30029296875;83,9210407881197;1,0498046875E-08;-0,299285888671875;2;154;2,43798643350601E-07;-2,48090550303459E-07;100 nA
-0,250244140625;84,4215287868561;1,287841796875E-08;-0,249359130859375;2;155;2,43798643350601E-07;-2,48090550303459E-07;100 nA
-0,2001953125;84,9220167855925;1,4434814453125E-08;-0,199432373046875;2;156;2,43798643350601E-07;-2,48090550303459E-07;100 nA
-0,150146484375;85,4225047843289;1,519775390625E-08;-0,14959716796875;2;157;2,43798643350601E-07;-2,48090550303459E-07;100 nA
-0,10009765625;85,9229927830653;1,556396484375E-08;-0,09967041015625;2;158;2,43798643350601E-07;-2,48090550303459E-07;100 nA
-0,050048828125;86,4234807818017;1,6143798828125E-08;-0,0497161865234375;2;159;2,43798643350601E-07;-2,48090550303459E-07;100 nA
0;86,9239687805381;1,59912109375E-08;0,0001220703125;2;160;2,43798643350601E-07;-2,48090550303459E-07;100 nA
0,050048828125;87,4244567792745;1,593017578125E-08;0,0501708984375;3;161;2,44409590959549E-07;-2,41370126605034E-07;100 nA
0,10009765625;87,9249447780109;1,544189453125E-08;0,100128173828125;3;162;2,44409590959549E-07;-2,41370126605034E-07;100 nA
0,150146484375;88,4254327767472;1,5289306640625E-08;0,150115966796875;3;163;2,44409590959549E-07;-2,41370126605034E-07;100 nA
0,2001953125;88,9259207754836;1,507568359375E-08;0,2000732421875;3;164;2,44409590959549E-07;-2,41370126605034E-07;100 nA
0,250244140625;89,42640877422;1,5533447265625E-08;0,2501220703125;3;165;2,44409590959549E-07;-2,41370126605034E-07;100 nA
0,30029296875;89,9268967729564;1,611328125E-08;0,300018310546875;3;166;2,44409590959549E-07;-2,41370126605034E-07;100 nA
0,350341796875;90,4273847716928;1,5625E-08;0,35009765625;3;167;2,44409590959549E-07;-2,41370126605034E-07;100 nA
0,400390625;90,9278727704292;1,5350341796875E-08;0,40008544921875;3;168;2,44409590959549E-07;-2,41370126605034E-07;100 nA
0,450439453125;91,4283607691656;1,4923095703125E-08;0,45013427734375;3;169;2,44409590959549E-07;-2,41370126605034E-07;100 nA
0,50048828125;91,928848767902;1,4617919921875E-08;0,50006103515625;3;170;2,44409590959549E-07;-2,41370126605034E-07;100 nA
0,550537109375;92,4293367666384;1,45263671875E-08;0,55010986328125;3;171;2,44409590959549E-07;-2,41370126605034E-07;100 nA
0,6005859375;92,9298247653747;1,4617919921875E-08;0,600006103515625;3;172;2,44409590959549E-07;-2,41370126605034E-07;100 nA
0,650634765625;93,4303127641111;1,4862060546875E-08;0,64996337890625;3;173;2,44409590959549E-07;-2,41370126605034E-07;100 nA
0,70068359375;93,9308007628475;1,5106201171875E-08;0,699859619140625;3;174;2,44409590959549E-07;-2,41370126605034E-07;100 nA
0,750732421875;94,4312887615839;1,5289306640625E-08;0,749725341796875;3;175;2,44409590959549E-07;-2,41370126605034E-07;100 nA
0,80078125;94,9317767603203;1,5655517578125E-08;0,8001708984375;3;176;2,44409590959549E-07;-2,41370126605034E-07;100 nA
0,850830078125;95,4322647590567;1,6021728515625E-08;0,84930419921875;3;177;2,44409590959549E-07;-2,41370126605034E-07;100 nA
0,90087890625;95,9327527577931;1,6937255859375E-08;0,89996337890625;3;178;2,44409590959549E-07;-2,41370126605034E-07;100 nA
0,950927734375;96,4332407565295;1,849365234375E-08;0,94970703125;3;179;2,44409590959549E-07;-2,41370126605034E-07;100 nA
1,0009765625;96,9337287552659;2,1392822265625E-08;0,99945068359375;3;180;2,44409590959549E-07;-2,41370126605034E-07;100 nA
0,950927734375;97,4342167540023;1,324462890625E-08;0,94970703125;3;181;2,44409590959549E-07;-2,41370126605034E-07;100 nA
0,90087890625;97,9347047527386;9,246826171875E-09;0,899658203125;3;182;2,44409590959549E-07;-2,41370126605034E-07;100 nA
0,850830078125;98,435192751475;7,01904296875E-09;0,849609375;3;183;2,44409590959549E-07;-2,41370126605034E-07;100 nA
0,80078125;98,9356807502114;4,8828125E-09;0,79986572265625;3;184;2,44409590959549E-07;-2,41370126605034E-07;100 nA
0,750732421875;99,4361687489478;3,570556640625E-09;0,749786376953125;3;185;2,44409590959549E-07;-2,41370126605034E-07;100 nA
0,70068359375;99,9366567476842;2,3193359375E-09;0,6998291015625;3;186;2,44409590959549E-07;-2,41370126605034E-07;100 nA
0,650634765625;100,437144746421;1,068115234375E-09;0,649993896484375;3;187;2,44409590959549E-07;-2,41370126605034E-07;100 nA
0,6005859375;100,937632745157;3,35693359375E-10;0,600067138671875;3;188;2,44409590959549E-07;-2,41370126605034E-07;100 nA
0,550537109375;101,438120743893;-3,0517578125E-10;0,550079345703125;3;189;2,44409590959549E-07;-2,41370126605034E-07;100 nA
0,50048828125;101,93860874263;-1,03759765625E-09;0,50006103515625;3;190;2,44409590959549E-07;-2,41370126605034E-07;100 nA
0,450439453125;102,439096741366;-2,593994140625E-09;0,450164794921875;3;191;2,44409590959549E-07;-2,41370126605034E-07;100 nA
0,400390625;102,939584740103;-4,82177734375E-09;0,400115966796875;3;192;2,44409590959549E-07;-2,41370126605034E-07;100 nA
0,350341796875;103,440072738839;-5,79833984375E-09;0,350128173828125;3;193;2,44409590959549E-07;-2,41370126605034E-07;100 nA
0,30029296875;103,940560737575;-4,669189453125E-09;0,300140380859375;3;194;2,44409590959549E-07;-2,41370126605034E-07;100 nA
0,250244140625;104,441048736312;-4,33349609375E-09;0,2501220703125;3;195;2,44409590959549E-07;-2,41370126605034E-07;100 nA
0,2001953125;104,941536735048;-4,7607421875E-09;0,20013427734375;3;196;2,44409590959549E-07;-2,41370126605034E-07;100 nA
0,150146484375;105,442024733784;-5,37109375E-09;0,150146484375;3;197;2,44409590959549E-07;-2,41370126605034E-07;100 nA
0,10009765625;105,942512732521;-6,195068359375E-09;0,100128173828125;3;198;2,44409590959549E-07;-2,41370126605034E-07;100 nA
0,050048828125;106,443000731257;-6,9580078125E-09;0,0501708984375;3;199;2,44409590959549E-07;-2,41370126605034E-07;100 nA
0;106,943488729994;-8,23974609375E-09;0,0001220703125;3;200;2,44409590959549E-07;-2,41370126605034E-07;100 nA
-0,050048828125;107,44397672873;-8,544921875E-09;-0,049713134765625;3;201;2,44409590959549E-07;-2,41370126605034E-07;100 nA
-0,10009765625;107,944464727466;-1,104736328125E-08;-0,099639892578125;3;202;2,44409590959549E-07;-2,41370126605034E-07;100 nA
-0,150146484375;108,444952726203;-1,3153076171875E-08;-0,149505615234375;3;203;2,44409590959549E-07;-2,41370126605034E-07;100 nA
-0,2001953125;108,945440724939;-1,324462890625E-08;-0,199432373046875;3;204;2,44409590959549E-07;-2,41370126605034E-07;100 nA
-0,250244140625;109,445928723676;-1,4617919921875E-08;-0,249298095703125;3;205;2,44409590959549E-07;-2,41370126605034E-07;100 nA
-0,30029296875;109,946416722412;-1,7120361328125E-08;-0,29925537109375;3;206;2,44409590959549E-07;-2,41370126605034E-07;100 nA
-0,350341796875;110,446904721148;-1,86767578125E-08;-0,349151611328125;3;207;2,44409590959549E-07;-2,41370126605034E-07;100 nA
-0,400390625;110,947392719885;-1,9989013671875E-08;-0,3990478515625;3;208;2,44409590959549E-07;-2,41370126605034E-07;100 nA
-0,450439453125;111,447880718621;-2,2003173828125E-08;-0,448974609375;3;209;2,44409590959549E-07;-2,41370126605034E-07;100 nA
-0,50048828125;111,948368717358;-2,3712158203125E-08;-0,498809814453125;3;210;2,44409590959549E-07;-2,41370126605034E-07;100 nA
-0,550537109375;112,448856716094;-2,5665283203125E-08;-0,548736572265625;3;211;2,44409590959549E-07;-2,41370126605034E-07;100 nA
-0,6005859375;112,94934471483;-2,8564453125E-08;-0,598602294921875;3;212;2,44409590959549E-07;-2,41370126605034E-07;100 nA
-0,650634765625;113,449832713567;-2,777099609375E-08;-0,648590087890625;3;213;2,44409590959549E-07;-2,41370126605034E-07;100 nA
-0,70068359375;113,950320712303;-1,7120361328125E-08;-0,698577880859375;3;214;2,44409590959549E-07;-2,41370126605034E-07;100 nA
-0,750732421875;114,450808711039;-1,8524169921875E-08;-0,748626708984375;3;215;2,44409590959549E-07;-2,41370126605034E-07;100 nA
-0,80078125;114,951296709776;-1,708984375E-08;-0,79833984375;3;216;2,44409590959549E-07;-2,41370126605034E-07;100 nA
-0,850830078125;115,451784708512;-1,84326171875E-08;-0,84808349609375;3;217;2,44409590959549E-07;-2,41370126605034E-07;100 nA
-0,90087890625;115,952272707249;-1,7425537109375E-08;-0,89874267578125;3;218;2,44409590959549E-07;-2,41370126605034E-07;100 nA
-0,950927734375;116,452760705985;-2,4810791015625E-08;-0,948486328125;3;219;2,44409590959549E-07;-2,41370126605034E-07;100 nA
-1,0009765625;116,953248704721;-3,033447265625E-08;-0,99884033203125;3;220;2,44409590959549E-07;-2,41370126605034E-07;100 nA
-0,950927734375;117,453736703458;-1,776123046875E-08;-0,94879150390625;3;221;2,44409590959549E-07;-2,41370126605034E-07;100 nA
-0,90087890625;117,954224702194;-1,068115234375E-08;-0,8990478515625;3;222;2,44409590959549E-07;-2,41370126605034E-07;100 nA
-0,850830078125;118,454712700931;-6,378173828125E-09;-0,84930419921875;3;223;2,44409590959549E-07;-2,41370126605034E-07;100 nA
-0,80078125;118,955200699667;-3,41796875E-09;-0,79864501953125;3;224;2,44409590959549E-07;-2,41370126605034E-07;100 nA
-0,750732421875;119,455688698403;-1,0986328125E-09;-0,748565673828125;3;225;2,44409590959549E-07;-2,41370126605034E-07;100 nA
-0,70068359375;119,95617669714;0;-0,6986083984375;3;226;2,44409590959549E-07;-2,41370126605034E-07;100 nA
-0,650634765625;120,456664695876;1,15966796875E-09;-0,6485595703125;3;227;2,44409590959549E-07;-2,41370126605034E-07;100 nA
-0,6005859375;120,957152694613;1,953125E-09;-0,5986328125;3;228;2,44409590959549E-07;-2,41370126605034E-07;100 nA
-0,550537109375;121,457640693349;2,685546875E-09;-0,5487060546875;3;229;2,44409590959549E-07;-2,41370126605034E-07;100 nA
-0,50048828125;121,958128692085;3,173828125E-09;-0,498809814453125;3;230;2,44409590959549E-07;-2,41370126605034E-07;100 nA
-0,450439453125;122,458616690822;4,425048828125E-09;-0,448944091796875;3;231;2,44409590959549E-07;-2,41370126605034E-07;100 nA
-0,400390625;122,959104689558;5,79833984375E-09;-0,3990478515625;3;232;2,44409590959549E-07;-2,41370126605034E-07;100 nA
-0,350341796875;123,459592688294;8,30078125E-09;-0,349151611328125;3;233;2,44409590959549E-07;-2,41370126605034E-07;100 nA
-0,30029296875;123,960080687031;1,11083984375E-08;-0,299224853515625;3;234;2,44409590959549E-07;-2,41370126605034E-07;100 nA
-0,250244140625;124,460568685767;1,2908935546875E-08;-0,249298095703125;3;235;2,44409590959549E-07;-2,41370126605034E-07;100 nA
-0,2001953125;124,961056684504;1,4373779296875E-08;-0,199462890625;3;236;2,44409590959549E-07;-2,41370126605034E-07;100 nA
-0,150146484375;125,46154468324;1,5411376953125E-08;-0,149505615234375;3;237;2,44409590959549E-07;-2,41370126605034E-07;100 nA
-0,10009765625;125,962032681976;1,6204833984375E-08;-0,099578857421875;3;238;2,44409590959549E-07;-2,41370126605034E-07;100 nA
-0,050048828125;126,462520680713;1,6082763671875E-08;-0,049774169921875;3;239;2,44409590959549E-07;-2,41370126605034E-07;100 nA
0;126,963008679449;1,6265869140625E-08;0,0001220703125;3;240;2,44409590959549E-07;-2,41370126605034E-07;100 nA
0,050048828125;127,463496678186;1,57470703125E-08;0,050048828125;4;241;2,38880515098572E-07;-2,4246983230114E-07;100 nA
0,10009765625;127,963984676922;1,373291015625E-08;0,100067138671875;4;242;2,38880515098572E-07;-2,4246983230114E-07;100 nA
0,150146484375;128,464472675658;1,4892578125E-08;0,1500244140625;4;243;2,38880515098572E-07;-2,4246983230114E-07;100 nA
0,2001953125;128,964960674395;1,50146484375E-08;0,200042724609375;4;244;2,38880515098572E-07;-2,4246983230114E-07;100 nA
0,250244140625;129,465448673131;1,5045166015625E-08;0,250030517578125;4;245;2,38880515098572E-07;-2,4246983230114E-07;100 nA
0,30029296875;129,965936671868;1,5869140625E-08;0,299957275390625;4;246;2,38880515098572E-07;-2,4246983230114E-07;100 nA
0,350341796875;130,466424670604;1,62353515625E-08;0,35003662109375;4;247;2,38880515098572E-07;-2,4246983230114E-07;100 nA
0,400390625;130,96691266934;1,1749267578125E-08;0,400054931640625;4;248;2,38880515098572E-07;-2,4246983230114E-07;100 nA
0,450439453125;131,467400668077;1,3702392578125E-08;0,450042724609375;4;249;2,38880515098572E-07;-2,4246983230114E-07;100 nA
0,50048828125;131,967888666813;1,4801025390625E-08;0,500030517578125;4;250;2,38880515098572E-07;-2,4246983230114E-07;100 nA
0,550537109375;132,46837666555;1,46484375E-08;0,549957275390625;4;251;2,38880515098572E-07;-2,4246983230114E-07;100 nA
0,6005859375;132,968864664286;1,3458251953125E-08;0,599945068359375;4;252;2,38880515098572E-07;-2,4246983230114E-07;100 nA
0,650634765625;133,469352663022;1,531982421875E-08;0,649871826171875;4;253;2,38880515098572E-07;-2,4246983230114E-07;100 nA
0,70068359375;133,969840661759;1,2237548828125E-08;0,6998291015625;4;254;2,38880515098572E-07;-2,4246983230114E-07;100 nA
0,750732421875;134,470328660495;1,3824462890625E-08;0,749725341796875;4;255;2,38880515098572E-07;-2,4246983230114E-07;100 nA
0,80078125;134,970816659231;1,446533203125E-08;0,79986572265625;4;256;2,38880515098572E-07;-2,4246983230114E-07;100 nA
0,850830078125;135,471304657968;1,5899658203125E-08;0,84930419921875;4;257;2,38880515098572E-07;-2,4246983230114E-07;100 nA
0,90087890625;135,971792656704;1,715087890625E-08;0,89996337890625;4;258;2,38880515098572E-07;-2,4246983230114E-07;100 nA
0,950927734375;136,472280655441;1,8829345703125E-08;0,94940185546875;4;259;2,38880515098572E-07;-2,4246983230114E-07;100 nA
1,0009765625;136,972768654177;2,16064453125E-08;0,99945068359375;4;260;2,38880515098572E-07;-2,4246983230114E-07;100 nA
0,950927734375;137,473256652913;1,385498046875E-08;0,95001220703125;4;261;2,38880515098572E-07;-2,4246983230114E-07;100 nA
0,90087890625;137,97374465165;1,019287109375E-08;0,899658203125;4;262;2,38880515098572E-07;-2,4246983230114E-07;100 nA
0,850830078125;138,474232650386;6,500244140625E-09;0,849609375;4;263;2,38880515098572E-07;-2,4246983230114E-07;100 nA
0,80078125;138,974720649123;4,7607421875E-09;0,79986572265625;4;264;2,38880515098572E-07;-2,4246983230114E-07;100 nA
0,750732421875;139,475208647859;5,615234375E-09;0,749847412109375;4;265;2,38880515098572E-07;-2,4246983230114E-07;100 nA
0,70068359375;139,975696646595;9,765625E-10;0,699951171875;4;266;2,38880515098572E-07;-2,4246983230114E-07;100 nA
0,650634765625;140,476184645332;-1,220703125E-10;0,65008544921875;4;267;2,38880515098572E-07;-2,4246983230114E-07;100 nA
0,6005859375;140,976672644068;2,349853515625E-09;0,600128173828125;4;268;2,38880515098572E-07;-2,4246983230114E-07;100 nA
0,550537109375;141,477160642805;-1,739501953125E-09;0,550201416015625;4;269;2,38880515098572E-07;-2,4246983230114E-07;100 nA
0,50048828125;141,977648641541;-1,03759765625E-09;0,500152587890625;4;270;2,38880515098572E-07;-2,4246983230114E-07;100 nA
0,450439453125;142,478136640277;-2,532958984375E-09;0,450164794921875;4;271;2,38880515098572E-07;-2,4246983230114E-07;100 nA
0,400390625;142,978624639014;-4,547119140625E-09;0,400146484375;4;272;2,38880515098572E-07;-2,4246983230114E-07;100 nA
0,350341796875;143,47911263775;-5,67626953125E-09;0,35009765625;4;273;2,38880515098572E-07;-2,4246983230114E-07;100 nA
0,30029296875;143,979600636486;-4,45556640625E-09;0,300079345703125;4;274;2,38880515098572E-07;-2,4246983230114E-07;100 nA
0,250244140625;144,480088635223;-4,21142578125E-09;0,250152587890625;4;275;2,38880515098572E-07;-2,4246983230114E-07;100 nA
0,2001953125;144,980576633959;-4,730224609375E-09;0,2000732421875;4;276;2,38880515098572E-07;-2,4246983230114E-07;100 nA
0,150146484375;145,481064632696;-5,43212890625E-09;0,150115966796875;4;277;2,38880515098572E-07;-2,4246983230114E-07;100 nA
0,10009765625;145,981552631432;-6,256103515625E-09;0,100128173828125;4;278;2,38880515098572E-07;-2,4246983230114E-07;100 nA
0,050048828125;146,482040630168;-7,38525390625E-09;0,050140380859375;4;279;2,38880515098572E-07;-2,4246983230114E-07;100 nA
0;146,982528628905;-8,85009765625E-09;0,000140380859374997;4;280;2,38880515098572E-07;-2,4246983230114E-07;100 nA
-0,050048828125;147,483016627641;-1,0009765625E-08;-0,0498046875;4;281;2,38880515098572E-07;-2,4246983230114E-07;100 nA
-0,10009765625;147,983504626378;-1,165771484375E-08;-0,09967041015625;4;282;2,38880515098572E-07;-2,4246983230114E-07;100 nA
-0,150146484375;148,483992625114;-1,312255859375E-08;-0,1495361328125;4;283;2,38880515098572E-07;-2,4246983230114E-07;100 nA
-0,2001953125;148,98448062385;-1,434326171875E-08;-0,199462890625;4;284;2,38880515098572E-07;-2,4246983230114E-07;100 nA
-0,250244140625;149,484968622587;-1,556396484375E-08;-0,249359130859375;4;285;2,38880515098572E-07;-2,4246983230114E-07;100 nA
-0,30029296875;149,985456621323;-1,739501953125E-08;-0,29925537109375;4;286;2,38880515098572E-07;-2,4246983230114E-07;100 nA
-0,350341796875;150,48594462006;-1,8951416015625E-08;-0,34918212890625;4;287;2,38880515098572E-07;-2,4246983230114E-07;100 nA
-0,400390625;150,986432618796;-2,0416259765625E-08;-0,399078369140625;4;288;2,38880515098572E-07;-2,4246983230114E-07;100 nA
-0,450439453125;151,486920617532;-2,191162109375E-08;-0,448944091796875;4;289;2,38880515098572E-07;-2,4246983230114E-07;100 nA
-0,50048828125;151,987408616269;-2,349853515625E-08;-0,498809814453125;4;290;2,38880515098572E-07;-2,4246983230114E-07;100 nA
-0,550537109375;152,487896615005;-2,5299072265625E-08;-0,548797607421875;4;291;2,38880515098572E-07;-2,4246983230114E-07;100 nA
-0,6005859375;152,988384613741;-2,7557373046875E-08;-0,598602294921875;4;292;2,38880515098572E-07;-2,4246983230114E-07;100 nA
-0,650634765625;153,488872612478;-2,7923583984375E-08;-0,64862060546875;4;293;2,38880515098572E-07;-2,4246983230114E-07;100 nA
-0,70068359375;153,989360611214;-1,849365234375E-08;-0,698577880859375;4;294;2,38880515098572E-07;-2,4246983230114E-07;100 nA
-0,750732421875;154,489848609951;-1,6693115234375E-08;-0,74859619140625;4;295;2,38880515098572E-07;-2,4246983230114E-07;100 nA
-0,80078125;154,990336608687;-1,641845703125E-08;-0,7989501953125;4;296;2,38880515098572E-07;-2,4246983230114E-07;100 nA
-0,850830078125;155,490824607423;-1,6998291015625E-08;-0,84869384765625;4;297;2,38880515098572E-07;-2,4246983230114E-07;100 nA
-0,90087890625;155,99131260616;-1,9317626953125E-08;-0,89874267578125;4;298;2,38880515098572E-07;-2,4246983230114E-07;100 nA
-0,950927734375;156,491800604896;-2,362060546875E-08;-0,94879150390625;4;299;2,38880515098572E-07;-2,4246983230114E-07;100 nA
-1,0009765625;156,992288603633;-2,9632568359375E-08;-0,99853515625;4;300;2,38880515098572E-07;-2,4246983230114E-07;100 nA
-0,950927734375;157,492776602369;-1,7181396484375E-08;-0,94879150390625;4;301;2,38880515098572E-07;-2,4246983230114E-07;100 nA
-0,90087890625;157,993264601105;-1,0498046875E-08;-0,89874267578125;4;302;2,38880515098572E-07;-2,4246983230114E-07;100 nA
-0,850830078125;158,493752599842;-6,34765625E-09;-0,8489990234375;4;303;2,38880515098572E-07;-2,4246983230114E-07;100 nA
-0,80078125;158,994240598578;-3,23486328125E-09;-0,79864501953125;4;304;2,38880515098572E-07;-2,4246983230114E-07;100 nA
-0,750732421875;159,494728597315;-1,40380859375E-09;-0,748565673828125;4;305;2,38880515098572E-07;-2,4246983230114E-07;100 nA
-0,70068359375;159,995216596051;0;-0,698638916015625;4;306;2,38880515098572E-07;-2,4246983230114E-07;100 nA
-0,650634765625;160,495704594787;1,190185546875E-09;-0,648651123046875;4;307;2,38880515098572E-07;-2,4246983230114E-07;100 nA
-0,6005859375;160,996192593524;1,8310546875E-09;-0,598602294921875;4;308;2,38880515098572E-07;-2,4246983230114E-07;100 nA
-0,550537109375;161,49668059226;2,62451171875E-09;-0,548797607421875;4;309;2,38880515098572E-07;-2,4246983230114E-07;100 nA
-0,50048828125;161,997168590996;3,35693359375E-09;-0,498809814453125;4;310;2,38880515098572E-07;-2,4246983230114E-07;100 nA
-0,450439453125;162,497656589733;4,33349609375E-09;-0,448974609375;4;311;2,38880515098572E-07;-2,4246983230114E-07;100 nA
-0,400390625;162,998144588469;5,889892578125E-09;-0,399078369140625;4;312;2,38880515098572E-07;-2,4246983230114E-07;100 nA
-0,350341796875;163,498632587206;8,331298828125E-09;-0,349151611328125;4;313;2,38880515098572E-07;-2,4246983230114E-07;100 nA
-0,30029296875;163,999120585942;1,080322265625E-08;-0,299224853515625;4;314;2,38880515098572E-07;-2,4246983230114E-07;100 nA
-0,250244140625;164,499608584678;1,3153076171875E-08;-0,2493896484375;4;315;2,38880515098572E-07;-2,4246983230114E-07;100 nA
-0,2001953125;165,000096583415;1,4373779296875E-08;-0,199432373046875;4;316;2,38880515098572E-07;-2,4246983230114E-07;100 nA
-0,150146484375;165,500584582151;1,556396484375E-08;-0,149627685546875;4;317;2,38880515098572E-07;-2,4246983230114E-07;100 nA
-0,10009765625;166,001072580888;1,57470703125E-08;-0,09967041015625;4;318;2,38880515098572E-07;-2,4246983230114E-07;100 nA
-0,050048828125;166,501560579624;1,580810546875E-08;-0,049774169921875;4;319;2,38880515098572E-07;-2,4246983230114E-07;100 nA
0;167,00204857836;1,580810546875E-08;0,000158691406249994;4;320;2,38880515098572E-07;-2,4246983230114E-07;100 nA
0,050048828125;167,502536577097;1,57470703125E-08;0,050140380859375;5;321;2,46838107705116E-07;-2,38361209630966E-07;100 nA
0,10009765625;168,003024575833;1,605224609375E-08;0,100128173828125;5;322;2,46838107705116E-07;-2,38361209630966E-07;100 nA
0,150146484375;168,50351257457;1,5838623046875E-08;0,150146484375;5;323;2,46838107705116E-07;-2,38361209630966E-07;100 nA
0,2001953125;169,004000573306;1,5869140625E-08;0,2000732421875;5;324;2,46838107705116E-07;-2,38361209630966E-07;100 nA
0,250244140625;169,504488572042;1,593017578125E-08;0,250152587890625;5;325;2,46838107705116E-07;-2,38361209630966E-07;100 nA
0,30029296875;170,004976570779;1,6357421875E-08;0,30010986328125;5;326;2,46838107705116E-07;-2,38361209630966E-07;100 nA
0,350341796875;170,505464569515;1,5899658203125E-08;0,350128173828125;5;327;2,46838107705116E-07;-2,38361209630966E-07;100 nA
0,400390625;171,005952568251;1,580810546875E-08;0,40020751953125;5;328;2,46838107705116E-07;-2,38361209630966E-07;100 nA
0,450439453125;171,506440566988;1,5411376953125E-08;0,45013427734375;5;329;2,46838107705116E-07;-2,38361209630966E-07;100 nA
0,50048828125;172,006928565724;1,5045166015625E-08;0,500030517578125;5;330;2,46838107705116E-07;-2,38361209630966E-07;100 nA
0,550537109375;172,507416564461;1,4862060546875E-08;0,550048828125;5;331;2,46838107705116E-07;-2,38361209630966E-07;100 nA
0,6005859375;173,007904563197;1,4892578125E-08;0,600067138671875;5;332;2,46838107705116E-07;-2,38361209630966E-07;100 nA
0,650634765625;173,508392561933;1,5106201171875E-08;0,64996337890625;5;333;2,46838107705116E-07;-2,38361209630966E-07;100 nA
0,70068359375;174,00888056067;1,52587890625E-08;0,699920654296875;5;334;2,46838107705116E-07;-2,38361209630966E-07;100 nA
0,750732421875;174,509368559406;1,544189453125E-08;0,749786376953125;5;335;2,46838107705116E-07;-2,38361209630966E-07;100 nA
0,80078125;175,009856558143;1,57470703125E-08;0,79986572265625;5;336;2,46838107705116E-07;-2,38361209630966E-07;100 nA
0,850830078125;175,510344556879;1,6357421875E-08;0,84930419921875;5;337;2,46838107705116E-07;-2,38361209630966E-07;100 nA
0,90087890625;176,010832555615;1,7333984375E-08;0,899658203125;5;338;2,46838107705116E-07;-2,38361209630966E-07;100 nA
0,950927734375;176,511320554352;1,8768310546875E-08;0,9490966796875;5;339;2,46838107705116E-07;-2,38361209630966E-07;100 nA
1,0009765625;177,011808553088;2,142333984375E-08;0,9991455078125;5;340;2,46838107705116E-07;-2,38361209630966E-07;100 nA
0,950927734375;177,512296551825;1,35498046875E-08;0,94970703125;5;341;2,46838107705116E-07;-2,38361209630966E-07;100 nA
0,90087890625;178,012784550561;9,6435546875E-09;0,89996337890625;5;342;2,46838107705116E-07;-2,38361209630966E-07;100 nA
0,850830078125;178,513272549297;7,080078125E-09;0,84930419921875;5;343;2,46838107705116E-07;-2,38361209630966E-07;100 nA
0,80078125;179,013760548034;4,8828125E-09;0,79925537109375;5;344;2,46838107705116E-07;-2,38361209630966E-07;100 nA
0,750732421875;179,51424854677;3,204345703125E-09;0,749725341796875;5;345;2,46838107705116E-07;-2,38361209630966E-07;100 nA
0,70068359375;180,014736545506;2,13623046875E-09;0,699798583984375;5;346;2,46838107705116E-07;-2,38361209630966E-07;100 nA
0,650634765625;180,515224544243;1,251220703125E-09;0,649932861328125;5;347;2,46838107705116E-07;-2,38361209630966E-07;100 nA
0,6005859375;181,015712542979;6,103515625E-10;0,5999755859375;5;348;2,46838107705116E-07;-2,38361209630966E-07;100 nA
0,550537109375;181,516200541716;-3,35693359375E-10;0,550018310546875;5;349;2,46838107705116E-07;-2,38361209630966E-07;100 nA
0,50048828125;182,016688540452;-1,373291015625E-09;0,500030517578125;5;350;2,46838107705116E-07;-2,38361209630966E-07;100 nA
0,450439453125;182,517176539188;-2,8076171875E-09;0,45001220703125;5;351;2,46838107705116E-07;-2,38361209630966E-07;100 nA
0,400390625;183,017664537925;-4,974365234375E-09;0,400054931640625;5;352;2,46838107705116E-07;-2,38361209630966E-07;100 nA
0,350341796875;183,518152536661;-5,706787109375E-09;0,350128173828125;5;353;2,46838107705116E-07;-2,38361209630966E-07;100 nA
0,30029296875;184,018640535398;-4,608154296875E-09;0,300048828125;5;354;2,46838107705116E-07;-2,38361209630966E-07;100 nA
0,250244140625;184,519128534134;-4,425048828125E-09;0,250030517578125;5;355;2,46838107705116E-07;-2,38361209630966E-07;100 nA
0,2001953125;185,01961653287;-4,852294921875E-09;0,200042724609375;5;356;2,46838107705116E-07;-2,38361209630966E-07;100 nA
0,150146484375;185,520104531607;-5,462646484375E-09;0,150115966796875;5;357;2,46838107705116E-07;-2,38361209630966E-07;100 nA
0,10009765625;186,020592530343;-6,317138671875E-09;0,100128173828125;5;358;2,46838107705116E-07;-2,38361209630966E-07;100 nA
0,050048828125;186,52108052908;-7,354736328125E-09;0,05010986328125;5;359;2,46838107705116E-07;-2,38361209630966E-07;100 nA
0;187,021568527816;-8,636474609375E-09;0,000131225585937506;5;360;2,46838107705116E-07;-2,38361209630966E-07;100 nA
-0,050048828125;187,522056526552;-9,94873046875E-09;-0,04971923828125;5;361;2,46838107705116E-07;-2,38361209630966E-07;100 nA
-0,10009765625;188,022544525289;-1,15966796875E-08;-0,099700927734375;5;362;2,46838107705116E-07;-2,38361209630966E-07;100 nA
-0,150146484375;188,523032524025;-1,300048828125E-08;-0,14947509765625;5;363;2,46838107705116E-07;-2,38361209630966E-07;100 nA
-0,2001953125;189,023520522761;-1,422119140625E-08;-0,19940185546875;5;364;2,46838107705116E-07;-2,38361209630966E-07;100 nA
-0,250244140625;189,524008521498;-1,593017578125E-08;-0,24932861328125;5;365;2,46838107705116E-07;-2,38361209630966E-07;100 nA
-0,30029296875;190,024496520234;-1,708984375E-08;-0,299224853515625;5;366;2,46838107705116E-07;-2,38361209630966E-07;100 nA
-0,350341796875;190,524984518971;-1,861572265625E-08;-0,349090576171875;5;367;2,46838107705116E-07;-2,38361209630966E-07;100 nA
-0,400390625;191,025472517707;-1,9805908203125E-08;-0,39898681640625;5;368;2,46838107705116E-07;-2,38361209630966E-07;100 nA
-0,450439453125;191,525960516443;-2,13623046875E-08;-0,448822021484375;5;369;2,46838107705116E-07;-2,38361209630966E-07;100 nA
-0,50048828125;192,02644851518;-2,30712890625E-08;-0,498748779296875;5;370;2,46838107705116E-07;-2,38361209630966E-07;100 nA
-0,550537109375;192,526936513916;-2,4810791015625E-08;-0,54864501953125;5;371;2,46838107705116E-07;-2,38361209630966E-07;100 nA
-0,6005859375;193,027424512653;-2,7191162109375E-08;-0,598541259765625;5;372;2,46838107705116E-07;-2,38361209630966E-07;100 nA
-0,650634765625;193,527912511389;-2,7618408203125E-08;-0,6484375;5;373;2,46838107705116E-07;-2,38361209630966E-07;100 nA
-0,70068359375;194,028400510125;-1,84326171875E-08;-0,698516845703125;5;374;2,46838107705116E-07;-2,38361209630966E-07;100 nA
-0,750732421875;194,528888508862;-1,617431640625E-08;-0,748565673828125;5;375;2,46838107705116E-07;-2,38361209630966E-07;100 nA
-0,80078125;195,029376507598;-1,6143798828125E-08;-0,79803466796875;5;376;2,46838107705116E-07;-2,38361209630966E-07;100 nA
-0,850830078125;195,529864506335;-1,654052734375E-08;-0,8489990234375;5;377;2,46838107705116E-07;-2,38361209630966E-07;100 nA
-0,90087890625;196,030352505071;-1,8829345703125E-08;-0,89874267578125;5;378;2,46838107705116E-07;-2,38361209630966E-07;100 nA
-0,950927734375;196,530840503807;-2,3101806640625E-08;-0,9490966796875;5;379;2,46838107705116E-07;-2,38361209630966E-07;100 nA
-1,0009765625;197,031328502544;-2,9022216796875E-08;-0,99853515625;5;380;2,46838107705116E-07;-2,38361209630966E-07;100 nA
-0,950927734375;197,53181650128;-1,66015625E-08;-0,94879150390625;5;381;2,46838107705116E-07;-2,38361209630966E-07;100 nA
-0,90087890625;198,032304500016;-1,007080078125E-08;-0,89874267578125;5;382;2,46838107705116E-07;-2,38361209630966E-07;100 nA
-0,850830078125;198,532792498753;-5,9814453125E-09;-0,8489990234375;5;383;2,46838107705116E-07;-2,38361209630966E-07;100 nA
-0,80078125;199,033280497489;-3,0517578125E-09;-0,7977294921875;5;384;2,46838107705116E-07;-2,38361209630966E-07;100 nA
-0,750732421875;199,533768496226;-1,129150390625E-09;-0,748626708984375;5;385;2,46838107705116E-07;-2,38361209630966E-07;100 nA
-0,70068359375;200,034256494962;-6,103515625E-11;-0,698577880859375;5;386;2,46838107705116E-07;-2,38361209630966E-07;100 nA
-0,650634765625;200,534744493698;8,85009765625E-10;-0,648590087890625;5;387;2,46838107705116E-07;-2,38361209630966E-07;100 nA
-0,6005859375;201,035232492435;1,77001953125E-09;-0,59869384765625;5;388;2,46838107705116E-07;-2,38361209630966E-07;100 nA
-0,550537109375;201,535720491171;2,166748046875E-09;-0,548797607421875;5;389;2,46838107705116E-07;-2,38361209630966E-07;100 nA
-0,50048828125;202,036208489908;2,99072265625E-09;-0,4990234375;5;390;2,46838107705116E-07;-2,38361209630966E-07;100 nA
-0,450439453125;202,536696488644;3,997802734375E-09;-0,4490966796875;5;391;2,46838107705116E-07;-2,38361209630966E-07;100 nA
-0,400390625;203,03718448738;5,767822265625E-09;-0,399200439453125;5;392;2,46838107705116E-07;-2,38361209630966E-07;100 nA
-0,350341796875;203,537672486117;8,148193359375E-09;-0,34930419921875;5;393;2,46838107705116E-07;-2,38361209630966E-07;100 nA
-0,30029296875;204,038160484853;1,0650634765625E-08;-0,299346923828125;5;394;2,46838107705116E-07;-2,38361209630966E-07;100 nA
-0,250244140625;204,53864848359;1,3031005859375E-08;-0,249420166015625;5;395;2,46838107705116E-07;-2,38361209630966E-07;100 nA
-0,2001953125;205,039136482326;1,458740234375E-08;-0,199493408203125;5;396;2,46838107705116E-07;-2,38361209630966E-07;100 nA
-0,150146484375;205,539624481062;1,556396484375E-08;-0,149566650390625;5;397;2,46838107705116E-07;-2,38361209630966E-07;100 nA
-0,10009765625;206,040112479799;1,5899658203125E-08;-0,099761962890625;5;398;2,46838107705116E-07;-2,38361209630966E-07;100 nA
-0,050048828125;206,540600478535;1,6143798828125E-08;-0,049835205078125;5;399;2,46838107705116E-07;-2,38361209630966E-07;100 nA
0;207,041088477272;1,6082763671875E-08;0,0001220703125;5;400;2,46838107705116E-07;-2,38361209630966E-07;100 nA
0,050048828125;207,541576476008;1,611328125E-08;0,05010986328125;6;401;2,49098613858223E-07;-2,38025188446045E-07;100 nA
0,10009765625;208,042064474744;1,568603515625E-08;0,100067138671875;6;402;2,49098613858223E-07;-2,38025188446045E-07;100 nA
0,150146484375;208,542552473481;1,5838623046875E-08;0,150054931640625;6;403;2,49098613858223E-07;-2,38025188446045E-07;100 nA
0,2001953125;209,043040472217;1,5838623046875E-08;0,2000732421875;6;404;2,49098613858223E-07;-2,38025188446045E-07;100 nA
0,250244140625;209,543528470953;1,5899658203125E-08;0,2501220703125;6;405;2,49098613858223E-07;-2,38025188446045E-07;100 nA
0,30029296875;210,04401646969;1,617431640625E-08;0,30010986328125;6;406;2,49098613858223E-07;-2,38025188446045E-07;100 nA
0,350341796875;210,544504468426;1,611328125E-08;0,35015869140625;6;407;2,49098613858223E-07;-2,38025188446045E-07;100 nA
0,400390625;211,044992467163;1,611328125E-08;0,40020751953125;6;408;2,49098613858223E-07;-2,38025188446045E-07;100 nA
0,450439453125;211,545480465899;1,57470703125E-08;0,450103759765625;6;409;2,49098613858223E-07;-2,38025188446045E-07;100 nA
0,50048828125;212,045968464635;1,5350341796875E-08;0,500152587890625;6;410;2,49098613858223E-07;-2,38025188446045E-07;100 nA
0,550537109375;212,546456463372;1,5106201171875E-08;0,550140380859375;6;411;2,49098613858223E-07;-2,38025188446045E-07;100 nA
0,6005859375;213,046944462108;1,519775390625E-08;0,600128173828125;6;412;2,49098613858223E-07;-2,38025188446045E-07;100 nA
0,650634765625;213,547432460845;1,5289306640625E-08;0,65008544921875;6;413;2,49098613858223E-07;-2,38025188446045E-07;100 nA
0,70068359375;214,047920459581;1,544189453125E-08;0,699920654296875;6;414;2,49098613858223E-07;-2,38025188446045E-07;100 nA
0,750732421875;214,548408458317;1,5594482421875E-08;0,7498779296875;6;415;2,49098613858223E-07;-2,38025188446045E-07;100 nA
0,80078125;215,048896457054;1,605224609375E-08;0,799560546875;6;416;2,49098613858223E-07;-2,38025188446045E-07;100 nA
0,850830078125;215,54938445579;1,6510009765625E-08;0,84991455078125;6;417;2,49098613858223E-07;-2,38025188446045E-07;100 nA
0,90087890625;216,049872454527;1,739501953125E-08;0,899658203125;6;418;2,49098613858223E-07;-2,38025188446045E-07;100 nA
0,950927734375;216,550360453263;1,8798828125E-08;0,94970703125;6;419;2,49098613858223E-07;-2,38025188446045E-07;100 nA
1,0009765625;217,050848451999;2,1820068359375E-08;0,999755859375;6;420;2,49098613858223E-07;-2,38025188446045E-07;100 nA
0,950927734375;217,551336450736;1,361083984375E-08;0,94970703125;6;421;2,49098613858223E-07;-2,38025188446045E-07;100 nA
0,90087890625;218,051824449472;9,765625E-09;0,9002685546875;6;422;2,49098613858223E-07;-2,38025188446045E-07;100 nA
0,850830078125;218,552312448208;7,080078125E-09;0,849609375;6;423;2,49098613858223E-07;-2,38025188446045E-07;100 nA
0,80078125;219,052800446945;5,096435546875E-09;0,799560546875;6;424;2,49098613858223E-07;-2,38025188446045E-07;100 nA
0,750732421875;219,553288445681;3,72314453125E-09;0,749786376953125;6;425;2,49098613858223E-07;-2,38025188446045E-07;100 nA
0,70068359375;220,053776444418;2,471923828125E-09;0,69989013671875;6;426;2,49098613858223E-07;-2,38025188446045E-07;100 nA
0,650634765625;220,554264443154;1,373291015625E-09;0,64996337890625;6;427;2,49098613858223E-07;-2,38025188446045E-07;100 nA
0,6005859375;221,05475244189;2,74658203125E-10;0,600006103515625;6;428;2,49098613858223E-07;-2,38025188446045E-07;100 nA
0,550537109375;221,555240440627;-4,8828125E-10;0,550018310546875;6;429;2,49098613858223E-07;-2,38025188446045E-07;100 nA
0,50048828125;222,055728439363;-1,15966796875E-09;0,5;6;430;2,49098613858223E-07;-2,38025188446045E-07;100 nA
0,450439453125;222,5562164381;-2,99072265625E-09;0,45001220703125;6;431;2,49098613858223E-07;-2,38025188446045E-07;100 nA
0,400390625;223,056704436836;-5,06591796875E-09;0,399993896484375;6;432;2,49098613858223E-07;-2,38025188446045E-07;100 nA
0,350341796875;223,557192435572;-5,859375E-09;0,35009765625;6;433;2,49098613858223E-07;-2,38025188446045E-07;100 nA
0,30029296875;224,057680434309;-4,730224609375E-09;0,300018310546875;6;434;2,49098613858223E-07;-2,38025188446045E-07;100 nA
0,250244140625;224,558168433045;-4,486083984375E-09;0,249969482421875;6;435;2,49098613858223E-07;-2,38025188446045E-07;100 nA
0,2001953125;225,058656431782;-4,913330078125E-09;0,200042724609375;6;436;2,49098613858223E-07;-2,38025188446045E-07;100 nA
0,150146484375;225,559144430518;-5,523681640625E-09;0,150054931640625;6;437;2,49098613858223E-07;-2,38025188446045E-07;100 nA
0,10009765625;226,059632429254;-6,40869140625E-09;0,100067138671875;6;438;2,49098613858223E-07;-2,38025188446045E-07;100 nA
0,050048828125;226,560120427991;-7,415771484375E-09;0,050140380859375;6;439;2,49098613858223E-07;-2,38025188446045E-07;100 nA
0;227,060608426727;-8,636474609375E-09;0,000152587890625;6;440;2,49098613858223E-07;-2,38025188446045E-07;100 nA
-0,050048828125;227,561096425463;-9,979248046875E-09;-0,0497161865234375;6;441;2,49098613858223E-07;-2,38025188446045E-07;100 nA
-0,10009765625;228,0615844242;-1,15966796875E-08;-0,09967041015625;6;442;2,49098613858223E-07;-2,38025188446045E-07;100 nA
-0,150146484375;228,562072422936;-1,30615234375E-08;-0,149566650390625;6;443;2,49098613858223E-07;-2,38025188446045E-07;100 nA
-0,2001953125;229,062560421673;-1,42822265625E-08;-0,199432373046875;6;444;2,49098613858223E-07;-2,38025188446045E-07;100 nA
-0,250244140625;229,563048420409;-1,568603515625E-08;-0,249298095703125;6;445;2,49098613858223E-07;-2,38025188446045E-07;100 nA
-0,30029296875;230,063536419145;-1,7242431640625E-08;-0,2991943359375;6;446;2,49098613858223E-07;-2,38025188446045E-07;100 nA
-0,350341796875;230,564024417882;-1,8707275390625E-08;-0,349090576171875;6;447;2,49098613858223E-07;-2,38025188446045E-07;100 nA
-0,400390625;231,064512416618;-1,9989013671875E-08;-0,39898681640625;6;448;2,49098613858223E-07;-2,38025188446045E-07;100 nA
-0,450439453125;231,565000415355;-2,13623046875E-08;-0,4488525390625;6;449;2,49098613858223E-07;-2,38025188446045E-07;100 nA
-0,50048828125;232,065488414091;-2,2918701171875E-08;-0,498687744140625;6;450;2,49098613858223E-07;-2,38025188446045E-07;100 nA
-0,550537109375;232,565976412827;-2,47802734375E-08;-0,548614501953125;6;451;2,49098613858223E-07;-2,38025188446045E-07;100 nA
-0,6005859375;233,066464411564;-2,7008056640625E-08;-0,598541259765625;6;452;2,49098613858223E-07;-2,38025188446045E-07;100 nA
-0,650634765625;233,5669524103;-2,7618408203125E-08;-0,64849853515625;6;453;2,49098613858223E-07;-2,38025188446045E-07;100 nA
-0,70068359375;234,067440409037;-1,8524169921875E-08;-0,698516845703125;6;454;2,49098613858223E-07;-2,38025188446045E-07;100 nA
-0,750732421875;234,567928407773;-1,611328125E-08;-0,74853515625;6;455;2,49098613858223E-07;-2,38025188446045E-07;100 nA
-0,80078125;235,068416406509;-1,605224609375E-08;-0,79833984375;6;456;2,49098613858223E-07;-2,38025188446045E-07;100 nA
-0,850830078125;235,568904405246;-1,6387939453125E-08;-0,8489990234375;6;457;2,49098613858223E-07;-2,38025188446045E-07;100 nA
-0,90087890625;236,069392403982;-1,8585205078125E-08;-0,89874267578125;6;458;2,49098613858223E-07;-2,38025188446045E-07;100 nA
-0,950927734375;236,569880402718;-2,2857666015625E-08;-0,94940185546875;6;459;2,49098613858223E-07;-2,38025188446045E-07;100 nA
-1,0009765625;237,070368401455;-2,8656005859375E-08;-0,9991455078125;6;460;2,49098613858223E-07;-2,38025188446045E-07;100 nA
-0,950927734375;237,570856400191;-1,641845703125E-08;-0,9490966796875;6;461;2,49098613858223E-07;-2,38025188446045E-07;100 nA
-0,90087890625;238,071344398928;-9,94873046875E-09;-0,8984375;6;462;2,49098613858223E-07;-2,38025188446045E-07;100 nA
-0,850830078125;238,571832397664;-5,79833984375E-09;-0,84869384765625;6;463;2,49098613858223E-07;-2,38025188446045E-07;100 nA
-0,80078125;239,0723203964;-2,99072265625E-09;-0,79864501953125;6;464;2,49098613858223E-07;-2,38025188446045E-07;100 nA
-0,750732421875;239,572808395137;-1,3427734375E-09;-0,74859619140625;6;465;2,49098613858223E-07;-2,38025188446045E-07;100 nA
-0,70068359375;240,073296393873;6,103515625E-11;-0,698638916015625;6;466;2,49098613858223E-07;-2,38025188446045E-07;100 nA
-0,650634765625;240,57378439261;8,23974609375E-10;-0,648681640625;6;467;2,49098613858223E-07;-2,38025188446045E-07;100 nA
-0,6005859375;241,074272391346;1,77001953125E-09;-0,59881591796875;6;468;2,49098613858223E-07;-2,38025188446045E-07;100 nA
-0,550537109375;241,574760390082;2,471923828125E-09;-0,54888916015625;6;469;2,49098613858223E-07;-2,38025188446045E-07;100 nA
-0,50048828125;242,075248388819;3,021240234375E-09;-0,498992919921875;6;470;2,49098613858223E-07;-2,38025188446045E-07;100 nA
-0,450439453125;242,575736387555;4,21142578125E-09;-0,449005126953125;6;471;2,49098613858223E-07;-2,38025188446045E-07;100 nA
-0,400390625;243,076224386292;5,889892578125E-09;-0,39910888671875;6;472;2,49098613858223E-07;-2,38025188446045E-07;100 nA
-0,350341796875;243,576712385028;8,392333984375E-09;-0,34918212890625;6;473;2,49098613858223E-07;-2,38025188446045E-07;100 nA
-0,30029296875;244,077200383764;1,080322265625E-08;-0,29925537109375;6;474;2,49098613858223E-07;-2,38025188446045E-07;100 nA
-0,250244140625;244,577688382501;1,3214111328125E-08;-0,249420166015625;6;475;2,49098613858223E-07;-2,38025188446045E-07;100 nA
-0,2001953125;245,078176381237;1,4739990234375E-08;-0,199462890625;6;476;2,49098613858223E-07;-2,38025188446045E-07;100 nA
-0,150146484375;245,578664379973;1,5380859375E-08;-0,149566650390625;6;477;2,49098613858223E-07;-2,38025188446045E-07;100 nA
-0,10009765625;246,07915237871;1,5655517578125E-08;-0,09967041015625;6;478;2,49098613858223E-07;-2,38025188446045E-07;100 nA
-0,050048828125;246,579640377446;1,5838623046875E-08;-0,049835205078125;6;479;2,49098613858223E-07;-2,38025188446045E-07;100 nA
0;247,080128376183;1,5960693359375E-08;0,0001373291015625;6;480;2,49098613858223E-07;-2,38025188446045E-07;100 nA
0,050048828125;247,580616374919;1,5838623046875E-08;0,05010986328125;7;481;2,49770656228066E-07;-2,37628072500229E-07;100 nA
0,10009765625;248,081104373655;1,6082763671875E-08;0,10009765625;7;482;2,49770656228066E-07;-2,37628072500229E-07;100 nA
0,150146484375;248,581592372392;1,5960693359375E-08;0,150146484375;7;483;2,49770656228066E-07;-2,37628072500229E-07;100 nA
0,2001953125;249,082080371128;1,611328125E-08;0,200103759765625;7;484;2,49770656228066E-07;-2,37628072500229E-07;100 nA
0,250244140625;249,582568369865;1,611328125E-08;0,25006103515625;7;485;2,49770656228066E-07;-2,37628072500229E-07;100 nA
0,30029296875;250,083056368601;1,6632080078125E-08;0,30010986328125;7;486;2,49770656228066E-07;-2,37628072500229E-07;100 nA
0,350341796875;250,583544367337;1,6387939453125E-08;0,350128173828125;7;487;2,49770656228066E-07;-2,37628072500229E-07;100 nA
0,400390625;251,084032366074;1,59912109375E-08;0,40020751953125;7;488;2,49770656228066E-07;-2,37628072500229E-07;100 nA
0,450439453125;251,58452036481;1,5625E-08;0,450103759765625;7;489;2,49770656228066E-07;-2,37628072500229E-07;100 nA
0,50048828125;252,085008363547;1,5228271484375E-08;0,50006103515625;7;490;2,49770656228066E-07;-2,37628072500229E-07;100 nA
0,550537109375;252,585496362283;1,4984130859375E-08;0,550079345703125;7;491;2,49770656228066E-07;-2,37628072500229E-07;100 nA
0,6005859375;253,085984361019;1,5045166015625E-08;0,600067138671875;7;492;2,49770656228066E-07;-2,37628072500229E-07;100 nA
0,650634765625;253,586472359756;1,5045166015625E-08;0,649993896484375;7;493;2,49770656228066E-07;-2,37628072500229E-07;100 nA
0,70068359375;254,086960358492;1,531982421875E-08;0,699920654296875;7;494;2,49770656228066E-07;-2,37628072500229E-07;100 nA
0,750732421875;254,587448357228;1,556396484375E-08;0,749725341796875;7;495;2,49770656228066E-07;-2,37628072500229E-07;100 nA
0,80078125;255,087936355965;1,5716552734375E-08;0,8001708984375;7;496;2,49770656228066E-07;-2,37628072500229E-07;100 nA
0,850830078125;255,588424354701;1,62353515625E-08;0,84991455078125;7;497;2,49770656228066E-07;-2,37628072500229E-07;100 nA
0,90087890625;256,088912353438;1,7303466796875E-08;0,899658203125;7;498;2,49770656228066E-07;-2,37628072500229E-07;100 nA
0,950927734375;256,589400352174;1,849365234375E-08;0,94940185546875;7;499;2,49770656228066E-07;-2,37628072500229E-07;100 nA
1,0009765625;257,08988835091;2,1331787109375E-08;0,999755859375;7;500;2,49770656228066E-07;-2,37628072500229E-07;100 nA
0,950927734375;257,590376349647;1,324462890625E-08;0,94970703125;7;501;2,49770656228066E-07;-2,37628072500229E-07;100 nA
0,90087890625;258,090864348383;9,521484375E-09;0,89935302734375;7;502;2,49770656228066E-07;-2,37628072500229E-07;100 nA
0,850830078125;258,59135234712;6,7138671875E-09;0,84991455078125;7;503;2,49770656228066E-07;-2,37628072500229E-07;100 nA
0,80078125;259,091840345856;5,0048828125E-09;0,799560546875;7;504;2,49770656228066E-07;-2,37628072500229E-07;100 nA
0,750732421875;259,592328344592;3,7841796875E-09;0,749725341796875;7;505;2,49770656228066E-07;-2,37628072500229E-07;100 nA
0,70068359375;260,092816343329;2,5634765625E-09;0,69989013671875;7;506;2,49770656228066E-07;-2,37628072500229E-07;100 nA
0,650634765625;260,593304342065;1,312255859375E-09;0,6500244140625;7;507;2,49770656228066E-07;-2,37628072500229E-07;100 nA
0,6005859375;261,093792340802;6,7138671875E-10;0,60009765625;7;508;2,49770656228066E-07;-2,37628072500229E-07;100 nA
0,550537109375;261,594280339538;0;0,55010986328125;7;509;2,49770656228066E-07;-2,37628072500229E-07;100 nA
0,50048828125;262,094768338274;-7,9345703125E-10;0,50018310546875;7;510;2,49770656228066E-07;-2,37628072500229E-07;100 nA
0,450439453125;262,595256337011;-2,74658203125E-09;0,45013427734375;7;511;2,49770656228066E-07;-2,37628072500229E-07;100 nA
0,400390625;263,095744335747;-4,82177734375E-09;0,400115966796875;7;512;2,49770656228066E-07;-2,37628072500229E-07;100 nA
0,350341796875;263,596232334483;-5,43212890625E-09;0,35015869140625;7;513;2,49770656228066E-07;-2,37628072500229E-07;100 nA
0,30029296875;264,09672033322;-4,2724609375E-09;0,3001708984375;7;514;2,49770656228066E-07;-2,37628072500229E-07;100 nA
0,250244140625;264,597208331956;-4,302978515625E-09;0,25018310546875;7;515;2,49770656228066E-07;-2,37628072500229E-07;100 nA
0,2001953125;265,097696330693;-4,69970703125E-09;0,20013427734375;7;516;2,49770656228066E-07;-2,37628072500229E-07;100 nA
0,150146484375;265,598184329429;-5,096435546875E-09;0,15020751953125;7;517;2,49770656228066E-07;-2,37628072500229E-07;100 nA
0,10009765625;266,098672328165;-6,04248046875E-09;0,100189208984375;7;518;2,49770656228066E-07;-2,37628072500229E-07;100 nA
0,050048828125;266,599160326902;-7,171630859375E-09;0,050140380859375;7;519;2,49770656228066E-07;-2,37628072500229E-07;100 nA
0;267,099648325638;-8,72802734375E-09;0,000149536132812503;7;520;2,49770656228066E-07;-2,37628072500229E-07;100 nA
-0,050048828125;267,600136324375;-1,0162353515625E-08;-0,0497161865234375;7;521;2,49770656228066E-07;-2,37628072500229E-07;100 nA
-0,10009765625;268,100624323111;-1,1688232421875E-08;-0,099700927734375;7;522;2,49770656228066E-07;-2,37628072500229E-07;100 nA
-0,150146484375;268,601112321847;-1,324462890625E-08;-0,1495361328125;7;523;2,49770656228066E-07;-2,37628072500229E-07;100 nA
-0,2001953125;269,101600320584;-1,4495849609375E-08;-0,199432373046875;7;524;2,49770656228066E-07;-2,37628072500229E-07;100 nA
-0,250244140625;269,60208831932;-1,57470703125E-08;-0,24932861328125;7;525;2,49770656228066E-07;-2,37628072500229E-07;100 nA
-0,30029296875;270,102576318057;-1,7608642578125E-08;-0,29925537109375;7;526;2,49770656228066E-07;-2,37628072500229E-07;100 nA
-0,350341796875;270,603064316793;-1,9012451171875E-08;-0,349151611328125;7;527;2,49770656228066E-07;-2,37628072500229E-07;100 nA
-0,400390625;271,103552315529;-2,0355224609375E-08;-0,399078369140625;7;528;2,49770656228066E-07;-2,37628072500229E-07;100 nA
-0,450439453125;271,604040314266;-2,1881103515625E-08;-0,448974609375;7;529;2,49770656228066E-07;-2,37628072500229E-07;100 nA
-0,50048828125;272,104528313002;-2,3468017578125E-08;-0,49884033203125;7;530;2,49770656228066E-07;-2,37628072500229E-07;100 nA
-0,550537109375;272,605016311739;-2,520751953125E-08;-0,548736572265625;7;531;2,49770656228066E-07;-2,37628072500229E-07;100 nA
-0,6005859375;273,105504310475;-2,7374267578125E-08;-0,59869384765625;7;532;2,49770656228066E-07;-2,37628072500229E-07;100 nA
-0,650634765625;273,605992309211;-2,850341796875E-08;-0,64862060546875;7;533;2,49770656228066E-07;-2,37628072500229E-07;100 nA
-0,70068359375;274,106480307948;-1,934814453125E-08;-0,698577880859375;7;534;2,49770656228066E-07;-2,37628072500229E-07;100 nA
-0,750732421875;274,606968306684;-1,6387939453125E-08;-0,7486572265625;7;535;2,49770656228066E-07;-2,37628072500229E-07;100 nA
-0,80078125;275,10745630542;-1,617431640625E-08;-0,79864501953125;7;536;2,49770656228066E-07;-2,37628072500229E-07;100 nA
-0,850830078125;275,607944304157;-1,6326904296875E-08;-0,84869384765625;7;537;2,49770656228066E-07;-2,37628072500229E-07;100 nA
-0,90087890625;276,108432302893;-1,8341064453125E-08;-0,89813232421875;7;538;2,49770656228066E-07;-2,37628072500229E-07;100 nA
-0,950927734375;276,60892030163;-2,2430419921875E-08;-0,948486328125;7;539;2,49770656228066E-07;-2,37628072500229E-07;100 nA
-1,0009765625;277,109408300366;-2,825927734375E-08;-0,9991455078125;7;540;2,49770656228066E-07;-2,37628072500229E-07;100 nA
-0,950927734375;277,609896299102;-1,59912109375E-08;-0,94879150390625;7;541;2,49770656228066E-07;-2,37628072500229E-07;100 nA
-0,90087890625;278,110384297839;-9,613037109375E-09;-0,8990478515625;7;542;2,49770656228066E-07;-2,37628072500229E-07;100 nA
-0,850830078125;278,610872296575;-5,401611328125E-09;-0,8489990234375;7;543;2,49770656228066E-07;-2,37628072500229E-07;100 nA
-0,80078125;279,111360295312;-2,74658203125E-09;-0,7989501953125;7;544;2,49770656228066E-07;-2,37628072500229E-07;100 nA
-0,750732421875;279,611848294048;-9,1552734375E-10;-0,748504638671875;7;545;2,49770656228066E-07;-2,37628072500229E-07;100 nA
-0,70068359375;280,112336292784;3,35693359375E-10;-0,698516845703125;7;546;2,49770656228066E-07;-2,37628072500229E-07;100 nA
-0,650634765625;280,612824291521;1,129150390625E-09;-0,64849853515625;7;547;2,49770656228066E-07;-2,37628072500229E-07;100 nA
-0,6005859375;281,113312290257;2,50244140625E-09;-0,598541259765625;7;548;2,49770656228066E-07;-2,37628072500229E-07;100 nA
-0,550537109375;281,613800288994;2,62451171875E-09;-0,5487060546875;7;549;2,49770656228066E-07;-2,37628072500229E-07;100 nA
-0,50048828125;282,11428828773;3,326416015625E-09;-0,498809814453125;7;550;2,49770656228066E-07;-2,37628072500229E-07;100 nA
-0,450439453125;282,614776286466;4,39453125E-09;-0,448883056640625;7;551;2,49770656228066E-07;-2,37628072500229E-07;100 nA
-0,400390625;283,115264285203;6,072998046875E-09;-0,399017333984375;7;552;2,49770656228066E-07;-2,37628072500229E-07;100 nA
-0,350341796875;283,615752283939;8,544921875E-09;-0,34912109375;7;553;2,49770656228066E-07;-2,37628072500229E-07;100 nA
-0,30029296875;284,116240282675;1,092529296875E-08;-0,299224853515625;7;554;2,49770656228066E-07;-2,37628072500229E-07;100 nA
-0,250244140625;284,616728281412;1,3275146484375E-08;-0,2493896484375;7;555;2,49770656228066E-07;-2,37628072500229E-07;100 nA
-0,2001953125;285,117216280148;1,4617919921875E-08;-0,19952392578125;7;556;2,49770656228066E-07;-2,37628072500229E-07;100 nA
-0,150146484375;285,617704278885;1,556396484375E-08;-0,14959716796875;7;557;2,49770656228066E-07;-2,37628072500229E-07;100 nA
-0,10009765625;286,118192277621;1,5838623046875E-08;-0,099700927734375;7;558;2,49770656228066E-07;-2,37628072500229E-07;100 nA
-0,050048828125;286,618680276357;1,59912109375E-08;-0,04986572265625;7;559;2,49770656228066E-07;-2,37628072500229E-07;100 nA
0;287,119168275094;1,6082763671875E-08;0,0001220703125;7;560;2,49770656228066E-07;-2,37628072500229E-07;100 nA
0,050048828125;287,61965627383;1,5838623046875E-08;0,05010986328125;8;561;2,48854234814644E-07;-2,37658619880676E-07;100 nA
0,10009765625;288,120144272567;1,5716552734375E-08;0,0999755859375;8;562;2,48854234814644E-07;-2,37658619880676E-07;100 nA
0,150146484375;288,620632271303;1,55029296875E-08;0,14990234375;8;563;2,48854234814644E-07;-2,37658619880676E-07;100 nA
0,2001953125;289,121120270039;1,5472412109375E-08;0,199920654296875;8;564;2,48854234814644E-07;-2,37658619880676E-07;100 nA
0,250244140625;289,621608268776;1,5289306640625E-08;0,24993896484375;8;565;2,48854234814644E-07;-2,37658619880676E-07;100 nA
0,30029296875;290,122096267512;1,64794921875E-08;0,299957275390625;8;566;2,48854234814644E-07;-2,37658619880676E-07;100 nA
0,350341796875;290,622584266249;1,62353515625E-08;0,350006103515625;8;567;2,48854234814644E-07;-2,37658619880676E-07;100 nA
0,400390625;291,123072264985;1,5899658203125E-08;0,400054931640625;8;568;2,48854234814644E-07;-2,37658619880676E-07;100 nA
0,450439453125;291,623560263721;1,5716552734375E-08;0,4500732421875;8;569;2,48854234814644E-07;-2,37658619880676E-07;100 nA
0,50048828125;292,124048262458;1,5350341796875E-08;0,50006103515625;8;570;2,48854234814644E-07;-2,37658619880676E-07;100 nA
0,550537109375;292,624536261194;1,519775390625E-08;0,550048828125;8;571;2,48854234814644E-07;-2,37658619880676E-07;100 nA
0,6005859375;293,12502425993;1,5167236328125E-08;0,600067138671875;8;572;2,48854234814644E-07;-2,37658619880676E-07;100 nA
0,650634765625;293,625512258667;1,5411376953125E-08;0,650054931640625;8;573;2,48854234814644E-07;-2,37658619880676E-07;100 nA
0,70068359375;294,126000257403;1,55029296875E-08;0,699920654296875;8;574;2,48854234814644E-07;-2,37658619880676E-07;100 nA
0,750732421875;294,62648825614;1,5716552734375E-08;0,749847412109375;8;575;2,48854234814644E-07;-2,37658619880676E-07;100 nA
0,80078125;295,126976254876;1,59912109375E-08;0,79986572265625;8;576;2,48854234814644E-07;-2,37658619880676E-07;100 nA
0,850830078125;295,627464253612;1,654052734375E-08;0,84991455078125;8;577;2,48854234814644E-07;-2,37658619880676E-07;100 nA
0,90087890625;296,127952252349;1,7547607421875E-08;0,899658203125;8;578;2,48854234814644E-07;-2,37658619880676E-07;100 nA
0,950927734375;296,628440251085;1,904296875E-08;0,95001220703125;8;579;2,48854234814644E-07;-2,37658619880676E-07;100 nA
1,0009765625;297,128928249822;2,1453857421875E-08;0,999755859375;8;580;2,48854234814644E-07;-2,37658619880676E-07;100 nA
0,950927734375;297,629416248558;1,3580322265625E-08;0,94970703125;8;581;2,48854234814644E-07;-2,37658619880676E-07;100 nA
0,90087890625;298,129904247294;9,674072265625E-09;0,89996337890625;8;582;2,48854234814644E-07;-2,37658619880676E-07;100 nA
0,850830078125;298,630392246031;7,049560546875E-09;0,849609375;8;583;2,48854234814644E-07;-2,37658619880676E-07;100 nA
0,80078125;299,130880244767;5,401611328125E-09;0,799560546875;8;584;2,48854234814644E-07;-2,37658619880676E-07;100 nA
0,750732421875;299,631368243504;3,814697265625E-09;0,749847412109375;8;585;2,48854234814644E-07;-2,37658619880676E-07;100 nA
0,70068359375;300,13185624224;2,5634765625E-09;0,6998291015625;8;586;2,48854234814644E-07;-2,37658619880676E-07;100 nA
0,650634765625;300,632344240976;1,28173828125E-09;0,64996337890625;8;587;2,48854234814644E-07;-2,37658619880676E-07;100 nA
0,6005859375;301,132832239713;2,74658203125E-10;0,599945068359375;8;588;2,48854234814644E-07;-2,37658619880676E-07;100 nA
0,550537109375;301,633320238449;-3,96728515625E-10;0,549957275390625;8;589;2,48854234814644E-07;-2,37658619880676E-07;100 nA
0,50048828125;302,133808237185;-9,46044921875E-10;0,5;8;590;2,48854234814644E-07;-2,37658619880676E-07;100 nA
0,450439453125;302,634296235922;-2,99072265625E-09;0,4500732421875;8;591;2,48854234814644E-07;-2,37658619880676E-07;100 nA
0,400390625;303,134784234658;-4,7607421875E-09;0,4000244140625;8;592;2,48854234814644E-07;-2,37658619880676E-07;100 nA
0,350341796875;303,635272233395;-5,7373046875E-09;0,35009765625;8;593;2,48854234814644E-07;-2,37658619880676E-07;100 nA
0,30029296875;304,135760232131;-4,8828125E-09;0,300140380859375;8;594;2,48854234814644E-07;-2,37658619880676E-07;100 nA
0,250244140625;304,636248230867;-3,692626953125E-09;0,2501220703125;8;595;2,48854234814644E-07;-2,37658619880676E-07;100 nA
0,2001953125;305,136736229604;-4,82177734375E-09;0,200103759765625;8;596;2,48854234814644E-07;-2,37658619880676E-07;100 nA
0,150146484375;305,63722422834;-5,584716796875E-09;0,150115966796875;8;597;2,48854234814644E-07;-2,37658619880676E-07;100 nA
0,10009765625;306,137712227077;-6,683349609375E-09;0,100128173828125;8;598;2,48854234814644E-07;-2,37658619880676E-07;100 nA
0,050048828125;306,638200225813;-6,927490234375E-09;0,050201416015625;8;599;2,48854234814644E-07;-2,37658619880676E-07;100 nA
0;307,138688224549;-8,209228515625E-09;0,000128173828124994;8;600;2,48854234814644E-07;-2,37658619880676E-07;100 nA
-0,050048828125;307,639176223286;-1,0101318359375E-08;-0,04971923828125;8;601;2,48854234814644E-07;-2,37658619880676E-07;100 nA
-0,10009765625;308,139664222022;-1,18408203125E-08;-0,09967041015625;8;602;2,48854234814644E-07;-2,37658619880676E-07;100 nA
-0,150146484375;308,640152220759;-1,3397216796875E-08;-0,1495361328125;8;603;2,48854234814644E-07;-2,37658619880676E-07;100 nA
-0,2001953125;309,140640219495;-1,4251708984375E-08;-0,199462890625;8;604;2,48854234814644E-07;-2,37658619880676E-07;100 nA
-0,250244140625;309,641128218231;-1,4862060546875E-08;-0,249359130859375;8;605;2,48854234814644E-07;-2,37658619880676E-07;100 nA
-0,30029296875;310,141616216968;-1,910400390625E-08;-0,29925537109375;8;606;2,48854234814644E-07;-2,37658619880676E-07;100 nA
-0,350341796875;310,642104215704;-2,0263671875E-08;-0,349151611328125;8;607;2,48854234814644E-07;-2,37658619880676E-07;100 nA
-0,400390625;311,14259221444;-2,020263671875E-08;-0,399078369140625;8;608;2,48854234814644E-07;-2,37658619880676E-07;100 nA
-0,450439453125;311,643080213177;-2,2003173828125E-08;-0,448883056640625;8;609;2,48854234814644E-07;-2,37658619880676E-07;100 nA
-0,50048828125;312,143568211913;-2,3101806640625E-08;-0,49884033203125;8;610;2,48854234814644E-07;-2,37658619880676E-07;100 nA
-0,550537109375;312,64405621065;-2,4932861328125E-08;-0,548797607421875;8;611;2,48854234814644E-07;-2,37658619880676E-07;100 nA
-0,6005859375;313,144544209386;-2,7557373046875E-08;-0,5986328125;8;612;2,48854234814644E-07;-2,37658619880676E-07;100 nA
-0,650634765625;313,645032208122;-2,8564453125E-08;-0,648590087890625;8;613;2,48854234814644E-07;-2,37658619880676E-07;100 nA
-0,70068359375;314,145520206859;-1,9500732421875E-08;-0,698577880859375;8;614;2,48854234814644E-07;-2,37658619880676E-07;100 nA
-0,750732421875;314,646008205595;-1,617431640625E-08;-0,74853515625;8;615;2,48854234814644E-07;-2,37658619880676E-07;100 nA
-0,80078125;315,146496204332;-1,59912109375E-08;-0,79864501953125;8;616;2,48854234814644E-07;-2,37658619880676E-07;100 nA
-0,850830078125;315,646984203068;-1,6082763671875E-08;-0,848388671875;8;617;2,48854234814644E-07;-2,37658619880676E-07;100 nA
-0,90087890625;316,147472201804;-1,8096923828125E-08;-0,8984375;8;618;2,48854234814644E-07;-2,37658619880676E-07;100 nA
-0,950927734375;316,647960200541;-2,2125244140625E-08;-0,94879150390625;8;619;2,48854234814644E-07;-2,37658619880676E-07;100 nA
-1,0009765625;317,148448199277;-2,777099609375E-08;-0,99884033203125;8;620;2,48854234814644E-07;-2,37658619880676E-07;100 nA
-0,950927734375;317,648936198014;-1,5777587890625E-08;-0,948486328125;8;621;2,48854234814644E-07;-2,37658619880676E-07;100 nA
-0,90087890625;318,14942419675;-9,3994140625E-09;-0,89874267578125;8;622;2,48854234814644E-07;-2,37658619880676E-07;100 nA
-0,850830078125;318,649912195486;-5,157470703125E-09;-0,84869384765625;8;623;2,48854234814644E-07;-2,37658619880676E-07;100 nA
-0,80078125;319,150400194223;-2,74658203125E-09;-0,79925537109375;8;624;2,48854234814644E-07;-2,37658619880676E-07;100 nA
-0,750732421875;319,650888192959;-2,13623046875E-10;-0,748504638671875;8;625;2,48854234814644E-07;-2,37658619880676E-07;100 nA
-0,70068359375;320,151376191695;1,007080078125E-09;-0,698516845703125;8;626;2,48854234814644E-07;-2,37658619880676E-07;100 nA
-0,650634765625;320,651864190432;1,40380859375E-09;-0,6485595703125;8;627;2,48854234814644E-07;-2,37658619880676E-07;100 nA
-0,6005859375;321,152352189168;1,52587890625E-09;-0,598663330078125;8;628;2,48854234814644E-07;-2,37658619880676E-07;100 nA
-0,550537109375;321,652840187905;2,5634765625E-09;-0,54876708984375;8;629;2,48854234814644E-07;-2,37658619880676E-07;100 nA
-0,50048828125;322,153328186641;2,86865234375E-09;-0,498870849609375;8;630;2,48854234814644E-07;-2,37658619880676E-07;100 nA
-0,450439453125;322,653816185377;4,608154296875E-09;-0,448944091796875;8;631;2,48854234814644E-07;-2,37658619880676E-07;100 nA
-0,400390625;323,154304184114;5,859375E-09;-0,399078369140625;8;632;2,48854234814644E-07;-2,37658619880676E-07;100 nA
-0,350341796875;323,65479218285;8,7890625E-09;-0,349273681640625;8;633;2,48854234814644E-07;-2,37658619880676E-07;100 nA
-0,30029296875;324,155280181587;1,0711669921875E-08;-0,299224853515625;8;634;2,48854234814644E-07;-2,37658619880676E-07;100 nA
-0,250244140625;324,655768180323;1,3092041015625E-08;-0,249420166015625;8;635;2,48854234814644E-07;-2,37658619880676E-07;100 nA
-0,2001953125;325,156256179059;1,4007568359375E-08;-0,199615478515625;8;636;2,48854234814644E-07;-2,37658619880676E-07;100 nA
-0,150146484375;325,656744177796;1,52587890625E-08;-0,149688720703125;8;637;2,48854234814644E-07;-2,37658619880676E-07;100 nA
-0,10009765625;326,157232176532;1,5411376953125E-08;-0,099822998046875;8;638;2,48854234814644E-07;-2,37658619880676E-07;100 nA
-0,050048828125;326,657720175269;1,556396484375E-08;-0,049957275390625;8;639;2,48854234814644E-07;-2,37658619880676E-07;100 nA
0;327,158208174005;1,5838623046875E-08;0,000119018554687503;8;640;2,48854234814644E-07;-2,37658619880676E-07;100 nA
0,050048828125;327,658696172741;1,6143798828125E-08;0,050048828125;9;641;2,53497436642647E-07;-2,3738369345665E-07;100 nA
0,10009765625;328,159184171478;1,5838623046875E-08;0,100067138671875;9;642;2,53497436642647E-07;-2,3738369345665E-07;100 nA
0,150146484375;328,659672170214;1,617431640625E-08;0,1500244140625;9;643;2,53497436642647E-07;-2,3738369345665E-07;100 nA
0,2001953125;329,16016016895;1,593017578125E-08;0,2000732421875;9;644;2,53497436642647E-07;-2,3738369345665E-07;100 nA
0,250244140625;329,660648167687;1,59912109375E-08;0,25;9;645;2,53497436642647E-07;-2,3738369345665E-07;100 nA
0,30029296875;330,161136166423;1,617431640625E-08;0,300048828125;9;646;2,53497436642647E-07;-2,3738369345665E-07;100 nA
0,350341796875;330,66162416516;1,666259765625E-08;0,350128173828125;9;647;2,53497436642647E-07;-2,3738369345665E-07;100 nA
0,400390625;331,162112163896;1,6357421875E-08;0,400115966796875;9;648;2,53497436642647E-07;-2,3738369345665E-07;100 nA
0,450439453125;331,662600162632;1,59912109375E-08;0,450103759765625;9;649;2,53497436642647E-07;-2,3738369345665E-07;100 nA
0,50048828125;332,163088161369;1,55029296875E-08;0,500152587890625;9;650;2,53497436642647E-07;-2,3738369345665E-07;100 nA
0,550537109375;332,663576160105;1,3824462890625E-08;0,550201416015625;9;651;2,53497436642647E-07;-2,3738369345665E-07;100 nA
0,6005859375;333,164064158842;1,6754150390625E-08;0,600067138671875;9;652;2,53497436642647E-07;-2,3738369345665E-07;100 nA
0,650634765625;333,664552157578;1,5106201171875E-08;0,65008544921875;9;653;2,53497436642647E-07;-2,3738369345665E-07;100 nA
0,70068359375;334,165040156314;1,6448974609375E-08;0,699981689453125;9;654;2,53497436642647E-07;-2,3738369345665E-07;100 nA
0,750732421875;334,665528155051;1,434326171875E-08;0,749847412109375;9;655;2,53497436642647E-07;-2,3738369345665E-07;100 nA
0,80078125;335,166016153787;1,5380859375E-08;0,79986572265625;9;656;2,53497436642647E-07;-2,3738369345665E-07;100 nA
0,850830078125;335,666504152524;1,66015625E-08;0,849609375;9;657;2,53497436642647E-07;-2,3738369345665E-07;100 nA
0,90087890625;336,16699215126;1,7791748046875E-08;0,89935302734375;9;658;2,53497436642647E-07;-2,3738369345665E-07;100 nA
0,950927734375;336,667480149996;1,910400390625E-08;0,9490966796875;9;659;2,53497436642647E-07;-2,3738369345665E-07;100 nA
1,0009765625;337,167968148733;2,1270751953125E-08;0,99945068359375;9;660;2,53497436642647E-07;-2,3738369345665E-07;100 nA
0,950927734375;337,668456147469;1,3519287109375E-08;0,94970703125;9;661;2,53497436642647E-07;-2,3738369345665E-07;100 nA
0,90087890625;338,168944146205;9,6435546875E-09;0,89935302734375;9;662;2,53497436642647E-07;-2,3738369345665E-07;100 nA
0,850830078125;338,669432144942;7,2021484375E-09;0,8502197265625;9;663;2,53497436642647E-07;-2,3738369345665E-07;100 nA
0,80078125;339,169920143678;5,126953125E-09;0,799560546875;9;664;2,53497436642647E-07;-2,3738369345665E-07;100 nA
0,750732421875;339,670408142415;3,47900390625E-09;0,7496337890625;9;665;2,53497436642647E-07;-2,3738369345665E-07;100 nA
0,70068359375;340,170896141151;2,3193359375E-09;0,6998291015625;9;666;2,53497436642647E-07;-2,3738369345665E-07;100 nA
0,650634765625;340,671384139887;1,556396484375E-09;0,649993896484375;9;667;2,53497436642647E-07;-2,3738369345665E-07;100 nA
0,6005859375;341,171872138624;4,57763671875E-10;0,600006103515625;9;668;2,53497436642647E-07;-2,3738369345665E-07;100 nA
0,550537109375;341,67236013736;-3,0517578125E-11;0,550048828125;9;669;2,53497436642647E-07;-2,3738369345665E-07;100 nA
0,50048828125;342,172848136097;-8,544921875E-10;0,500030517578125;9;670;2,53497436642647E-07;-2,3738369345665E-07;100 nA
0,450439453125;342,673336134833;-2,960205078125E-09;0,450103759765625;9;671;2,53497436642647E-07;-2,3738369345665E-07;100 nA
0,400390625;343,173824133569;-4,974365234375E-09;0,400146484375;9;672;2,53497436642647E-07;-2,3738369345665E-07;100 nA
0,350341796875;343,674312132306;-5,340576171875E-09;0,350128173828125;9;673;2,53497436642647E-07;-2,3738369345665E-07;100 nA
0,30029296875;344,174800131042;-4,33349609375E-09;0,30010986328125;9;674;2,53497436642647E-07;-2,3738369345665E-07;100 nA
0,250244140625;344,675288129779;-4,486083984375E-09;0,250152587890625;9;675;2,53497436642647E-07;-2,3738369345665E-07;100 nA
0,2001953125;345,175776128515;-4,7607421875E-09;0,2000732421875;9;676;2,53497436642647E-07;-2,3738369345665E-07;100 nA
0,150146484375;345,676264127251;-5,401611328125E-09;0,150146484375;9;677;2,53497436642647E-07;-2,3738369345665E-07;100 nA
0,10009765625;346,176752125988;-6,317138671875E-09;0,100128173828125;9;678;2,53497436642647E-07;-2,3738369345665E-07;100 nA
0,050048828125;346,677240124724;-7,232666015625E-09;0,0501708984375;9;679;2,53497436642647E-07;-2,3738369345665E-07;100 nA
0;347,177728123461;-8,30078125E-09;0,000131225585937506;9;680;2,53497436642647E-07;-2,3738369345665E-07;100 nA
-0,050048828125;347,678216122197;-1,03759765625E-08;-0,0497161865234375;9;681;2,53497436642647E-07;-2,3738369345665E-07;100 nA
-0,10009765625;348,178704120933;-1,171875E-08;-0,099639892578125;9;682;2,53497436642647E-07;-2,3738369345665E-07;100 nA
-0,150146484375;348,67919211967;-1,409912109375E-08;-0,1495361328125;9;683;2,53497436642647E-07;-2,3738369345665E-07;100 nA
-0,2001953125;349,179680118406;-1,6937255859375E-08;-0,19940185546875;9;684;2,53497436642647E-07;-2,3738369345665E-07;100 nA
-0,250244140625;349,680168117142;-1,483154296875E-08;-0,249298095703125;9;685;2,53497436642647E-07;-2,3738369345665E-07;100 nA
-0,30029296875;350,180656115879;-1,6204833984375E-08;-0,2991943359375;9;686;2,53497436642647E-07;-2,3738369345665E-07;100 nA
-0,350341796875;350,681144114615;-1,85546875E-08;-0,34918212890625;9;687;2,53497436642647E-07;-2,3738369345665E-07;100 nA
-0,400390625;351,181632113352;-2,069091796875E-08;-0,399078369140625;9;688;2,53497436642647E-07;-2,3738369345665E-07;100 nA
-0,450439453125;351,682120112088;-2,18505859375E-08;-0,44891357421875;9;689;2,53497436642647E-07;-2,3738369345665E-07;100 nA
-0,50048828125;352,182608110824;-2,35595703125E-08;-0,498870849609375;9;690;2,53497436642647E-07;-2,3738369345665E-07;100 nA
-0,550537109375;352,683096109561;-2,508544921875E-08;-0,548736572265625;9;691;2,53497436642647E-07;-2,3738369345665E-07;100 nA
-0,6005859375;353,183584108297;-2,7374267578125E-08;-0,598663330078125;9;692;2,53497436642647E-07;-2,3738369345665E-07;100 nA
-0,650634765625;353,684072107034;-2,8594970703125E-08;-0,648590087890625;9;693;2,53497436642647E-07;-2,3738369345665E-07;100 nA
-0,70068359375;354,18456010577;-1,995849609375E-08;-0,698577880859375;9;694;2,53497436642647E-07;-2,3738369345665E-07;100 nA
-0,750732421875;354,685048104506;-1,6448974609375E-08;-0,748565673828125;9;695;2,53497436642647E-07;-2,3738369345665E-07;100 nA
-0,80078125;355,185536103243;-1,6143798828125E-08;-0,79864501953125;9;696;2,53497436642647E-07;-2,3738369345665E-07;100 nA
-0,850830078125;355,686024101979;-1,6357421875E-08;-0,84869384765625;9;697;2,53497436642647E-07;-2,3738369345665E-07;100 nA
-0,90087890625;356,186512100716;-1,806640625E-08;-0,89874267578125;9;698;2,53497436642647E-07;-2,3738369345665E-07;100 nA
-0,950927734375;356,687000099452;-2,2186279296875E-08;-0,948486328125;9;699;2,53497436642647E-07;-2,3738369345665E-07;100 nA
-1,0009765625;357,187488098188;-2,7435302734375E-08;-0,9991455078125;9;700;2,53497436642647E-07;-2,3738369345665E-07;100 nA
-0,950927734375;357,687976096925;-1,544189453125E-08;-0,948486328125;9;701;2,53497436642647E-07;-2,3738369345665E-07;100 nA
-0,90087890625;358,188464095661;-9,27734375E-09;-0,89874267578125;9;702;2,53497436642647E-07;-2,3738369345665E-07;100 nA
-0,850830078125;358,688952094397;-6,134033203125E-09;-0,84869384765625;9;703;2,53497436642647E-07;-2,3738369345665E-07;100 nA
-0,80078125;359,189440093134;-1,129150390625E-09;-0,79864501953125;9;704;2,53497436642647E-07;-2,3738369345665E-07;100 nA
-0,750732421875;359,68992809187;3,509521484375E-09;-0,748504638671875;9;705;2,53497436642647E-07;-2,3738369345665E-07;100 nA
-0,70068359375;360,190416090607;1,46484375E-09;-0,69854736328125;9;706;2,53497436642647E-07;-2,3738369345665E-07;100 nA
-0,650634765625;360,690904089343;7,32421875E-10;-0,6485595703125;9;707;2,53497436642647E-07;-2,3738369345665E-07;100 nA
-0,6005859375;361,191392088079;-8,544921875E-10;-0,598602294921875;9;708;2,53497436642647E-07;-2,3738369345665E-07;100 nA
-0,550537109375;361,691880086816;2,50244140625E-09;-0,5487060546875;9;709;2,53497436642647E-07;-2,3738369345665E-07;100 nA
-0,50048828125;362,192368085552;4,425048828125E-09;-0,498779296875;9;710;2,53497436642647E-07;-2,3738369345665E-07;100 nA
-0,450439453125;362,692856084289;5,06591796875E-09;-0,448883056640625;9;711;2,53497436642647E-07;-2,3738369345665E-07;100 nA
-0,400390625;363,193344083025;6,622314453125E-09;-0,3990478515625;9;712;2,53497436642647E-07;-2,3738369345665E-07;100 nA
-0,350341796875;363,693832081761;8,7890625E-09;-0,349151611328125;9;713;2,53497436642647E-07;-2,3738369345665E-07;100 nA
-0,30029296875;364,194320080498;1,07421875E-08;-0,2991943359375;9;714;2,53497436642647E-07;-2,3738369345665E-07;100 nA
-0,250244140625;364,694808079234;1,3153076171875E-08;-0,24932861328125;9;715;2,53497436642647E-07;-2,3738369345665E-07;100 nA
-0,2001953125;365,195296077971;1,4404296875E-08;-0,199462890625;9;716;2,53497436642647E-07;-2,3738369345665E-07;100 nA
-0,150146484375;365,695784076707;1,6937255859375E-08;-0,149566650390625;9;717;2,53497436642647E-07;-2,3738369345665E-07;100 nA
-0,10009765625;366,196272075443;1,94091796875E-08;-0,0997314453125;9;718;2,53497436642647E-07;-2,3738369345665E-07;100 nA
-0,050048828125;366,69676007418;1,4251708984375E-08;-0,049896240234375;9;719;2,53497436642647E-07;-2,3738369345665E-07;100 nA
0;367,197248072916;1,37939453125E-08;0,000112915039062494;9;720;2,53497436642647E-07;-2,3738369345665E-07;100 nA
0,050048828125;367,697736071652;1,4617919921875E-08;0,050079345703125;10;721;2,49052792787552E-07;-2,37658619880676E-07;100 nA
0,10009765625;368,198224070389;1,519775390625E-08;0,10003662109375;10;722;2,49052792787552E-07;-2,37658619880676E-07;100 nA
0,150146484375;368,698712069125;1,5899658203125E-08;0,149932861328125;10;723;2,49052792787552E-07;-2,37658619880676E-07;100 nA
0,2001953125;369,199200067862;1,5838623046875E-08;0,199951171875;10;724;2,49052792787552E-07;-2,37658619880676E-07;100 nA
0,250244140625;369,699688066598;1,580810546875E-08;0,250030517578125;10;725;2,49052792787552E-07;-2,37658619880676E-07;100 nA
0,30029296875;370,200176065334;1,5960693359375E-08;0,300018310546875;10;726;2,49052792787552E-07;-2,37658619880676E-07;100 nA
0,350341796875;370,700664064071;1,6204833984375E-08;0,350006103515625;10;727;2,49052792787552E-07;-2,37658619880676E-07;100 nA
0,400390625;371,201152062807;1,5716552734375E-08;0,399993896484375;10;728;2,49052792787552E-07;-2,37658619880676E-07;100 nA
0,450439453125;371,701640061544;1,5533447265625E-08;0,450042724609375;10;729;2,49052792787552E-07;-2,37658619880676E-07;100 nA
0,50048828125;372,20212806028;1,507568359375E-08;0,5;10;730;2,49052792787552E-07;-2,37658619880676E-07;100 nA
0,550537109375;372,702616059016;1,5106201171875E-08;0,550018310546875;10;731;2,49052792787552E-07;-2,37658619880676E-07;100 nA
0,6005859375;373,203104057753;1,47705078125E-08;0,600006103515625;10;732;2,49052792787552E-07;-2,37658619880676E-07;100 nA
0,650634765625;373,703592056489;1,4862060546875E-08;0,6500244140625;10;733;2,49052792787552E-07;-2,37658619880676E-07;100 nA
0,70068359375;374,204080055226;1,4892578125E-08;0,699859619140625;10;734;2,49052792787552E-07;-2,37658619880676E-07;100 nA
0,750732421875;374,704568053962;1,57470703125E-08;0,749847412109375;10;735;2,49052792787552E-07;-2,37658619880676E-07;100 nA
0,80078125;375,205056052698;1,5899658203125E-08;0,799560546875;10;736;2,49052792787552E-07;-2,37658619880676E-07;100 nA
0,850830078125;375,705544051435;1,6510009765625E-08;0,84930419921875;10;737;2,49052792787552E-07;-2,37658619880676E-07;100 nA
0,90087890625;376,206032050171;1,7425537109375E-08;0,89996337890625;10;738;2,49052792787552E-07;-2,37658619880676E-07;100 nA
0,950927734375;376,706520048907;1,8798828125E-08;0,95001220703125;10;739;2,49052792787552E-07;-2,37658619880676E-07;100 nA
1,0009765625;377,207008047644;2,166748046875E-08;0,999755859375;10;740;2,49052792787552E-07;-2,37658619880676E-07;100 nA
0,950927734375;377,70749604638;1,3885498046875E-08;0,95001220703125;10;741;2,49052792787552E-07;-2,37658619880676E-07;100 nA
0,90087890625;378,207984045117;9,8876953125E-09;0,899658203125;10;742;2,49052792787552E-07;-2,37658619880676E-07;100 nA
0,850830078125;378,708472043853;7,32421875E-09;0,8502197265625;10;743;2,49052792787552E-07;-2,37658619880676E-07;100 nA
0,80078125;379,208960042589;6,072998046875E-09;0,799560546875;10;744;2,49052792787552E-07;-2,37658619880676E-07;100 nA
0,750732421875;379,709448041326;4,425048828125E-09;0,7498779296875;10;745;2,49052792787552E-07;-2,37658619880676E-07;100 nA
0,70068359375;380,209936040062;2,899169921875E-09;0,699951171875;10;746;2,49052792787552E-07;-2,37658619880676E-07;100 nA
0,650634765625;380,710424038799;1,800537109375E-09;0,65008544921875;10;747;2,49052792787552E-07;-2,37658619880676E-07;100 nA
0,6005859375;381,210912037535;8,23974609375E-10;0,60009765625;10;748;2,49052792787552E-07;-2,37658619880676E-07;100 nA
0,550537109375;381,711400036271;9,1552734375E-11;0,55010986328125;10;749;2,49052792787552E-07;-2,37658619880676E-07;100 nA
0,50048828125;382,211888035008;-1,007080078125E-09;0,5001220703125;10;750;2,49052792787552E-07;-2,37658619880676E-07;100 nA
0,450439453125;382,712376033744;-2,716064453125E-09;0,4500732421875;10;751;2,49052792787552E-07;-2,37658619880676E-07;100 nA
0,400390625;383,212864032481;-4,94384765625E-09;0,40008544921875;10;752;2,49052792787552E-07;-2,37658619880676E-07;100 nA
0,350341796875;383,713352031217;-5,401611328125E-09;0,35009765625;10;753;2,49052792787552E-07;-2,37658619880676E-07;100 nA
0,30029296875;384,213840029953;-4,669189453125E-09;0,29998779296875;10;754;2,49052792787552E-07;-2,37658619880676E-07;100 nA
0,250244140625;384,71432802869;-4,425048828125E-09;0,250030517578125;10;755;2,49052792787552E-07;-2,37658619880676E-07;100 nA
0,2001953125;385,214816027426;-4,94384765625E-09;0,200042724609375;10;756;2,49052792787552E-07;-2,37658619880676E-07;100 nA
0,150146484375;385,715304026162;-5,67626953125E-09;0,1500244140625;10;757;2,49052792787552E-07;-2,37658619880676E-07;100 nA
0,10009765625;386,215792024899;-6,65283203125E-09;0,10003662109375;10;758;2,49052792787552E-07;-2,37658619880676E-07;100 nA
0,050048828125;386,716280023635;-7,6904296875E-09;0,050018310546875;10;759;2,49052792787552E-07;-2,37658619880676E-07;100 nA
0;387,216768022372;-9,033203125E-09;0,000115966796875006;10;760;2,49052792787552E-07;-2,37658619880676E-07;100 nA
-0,050048828125;387,717256021108;-1,080322265625E-08;-0,049835205078125;10;761;2,49052792787552E-07;-2,37658619880676E-07;100 nA
-0,10009765625;388,217744019844;-1,2054443359375E-08;-0,0997314453125;10;762;2,49052792787552E-07;-2,37658619880676E-07;100 nA
-0,150146484375;388,718232018581;-1,348876953125E-08;-0,149627685546875;10;763;2,49052792787552E-07;-2,37658619880676E-07;100 nA
-0,2001953125;389,218720017317;-1,4739990234375E-08;-0,199493408203125;10;764;2,49052792787552E-07;-2,37658619880676E-07;100 nA
-0,250244140625;389,719208016054;-1,59912109375E-08;-0,249359130859375;10;765;2,49052792787552E-07;-2,37658619880676E-07;100 nA
-0,30029296875;390,21969601479;-1,7608642578125E-08;-0,2991943359375;10;766;2,49052792787552E-07;-2,37658619880676E-07;100 nA
-0,350341796875;390,720184013526;-1,910400390625E-08;-0,349212646484375;10;767;2,49052792787552E-07;-2,37658619880676E-07;100 nA
-0,400390625;391,220672012263;-2,0416259765625E-08;-0,399078369140625;10;768;2,49052792787552E-07;-2,37658619880676E-07;100 nA
-0,450439453125;391,721160010999;-2,178955078125E-08;-0,44891357421875;10;769;2,49052792787552E-07;-2,37658619880676E-07;100 nA
-0,50048828125;392,221648009736;-2,3284912109375E-08;-0,498809814453125;10;770;2,49052792787552E-07;-2,37658619880676E-07;100 nA
-0,550537109375;392,722136008472;-2,4932861328125E-08;-0,548675537109375;10;771;2,49052792787552E-07;-2,37658619880676E-07;100 nA
-0,6005859375;393,222624007208;-2,7069091796875E-08;-0,5986328125;10;772;2,49052792787552E-07;-2,37658619880676E-07;100 nA
-0,650634765625;393,723112005945;-2,813720703125E-08;-0,648468017578125;10;773;2,49052792787552E-07;-2,37658619880676E-07;100 nA
-0,70068359375;394,223600004681;-1,9927978515625E-08;-0,698516845703125;10;774;2,49052792787552E-07;-2,37658619880676E-07;100 nA
-0,750732421875;394,724088003417;-1,59912109375E-08;-0,74847412109375;10;775;2,49052792787552E-07;-2,37658619880676E-07;100 nA
-0,80078125;395,224576002154;-1,5411376953125E-08;-0,79833984375;10;776;2,49052792787552E-07;-2,37658619880676E-07;100 nA
-0,850830078125;395,72506400089;-1,568603515625E-08;-0,84869384765625;10;777;2,49052792787552E-07;-2,37658619880676E-07;100 nA
-0,90087890625;396,225551999627;-1,7486572265625E-08;-0,89813232421875;10;778;2,49052792787552E-07;-2,37658619880676E-07;100 nA
-0,950927734375;396,726039998363;-2,1759033203125E-08;-0,9490966796875;10;779;2,49052792787552E-07;-2,37658619880676E-07;100 nA
-1,0009765625;397,226527997099;-2,764892578125E-08;-0,99853515625;10;780;2,49052792787552E-07;-2,37658619880676E-07;100 nA
-0,950927734375;397,727015995836;-1,5655517578125E-08;-0,9490966796875;10;781;2,49052792787552E-07;-2,37658619880676E-07;100 nA
-0,90087890625;398,227503994572;-9,3994140625E-09;-0,89874267578125;10;782;2,49052792787552E-07;-2,37658619880676E-07;100 nA
-0,850830078125;398,727991993309;-5,37109375E-09;-0,84869384765625;10;783;2,49052792787552E-07;-2,37658619880676E-07;100 nA
-0,80078125;399,228479992045;-2,8076171875E-09;-0,7989501953125;10;784;2,49052792787552E-07;-2,37658619880676E-07;100 nA
-0,750732421875;399,728967990781;-1,129150390625E-09;-0,74859619140625;10;785;2,49052792787552E-07;-2,37658619880676E-07;100 nA
-0,70068359375;400,229455989518;1,220703125E-10;-0,6986083984375;10;786;2,49052792787552E-07;-2,37658619880676E-07;100 nA
-0,650634765625;400,729943988254;1,0986328125E-09;-0,64862060546875;10;787;2,49052792787552E-07;-2,37658619880676E-07;100 nA
-0,6005859375;401,230431986991;1,64794921875E-09;-0,598663330078125;10;788;2,49052792787552E-07;-2,37658619880676E-07;100 nA
-0,550537109375;401,730919985727;2,44140625E-09;-0,548736572265625;10;789;2,49052792787552E-07;-2,37658619880676E-07;100 nA
-0,50048828125;402,231407984463;3,021240234375E-09;-0,4989013671875;10;790;2,49052792787552E-07;-2,37658619880676E-07;100 nA
-0,450439453125;402,7318959832;3,997802734375E-09;-0,449066162109375;10;791;2,49052792787552E-07;-2,37658619880676E-07;100 nA
-0,400390625;403,232383981936;5,92041015625E-09;-0,39923095703125;10;792;2,49052792787552E-07;-2,37658619880676E-07;100 nA
-0,350341796875;403,732871980672;8,514404296875E-09;-0,34930419921875;10;793;2,49052792787552E-07;-2,37658619880676E-07;100 nA
-0,30029296875;404,233359979409;1,116943359375E-08;-0,29937744140625;10;794;2,49052792787552E-07;-2,37658619880676E-07;100 nA
-0,250244140625;404,733847978145;1,3031005859375E-08;-0,24945068359375;10;795;2,49052792787552E-07;-2,37658619880676E-07;100 nA
-0,2001953125;405,234335976882;1,4862060546875E-08;-0,19952392578125;10;796;2,49052792787552E-07;-2,37658619880676E-07;100 nA
-0,150146484375;405,734823975618;1,318359375E-08;-0,14959716796875;10;797;2,49052792787552E-07;-2,37658619880676E-07;100 nA
-0,10009765625;406,235311974354;1,7242431640625E-08;-0,099700927734375;10;798;2,49052792787552E-07;-2,37658619880676E-07;100 nA
-0,050048828125;406,735799973091;1,348876953125E-08;-0,0498046875;10;799;2,49052792787552E-07;-2,37658619880676E-07;100 nA
0;407,236287971827;1,9134521484375E-08;0,000119018554687503;10;800;2,49052792787552E-07;-2,37658619880676E-07;100 nA
