Potential applied (V);Time (s);WE(1).Current (A);WE(1).Potential (V);Scan;Index;Q+;Q-;Current range
0,050048828125;7,34201798146319;7,598876953125E-09;0,05010986328125;1;1;2,88642197847366E-07;-3,40358912944794E-07;100 nA
0,10009765625;7,84250598019958;1,1138916015625E-08;0,10009765625;1;2;2,88642197847366E-07;-3,40358912944794E-07;100 nA
0,150146484375;8,34299397893597;1,3763427734375E-08;0,150054931640625;1;3;2,88642197847366E-07;-3,40358912944794E-07;100 nA
0,2001953125;8,84348197767235;1,5625E-08;0,20001220703125;1;4;2,88642197847366E-07;-3,40358912944794E-07;100 nA
0,250244140625;9,34396997640874;1,7059326171875E-08;0,249969482421875;1;5;2,88642197847366E-07;-3,40358912944794E-07;100 nA
0,30029296875;9,84445797514513;1,7822265625E-08;0,300018310546875;1;6;2,88642197847366E-07;-3,40358912944794E-07;100 nA
0,350341796875;10,3449459738815;1,84326171875E-08;0,350067138671875;1;7;2,88642197847366E-07;-3,40358912944794E-07;100 nA
0,400390625;10,8454339726179;1,837158203125E-08;0,400054931640625;1;8;2,88642197847366E-07;-3,40358912944794E-07;100 nA
0,450439453125;11,3459219713543;1,806640625E-08;0,45001220703125;1;9;2,88642197847366E-07;-3,40358912944794E-07;100 nA
0,50048828125;11,8464099700907;1,806640625E-08;0,500030517578125;1;10;2,88642197847366E-07;-3,40358912944794E-07;100 nA
0,550537109375;12,3468979688271;1,7974853515625E-08;0,550079345703125;1;11;2,88642197847366E-07;-3,40358912944794E-07;100 nA
0,6005859375;12,8473859675635;1,904296875E-08;0,600006103515625;1;12;2,88642197847366E-07;-3,40358912944794E-07;100 nA
0,650634765625;13,3478739662999;1,904296875E-08;0,649932861328125;1;13;2,88642197847366E-07;-3,40358912944794E-07;100 nA
0,70068359375;13,8483619650362;1,904296875E-08;0,699859619140625;1;14;2,88642197847366E-07;-3,40358912944794E-07;100 nA
0,750732421875;14,3488499637726;1,9134521484375E-08;0,749755859375;1;15;2,88642197847366E-07;-3,40358912944794E-07;100 nA
0,80078125;14,849337962509;1,9775390625E-08;0,79986572265625;1;16;2,88642197847366E-07;-3,40358912944794E-07;100 nA
0,850830078125;15,3498259612454;2,032470703125E-08;0,84991455078125;1;17;2,88642197847366E-07;-3,40358912944794E-07;100 nA
0,90087890625;15,8503139599818;2,0721435546875E-08;0,9002685546875;1;18;2,88642197847366E-07;-3,40358912944794E-07;100 nA
0,950927734375;16,3508019587182;2,1636962890625E-08;0,94940185546875;1;19;2,88642197847366E-07;-3,40358912944794E-07;100 nA
1,0009765625;16,8512899574546;2,23388671875E-08;0,99945068359375;1;20;2,88642197847366E-07;-3,40358912944794E-07;100 nA
0,950927734375;17,351777956191;1,470947265625E-08;0,95001220703125;1;21;2,88642197847366E-07;-3,40358912944794E-07;100 nA
0,90087890625;17,8522659549274;1,0986328125E-08;0,89935302734375;1;22;2,88642197847366E-07;-3,40358912944794E-07;100 nA
0,850830078125;18,3527539536638;8,23974609375E-09;0,84930419921875;1;23;2,88642197847366E-07;-3,40358912944794E-07;100 nA
0,80078125;18,8532419524001;6,011962890625E-09;0,79925537109375;1;24;2,88642197847366E-07;-3,40358912944794E-07;100 nA
0,750732421875;19,3537299511365;4,669189453125E-09;0,749786376953125;1;25;2,88642197847366E-07;-3,40358912944794E-07;100 nA
0,70068359375;19,8542179498729;2,899169921875E-09;0,69989013671875;1;26;2,88642197847366E-07;-3,40358912944794E-07;100 nA
0,650634765625;20,3547059486093;9,1552734375E-10;0,6500244140625;1;27;2,88642197847366E-07;-3,40358912944794E-07;100 nA
0,6005859375;20,8551939473457;-2,38037109375E-09;0,60003662109375;1;28;2,88642197847366E-07;-3,40358912944794E-07;100 nA
0,550537109375;21,3556819460821;-3,997802734375E-09;0,550079345703125;1;29;2,88642197847366E-07;-3,40358912944794E-07;100 nA
0,50048828125;21,8561699448185;-3,326416015625E-09;0,500091552734375;1;30;2,88642197847366E-07;-3,40358912944794E-07;100 nA
0,450439453125;22,3566579435549;-4,425048828125E-09;0,450103759765625;1;31;2,88642197847366E-07;-3,40358912944794E-07;100 nA
0,400390625;22,8571459422913;-6,89697265625E-09;0,40008544921875;1;32;2,88642197847366E-07;-3,40358912944794E-07;100 nA
0,350341796875;23,3576339410276;-9,6435546875E-09;0,35009765625;1;33;2,88642197847366E-07;-3,40358912944794E-07;100 nA
0,30029296875;23,858121939764;-1,3397216796875E-08;0,300140380859375;1;34;2,88642197847366E-07;-3,40358912944794E-07;100 nA
0,250244140625;24,3586099385004;-1,6937255859375E-08;0,25018310546875;1;35;2,88642197847366E-07;-3,40358912944794E-07;100 nA
0,2001953125;24,8590979372368;-1,9775390625E-08;0,200103759765625;1;36;2,88642197847366E-07;-3,40358912944794E-07;100 nA
0,150146484375;25,3595859359732;-2,239990234375E-08;0,150146484375;1;37;2,88642197847366E-07;-3,40358912944794E-07;100 nA
0,10009765625;25,8600739347096;-2,4169921875E-08;0,100128173828125;1;38;2,88642197847366E-07;-3,40358912944794E-07;100 nA
0,050048828125;26,360561933446;-2,5238037109375E-08;0,05010986328125;1;39;2,88642197847366E-07;-3,40358912944794E-07;100 nA
0;26,8610499321824;-2,5634765625E-08;0,000119018554687503;1;40;2,88642197847366E-07;-3,40358912944794E-07;100 nA
-0,050048828125;27,3615379309188;-2,55126953125E-08;-0,0497039794921875;1;41;2,88642197847366E-07;-3,40358912944794E-07;100 nA
-0,10009765625;27,8620259296551;-2,55126953125E-08;-0,09967041015625;1;42;2,88642197847366E-07;-3,40358912944794E-07;100 nA
-0,150146484375;28,3625139283915;-2,5787353515625E-08;-0,149566650390625;1;43;2,88642197847366E-07;-3,40358912944794E-07;100 nA
-0,2001953125;28,8630019271279;-2,6153564453125E-08;-0,199432373046875;1;44;2,88642197847366E-07;-3,40358912944794E-07;100 nA
-0,250244140625;29,3634899258643;-2,6702880859375E-08;-0,249237060546875;1;45;2,88642197847366E-07;-3,40358912944794E-07;100 nA
-0,30029296875;29,8639779246007;-2,7801513671875E-08;-0,29925537109375;1;46;2,88642197847366E-07;-3,40358912944794E-07;100 nA
-0,350341796875;30,3644659233371;-3,0059814453125E-08;-0,349151611328125;1;47;2,88642197847366E-07;-3,40358912944794E-07;100 nA
-0,400390625;30,8649539220735;-3,06396484375E-08;-0,399017333984375;1;48;2,88642197847366E-07;-3,40358912944794E-07;100 nA
-0,450439453125;31,3654419208099;-1,7059326171875E-08;-0,448883056640625;1;49;2,88642197847366E-07;-3,40358912944794E-07;100 nA
-0,50048828125;31,8659299195463;-1,4495849609375E-08;-0,498809814453125;1;50;2,88642197847366E-07;-3,40358912944794E-07;100 nA
-0,550537109375;32,3664179182827;-1,4129638671875E-08;-0,5487060546875;1;51;2,88642197847366E-07;-3,40358912944794E-07;100 nA
-0,6005859375;32,866905917019;-1,397705078125E-08;-0,598541259765625;1;52;2,88642197847366E-07;-3,40358912944794E-07;100 nA
-0,650634765625;33,3673939157554;-1,409912109375E-08;-0,648468017578125;1;53;2,88642197847366E-07;-3,40358912944794E-07;100 nA
-0,70068359375;33,8678819144918;-1,3916015625E-08;-0,69854736328125;1;54;2,88642197847366E-07;-3,40358912944794E-07;100 nA
-0,750732421875;34,3683699132282;-1,4068603515625E-08;-0,74853515625;1;55;2,88642197847366E-07;-3,40358912944794E-07;100 nA
-0,80078125;34,8688579119646;-1,5289306640625E-08;-0,79833984375;1;56;2,88642197847366E-07;-3,40358912944794E-07;100 nA
-0,850830078125;35,369345910701;-1,812744140625E-08;-0,84930419921875;1;57;2,88642197847366E-07;-3,40358912944794E-07;100 nA
-0,90087890625;35,8698339094374;-2,3040771484375E-08;-0,89874267578125;1;58;2,88642197847366E-07;-3,40358912944794E-07;100 nA
-0,950927734375;36,3703219081738;-3,131103515625E-08;-0,948486328125;1;59;2,88642197847366E-07;-3,40358912944794E-07;100 nA
-1,0009765625;36,8708099069102;-4,266357421875E-08;-0,99884033203125;1;60;2,88642197847366E-07;-3,40358912944794E-07;100 nA
-0,950927734375;37,3712979056465;-2,227783203125E-08;-0,94879150390625;1;61;2,88642197847366E-07;-3,40358912944794E-07;100 nA
-0,90087890625;37,8717859043829;-1,226806640625E-08;-0,8984375;1;62;2,88642197847366E-07;-3,40358912944794E-07;100 nA
-0,850830078125;38,3722739031193;-7,14111328125E-09;-0,84869384765625;1;63;2,88642197847366E-07;-3,40358912944794E-07;100 nA
-0,80078125;38,8727619018557;-4,669189453125E-09;-0,7989501953125;1;64;2,88642197847366E-07;-3,40358912944794E-07;100 nA
-0,750732421875;39,3732499005921;-3,0517578125E-09;-0,748626708984375;1;65;2,88642197847366E-07;-3,40358912944794E-07;100 nA
-0,70068359375;39,8737378993285;-1,77001953125E-09;-0,698577880859375;1;66;2,88642197847366E-07;-3,40358912944794E-07;100 nA
-0,650634765625;40,3742258980649;-3,0517578125E-10;-0,648590087890625;1;67;2,88642197847366E-07;-3,40358912944794E-07;100 nA
-0,6005859375;40,8747138968013;5,79833984375E-10;-0,598602294921875;1;68;2,88642197847366E-07;-3,40358912944794E-07;100 nA
-0,550537109375;41,3752018955377;1,15966796875E-09;-0,548828125;1;69;2,88642197847366E-07;-3,40358912944794E-07;100 nA
-0,50048828125;41,875689894274;1,861572265625E-09;-0,4989013671875;1;70;2,88642197847366E-07;-3,40358912944794E-07;100 nA
-0,450439453125;42,3761778930104;2,899169921875E-09;-0,448974609375;1;71;2,88642197847366E-07;-3,40358912944794E-07;100 nA
-0,400390625;42,8766658917468;4,94384765625E-09;-0,399078369140625;1;72;2,88642197847366E-07;-3,40358912944794E-07;100 nA
-0,350341796875;43,3771538904832;1,025390625E-08;-0,3492431640625;1;73;2,88642197847366E-07;-3,40358912944794E-07;100 nA
-0,30029296875;43,8776418892196;1,9683837890625E-08;-0,29931640625;1;74;2,88642197847366E-07;-3,40358912944794E-07;100 nA
-0,250244140625;44,378129887956;2,520751953125E-08;-0,24951171875;1;75;2,88642197847366E-07;-3,40358912944794E-07;100 nA
-0,2001953125;44,8786178866924;2,288818359375E-08;-0,199615478515625;1;76;2,88642197847366E-07;-3,40358912944794E-07;100 nA
-0,150146484375;45,3791058854288;2,1026611328125E-08;-0,149810791015625;1;77;2,88642197847366E-07;-3,40358912944794E-07;100 nA
-0,10009765625;45,8795938841652;2,0538330078125E-08;-0,099853515625;1;78;2,88642197847366E-07;-3,40358912944794E-07;100 nA
-0,050048828125;46,3800818829016;2,0721435546875E-08;-0,049957275390625;1;79;2,88642197847366E-07;-3,40358912944794E-07;100 nA
0;46,8805698816379;2,154541015625E-08;0,000109863281249997;1;80;2,88642197847366E-07;-3,40358912944794E-07;100 nA
0,050048828125;47,3810578803743;2,301025390625E-08;0,050128173828125;2;81;3,43413650989532E-07;-3,32752615213394E-07;100 nA
0,10009765625;47,8815458791107;2,349853515625E-08;0,0999755859375;2;82;3,43413650989532E-07;-3,32752615213394E-07;100 nA
0,150146484375;48,3820338778471;2,3681640625E-08;0,149932861328125;2;83;3,43413650989532E-07;-3,32752615213394E-07;100 nA
0,2001953125;48,8825218765835;2,3956298828125E-08;0,199981689453125;2;84;3,43413650989532E-07;-3,32752615213394E-07;100 nA
0,250244140625;49,3830098753199;2,3956298828125E-08;0,250030517578125;2;85;3,43413650989532E-07;-3,32752615213394E-07;100 nA
0,30029296875;49,8834978740563;2,3590087890625E-08;0,29998779296875;2;86;3,43413650989532E-07;-3,32752615213394E-07;100 nA
0,350341796875;50,3839858727927;2,2979736328125E-08;0,35003662109375;2;87;3,43413650989532E-07;-3,32752615213394E-07;100 nA
0,400390625;50,8844738715291;2,2247314453125E-08;0,400054931640625;2;88;3,43413650989532E-07;-3,32752615213394E-07;100 nA
0,450439453125;51,3849618702654;2,1484375E-08;0,450042724609375;2;89;3,43413650989532E-07;-3,32752615213394E-07;100 nA
0,50048828125;51,8854498690018;2,0721435546875E-08;0,500030517578125;2;90;3,43413650989532E-07;-3,32752615213394E-07;100 nA
0,550537109375;52,3859378677382;2,093505859375E-08;0,550079345703125;2;91;3,43413650989532E-07;-3,32752615213394E-07;100 nA
0,6005859375;52,8864258664746;2,1759033203125E-08;0,60009765625;2;92;3,43413650989532E-07;-3,32752615213394E-07;100 nA
0,650634765625;53,386913865211;2,11181640625E-08;0,649993896484375;2;93;3,43413650989532E-07;-3,32752615213394E-07;100 nA
0,70068359375;53,8874018639474;2,081298828125E-08;0,699920654296875;2;94;3,43413650989532E-07;-3,32752615213394E-07;100 nA
0,750732421875;54,3878898626838;2,0965576171875E-08;0,74981689453125;2;95;3,43413650989532E-07;-3,32752615213394E-07;100 nA
0,80078125;54,8883778614202;2,13623046875E-08;0,8001708984375;2;96;3,43413650989532E-07;-3,32752615213394E-07;100 nA
0,850830078125;55,3888658601566;2,18505859375E-08;0,849609375;2;97;3,43413650989532E-07;-3,32752615213394E-07;100 nA
0,90087890625;55,8893538588929;2,2430419921875E-08;0,89996337890625;2;98;3,43413650989532E-07;-3,32752615213394E-07;100 nA
0,950927734375;56,3898418576293;2,3223876953125E-08;0,94970703125;2;99;3,43413650989532E-07;-3,32752615213394E-07;100 nA
1,0009765625;56,8903298563657;2,386474609375E-08;0,999755859375;2;100;3,43413650989532E-07;-3,32752615213394E-07;100 nA
0,950927734375;57,3908178551021;1,6357421875E-08;0,94940185546875;2;101;3,43413650989532E-07;-3,32752615213394E-07;100 nA
0,90087890625;57,8913058538385;1,226806640625E-08;0,899658203125;2;102;3,43413650989532E-07;-3,32752615213394E-07;100 nA
0,850830078125;58,3917938525749;9,521484375E-09;0,85052490234375;2;103;3,43413650989532E-07;-3,32752615213394E-07;100 nA
0,80078125;58,8922818513113;7,32421875E-09;0,80047607421875;2;104;3,43413650989532E-07;-3,32752615213394E-07;100 nA
0,750732421875;59,3927698500477;5,9814453125E-09;0,74993896484375;2;105;3,43413650989532E-07;-3,32752615213394E-07;100 nA
0,70068359375;59,8932578487841;4,547119140625E-09;0,699981689453125;2;106;3,43413650989532E-07;-3,32752615213394E-07;100 nA
0,650634765625;60,3937458475204;1,983642578125E-09;0,65008544921875;2;107;3,43413650989532E-07;-3,32752615213394E-07;100 nA
0,6005859375;60,8942338462568;-1,0986328125E-09;0,600128173828125;2;108;3,43413650989532E-07;-3,32752615213394E-07;100 nA
0,550537109375;61,3947218449932;-3,387451171875E-09;0,550140380859375;2;109;3,43413650989532E-07;-3,32752615213394E-07;100 nA
0,50048828125;61,8952098437296;-2,532958984375E-09;0,5001220703125;2;110;3,43413650989532E-07;-3,32752615213394E-07;100 nA
0,450439453125;62,395697842466;-3,387451171875E-09;0,450225830078125;2;111;3,43413650989532E-07;-3,32752615213394E-07;100 nA
0,400390625;62,8961858412024;-5,55419921875E-09;0,400177001953125;2;112;3,43413650989532E-07;-3,32752615213394E-07;100 nA
0,350341796875;63,3966738399388;-8,544921875E-09;0,350128173828125;2;113;3,43413650989532E-07;-3,32752615213394E-07;100 nA
0,30029296875;63,8971618386752;-1,214599609375E-08;0,300079345703125;2;114;3,43413650989532E-07;-3,32752615213394E-07;100 nA
0,250244140625;64,3976498374116;-1,5716552734375E-08;0,2501220703125;2;115;3,43413650989532E-07;-3,32752615213394E-07;100 nA
0,2001953125;64,898137836148;-1,9012451171875E-08;0,200164794921875;2;116;3,43413650989532E-07;-3,32752615213394E-07;100 nA
0,150146484375;65,3986258348843;-2,18505859375E-08;0,150115966796875;2;117;3,43413650989532E-07;-3,32752615213394E-07;100 nA
0,10009765625;65,8991138336207;-2,40478515625E-08;0,100067138671875;2;118;3,43413650989532E-07;-3,32752615213394E-07;100 nA
0,050048828125;66,3996018323571;-2,545166015625E-08;0,05010986328125;2;119;3,43413650989532E-07;-3,32752615213394E-07;100 nA
0;66,9000898310935;-2,6153564453125E-08;0,0001220703125;2;120;3,43413650989532E-07;-3,32752615213394E-07;100 nA
-0,050048828125;67,4005778298299;-2,62451171875E-08;-0,049774169921875;2;121;3,43413650989532E-07;-3,32752615213394E-07;100 nA
-0,10009765625;67,9010658285663;-2,6123046875E-08;-0,099700927734375;2;122;3,43413650989532E-07;-3,32752615213394E-07;100 nA
-0,150146484375;68,4015538273027;-2,60009765625E-08;-0,14959716796875;2;123;3,43413650989532E-07;-3,32752615213394E-07;100 nA
-0,2001953125;68,9020418260391;-2,6123046875E-08;-0,19940185546875;2;124;3,43413650989532E-07;-3,32752615213394E-07;100 nA
-0,250244140625;69,4025298247755;-2,6641845703125E-08;-0,249359130859375;2;125;3,43413650989532E-07;-3,32752615213394E-07;100 nA
-0,30029296875;69,9030178235118;-2,777099609375E-08;-0,29931640625;2;126;3,43413650989532E-07;-3,32752615213394E-07;100 nA
-0,350341796875;70,4035058222482;-3,0181884765625E-08;-0,3492431640625;2;127;3,43413650989532E-07;-3,32752615213394E-07;100 nA
-0,400390625;70,9039938209846;-3,0426025390625E-08;-0,3990478515625;2;128;3,43413650989532E-07;-3,32752615213394E-07;100 nA
-0,450439453125;71,404481819721;-1,72119140625E-08;-0,448974609375;2;129;3,43413650989532E-07;-3,32752615213394E-07;100 nA
-0,50048828125;71,9049698184574;-1,4617919921875E-08;-0,498779296875;2;130;3,43413650989532E-07;-3,32752615213394E-07;100 nA
-0,550537109375;72,4054578171938;-1,4190673828125E-08;-0,54876708984375;2;131;3,43413650989532E-07;-3,32752615213394E-07;100 nA
-0,6005859375;72,9059458159302;-1,409912109375E-08;-0,598663330078125;2;132;3,43413650989532E-07;-3,32752615213394E-07;100 nA
-0,650634765625;73,4064338146666;-1,385498046875E-08;-0,64862060546875;2;133;3,43413650989532E-07;-3,32752615213394E-07;100 nA
-0,70068359375;73,906921813403;-1,3580322265625E-08;-0,6986083984375;2;134;3,43413650989532E-07;-3,32752615213394E-07;100 nA
-0,750732421875;74,4074098121393;-1,3885498046875E-08;-0,748626708984375;2;135;3,43413650989532E-07;-3,32752615213394E-07;100 nA
-0,80078125;74,9078978108757;-1,4678955078125E-08;-0,79833984375;2;136;3,43413650989532E-07;-3,32752615213394E-07;100 nA
-0,850830078125;75,4083858096121;-1,727294921875E-08;-0,84869384765625;2;137;3,43413650989532E-07;-3,32752615213394E-07;100 nA
-0,90087890625;75,9088738083485;-2,2247314453125E-08;-0,8984375;2;138;3,43413650989532E-07;-3,32752615213394E-07;100 nA
-0,950927734375;76,4093618070849;-3,033447265625E-08;-0,94879150390625;2;139;3,43413650989532E-07;-3,32752615213394E-07;100 nA
-1,0009765625;76,9098498058213;-4,193115234375E-08;-0,9991455078125;2;140;3,43413650989532E-07;-3,32752615213394E-07;100 nA
-0,950927734375;77,4103378045577;-2,1514892578125E-08;-0,94879150390625;2;141;3,43413650989532E-07;-3,32752615213394E-07;100 nA
-0,90087890625;77,9108258032941;-1,1688232421875E-08;-0,89813232421875;2;142;3,43413650989532E-07;-3,32752615213394E-07;100 nA
-0,850830078125;78,4113138020305;-6,7138671875E-09;-0,8489990234375;2;143;3,43413650989532E-07;-3,32752615213394E-07;100 nA
-0,80078125;78,9118018007669;-4,33349609375E-09;-0,7989501953125;2;144;3,43413650989532E-07;-3,32752615213394E-07;100 nA
-0,750732421875;79,4122897995032;-2,8076171875E-09;-0,74859619140625;2;145;3,43413650989532E-07;-3,32752615213394E-07;100 nA
-0,70068359375;79,9127777982396;-1,46484375E-09;-0,69854736328125;2;146;3,43413650989532E-07;-3,32752615213394E-07;100 nA
-0,650634765625;80,413265796976;-3,0517578125E-11;-0,648529052734375;2;147;3,43413650989532E-07;-3,32752615213394E-07;100 nA
-0,6005859375;80,9137537957124;8,23974609375E-10;-0,5986328125;2;148;3,43413650989532E-07;-3,32752615213394E-07;100 nA
-0,550537109375;81,4142417944488;1,434326171875E-09;-0,54876708984375;2;149;3,43413650989532E-07;-3,32752615213394E-07;100 nA
-0,50048828125;81,9147297931852;2,227783203125E-09;-0,49884033203125;2;150;3,43413650989532E-07;-3,32752615213394E-07;100 nA
-0,450439453125;82,4152177919216;3,204345703125E-09;-0,44891357421875;2;151;3,43413650989532E-07;-3,32752615213394E-07;100 nA
-0,400390625;82,915705790658;5,340576171875E-09;-0,39910888671875;2;152;3,43413650989532E-07;-3,32752615213394E-07;100 nA
-0,350341796875;83,4161937893944;1,0833740234375E-08;-0,34918212890625;2;153;3,43413650989532E-07;-3,32752615213394E-07;100 nA
-0,30029296875;83,9166817881307;2,0263671875E-08;-0,29925537109375;2;154;3,43413650989532E-07;-3,32752615213394E-07;100 nA
-0,250244140625;84,4171697868671;2,5970458984375E-08;-0,2493896484375;2;155;3,43413650989532E-07;-3,32752615213394E-07;100 nA
-0,2001953125;84,9176577856035;2,3590087890625E-08;-0,199432373046875;2;156;3,43413650989532E-07;-3,32752615213394E-07;100 nA
-0,150146484375;85,4181457843399;2,1759033203125E-08;-0,149566650390625;2;157;3,43413650989532E-07;-3,32752615213394E-07;100 nA
-0,10009765625;85,9186337830763;2,1270751953125E-08;-0,099609375;2;158;3,43413650989532E-07;-3,32752615213394E-07;100 nA
-0,050048828125;86,4191217818127;2,1484375E-08;-0,049774169921875;2;159;3,43413650989532E-07;-3,32752615213394E-07;100 nA
0;86,9196097805491;2,252197265625E-08;0,000152587890625;2;160;3,43413650989532E-07;-3,32752615213394E-07;100 nA
0,050048828125;87,4200977792855;2,3712158203125E-08;0,050140380859375;3;161;3,44711914658546E-07;-3,28827276825905E-07;100 nA
0,10009765625;87,9205857780219;2,4261474609375E-08;0,100128173828125;3;162;3,44711914658546E-07;-3,28827276825905E-07;100 nA
0,150146484375;88,4210737767582;2,4383544921875E-08;0,150115966796875;3;163;3,44711914658546E-07;-3,28827276825905E-07;100 nA
0,2001953125;88,9215617754946;2,45361328125E-08;0,200103759765625;3;164;3,44711914658546E-07;-3,28827276825905E-07;100 nA
0,250244140625;89,422049774231;2,4383544921875E-08;0,250152587890625;3;165;3,44711914658546E-07;-3,28827276825905E-07;100 nA
0,30029296875;89,9225377729674;2,3956298828125E-08;0,300140380859375;3;166;3,44711914658546E-07;-3,28827276825905E-07;100 nA
0,350341796875;90,4230257717038;2,3406982421875E-08;0,350128173828125;3;167;3,44711914658546E-07;-3,28827276825905E-07;100 nA
0,400390625;90,9235137704402;2,2552490234375E-08;0,400115966796875;3;168;3,44711914658546E-07;-3,28827276825905E-07;100 nA
0,450439453125;91,4240017691766;2,1636962890625E-08;0,450103759765625;3;169;3,44711914658546E-07;-3,28827276825905E-07;100 nA
0,50048828125;91,924489767913;2,1026611328125E-08;0,500091552734375;3;170;3,44711914658546E-07;-3,28827276825905E-07;100 nA
0,550537109375;92,4249777666494;2,1148681640625E-08;0,550140380859375;3;171;3,44711914658546E-07;-3,28827276825905E-07;100 nA
0,6005859375;92,9254657653858;2,1759033203125E-08;0,600006103515625;3;172;3,44711914658546E-07;-3,28827276825905E-07;100 nA
0,650634765625;93,4259537641221;2,1087646484375E-08;0,649993896484375;3;173;3,44711914658546E-07;-3,28827276825905E-07;100 nA
0,70068359375;93,9264417628585;2,0782470703125E-08;0,6998291015625;3;174;3,44711914658546E-07;-3,28827276825905E-07;100 nA
0,750732421875;94,4269297615949;2,0843505859375E-08;0,749786376953125;3;175;3,44711914658546E-07;-3,28827276825905E-07;100 nA
0,80078125;94,9274177603313;2,11181640625E-08;0,8001708984375;3;176;3,44711914658546E-07;-3,28827276825905E-07;100 nA
0,850830078125;95,4279057590677;2,1636962890625E-08;0,84991455078125;3;177;3,44711914658546E-07;-3,28827276825905E-07;100 nA
0,90087890625;95,9283937578041;2,2216796875E-08;0,89935302734375;3;178;3,44711914658546E-07;-3,28827276825905E-07;100 nA
0,950927734375;96,4288817565405;2,288818359375E-08;0,95001220703125;3;179;3,44711914658546E-07;-3,28827276825905E-07;100 nA
1,0009765625;96,9293697552769;2,3651123046875E-08;0,9991455078125;3;180;3,44711914658546E-07;-3,28827276825905E-07;100 nA
0,950927734375;97,4298577540133;1,62353515625E-08;0,94940185546875;3;181;3,44711914658546E-07;-3,28827276825905E-07;100 nA
0,90087890625;97,9303457527496;1,20849609375E-08;0,899658203125;3;182;3,44711914658546E-07;-3,28827276825905E-07;100 nA
0,850830078125;98,430833751486;9,3994140625E-09;0,84991455078125;3;183;3,44711914658546E-07;-3,28827276825905E-07;100 nA
0,80078125;98,9313217502224;7,2021484375E-09;0,8001708984375;3;184;3,44711914658546E-07;-3,28827276825905E-07;100 nA
0,750732421875;99,4318097489588;5,645751953125E-09;0,749786376953125;3;185;3,44711914658546E-07;-3,28827276825905E-07;100 nA
0,70068359375;99,9322977476952;3,84521484375E-09;0,69989013671875;3;186;3,44711914658546E-07;-3,28827276825905E-07;100 nA
0,650634765625;100,432785746432;1,983642578125E-09;0,6500244140625;3;187;3,44711914658546E-07;-3,28827276825905E-07;100 nA
0,6005859375;100,933273745168;-1,708984375E-09;0,60003662109375;3;188;3,44711914658546E-07;-3,28827276825905E-07;100 nA
0,550537109375;101,433761743904;-3,60107421875E-09;0,550018310546875;3;189;3,44711914658546E-07;-3,28827276825905E-07;100 nA
0,50048828125;101,934249742641;-2,960205078125E-09;0,500030517578125;3;190;3,44711914658546E-07;-3,28827276825905E-07;100 nA
0,450439453125;102,434737741377;-3,692626953125E-09;0,449981689453125;3;191;3,44711914658546E-07;-3,28827276825905E-07;100 nA
0,400390625;102,935225740114;-5,706787109375E-09;0,4000244140625;3;192;3,44711914658546E-07;-3,28827276825905E-07;100 nA
0,350341796875;103,43571373885;-8,636474609375E-09;0,35003662109375;3;193;3,44711914658546E-07;-3,28827276825905E-07;100 nA
0,30029296875;103,936201737586;-1,2115478515625E-08;0,29998779296875;3;194;3,44711914658546E-07;-3,28827276825905E-07;100 nA
0,250244140625;104,436689736323;-1,5838623046875E-08;0,25;3;195;3,44711914658546E-07;-3,28827276825905E-07;100 nA
0,2001953125;104,937177735059;-1,9073486328125E-08;0,20001220703125;3;196;3,44711914658546E-07;-3,28827276825905E-07;100 nA
0,150146484375;105,437665733795;-2,1942138671875E-08;0,15008544921875;3;197;3,44711914658546E-07;-3,28827276825905E-07;100 nA
0,10009765625;105,938153732532;-2,40478515625E-08;0,10009765625;3;198;3,44711914658546E-07;-3,28827276825905E-07;100 nA
0,050048828125;106,438641731268;-2,5421142578125E-08;0,0501708984375;3;199;3,44711914658546E-07;-3,28827276825905E-07;100 nA
0;106,939129730005;-2,6092529296875E-08;0,000131225585937506;3;200;3,44711914658546E-07;-3,28827276825905E-07;100 nA
-0,050048828125;107,439617728741;-2,6153564453125E-08;-0,04971923828125;3;201;3,44711914658546E-07;-3,28827276825905E-07;100 nA
-0,10009765625;107,940105727477;-2,593994140625E-08;-0,09967041015625;3;202;3,44711914658546E-07;-3,28827276825905E-07;100 nA
-0,150146484375;108,440593726214;-2,581787109375E-08;-0,1495361328125;3;203;3,44711914658546E-07;-3,28827276825905E-07;100 nA
-0,2001953125;108,94108172495;-2,587890625E-08;-0,199432373046875;3;204;3,44711914658546E-07;-3,28827276825905E-07;100 nA
-0,250244140625;109,441569723687;-2,6397705078125E-08;-0,249298095703125;3;205;3,44711914658546E-07;-3,28827276825905E-07;100 nA
-0,30029296875;109,942057722423;-2,7435302734375E-08;-0,299163818359375;3;206;3,44711914658546E-07;-3,28827276825905E-07;100 nA
-0,350341796875;110,442545721159;-2,9754638671875E-08;-0,349090576171875;3;207;3,44711914658546E-07;-3,28827276825905E-07;100 nA
-0,400390625;110,943033719896;-3,0181884765625E-08;-0,399017333984375;3;208;3,44711914658546E-07;-3,28827276825905E-07;100 nA
-0,450439453125;111,443521718632;-1,6998291015625E-08;-0,448883056640625;3;209;3,44711914658546E-07;-3,28827276825905E-07;100 nA
-0,50048828125;111,944009717369;-1,42822265625E-08;-0,498809814453125;3;210;3,44711914658546E-07;-3,28827276825905E-07;100 nA
-0,550537109375;112,444497716105;-1,3763427734375E-08;-0,548675537109375;3;211;3,44711914658546E-07;-3,28827276825905E-07;100 nA
-0,6005859375;112,944985714841;-1,3397216796875E-08;-0,598541259765625;3;212;3,44711914658546E-07;-3,28827276825905E-07;100 nA
-0,650634765625;113,445473713578;-1,3153076171875E-08;-0,648529052734375;3;213;3,44711914658546E-07;-3,28827276825905E-07;100 nA
-0,70068359375;113,945961712314;-1,30615234375E-08;-0,698486328125;3;214;3,44711914658546E-07;-3,28827276825905E-07;100 nA
-0,750732421875;114,44644971105;-1,312255859375E-08;-0,74853515625;3;215;3,44711914658546E-07;-3,28827276825905E-07;100 nA
-0,80078125;114,946937709787;-1,40380859375E-08;-0,7989501953125;3;216;3,44711914658546E-07;-3,28827276825905E-07;100 nA
-0,850830078125;115,447425708523;-1,666259765625E-08;-0,84869384765625;3;217;3,44711914658546E-07;-3,28827276825905E-07;100 nA
-0,90087890625;115,94791370726;-2,1392822265625E-08;-0,8990478515625;3;218;3,44711914658546E-07;-3,28827276825905E-07;100 nA
-0,950927734375;116,448401705996;-2,9541015625E-08;-0,9490966796875;3;219;3,44711914658546E-07;-3,28827276825905E-07;100 nA
-1,0009765625;116,948889704732;-4,119873046875E-08;-0,99853515625;3;220;3,44711914658546E-07;-3,28827276825905E-07;100 nA
-0,950927734375;117,449377703469;-2,11181640625E-08;-0,9490966796875;3;221;3,44711914658546E-07;-3,28827276825905E-07;100 nA
-0,90087890625;117,949865702205;-1,141357421875E-08;-0,8984375;3;222;3,44711914658546E-07;-3,28827276825905E-07;100 nA
-0,850830078125;118,450353700942;-6,77490234375E-09;-0,848388671875;3;223;3,44711914658546E-07;-3,28827276825905E-07;100 nA
-0,80078125;118,950841699678;-4,2724609375E-09;-0,7989501953125;3;224;3,44711914658546E-07;-3,28827276825905E-07;100 nA
-0,750732421875;119,451329698414;-2,777099609375E-09;-0,74859619140625;3;225;3,44711914658546E-07;-3,28827276825905E-07;100 nA
-0,70068359375;119,951817697151;-1,556396484375E-09;-0,698577880859375;3;226;3,44711914658546E-07;-3,28827276825905E-07;100 nA
-0,650634765625;120,452305695887;-9,1552734375E-11;-0,6485595703125;3;227;3,44711914658546E-07;-3,28827276825905E-07;100 nA
-0,6005859375;120,952793694624;7,32421875E-10;-0,5986328125;3;228;3,44711914658546E-07;-3,28827276825905E-07;100 nA
-0,550537109375;121,45328169336;1,312255859375E-09;-0,548797607421875;3;229;3,44711914658546E-07;-3,28827276825905E-07;100 nA
-0,50048828125;121,953769692096;2,044677734375E-09;-0,498809814453125;3;230;3,44711914658546E-07;-3,28827276825905E-07;100 nA
-0,450439453125;122,454257690833;3,0517578125E-09;-0,448944091796875;3;231;3,44711914658546E-07;-3,28827276825905E-07;100 nA
-0,400390625;122,954745689569;5,126953125E-09;-0,399139404296875;3;232;3,44711914658546E-07;-3,28827276825905E-07;100 nA
-0,350341796875;123,455233688306;1,092529296875E-08;-0,349212646484375;3;233;3,44711914658546E-07;-3,28827276825905E-07;100 nA
-0,30029296875;123,955721687042;2,032470703125E-08;-0,29931640625;3;234;3,44711914658546E-07;-3,28827276825905E-07;100 nA
-0,250244140625;124,456209685778;2,557373046875E-08;-0,24945068359375;3;235;3,44711914658546E-07;-3,28827276825905E-07;100 nA
-0,2001953125;124,956697684515;2,3284912109375E-08;-0,199493408203125;3;236;3,44711914658546E-07;-3,28827276825905E-07;100 nA
-0,150146484375;125,457185683251;2,2247314453125E-08;-0,149688720703125;3;237;3,44711914658546E-07;-3,28827276825905E-07;100 nA
-0,10009765625;125,957673681987;2,2186279296875E-08;-0,099761962890625;3;238;3,44711914658546E-07;-3,28827276825905E-07;100 nA
-0,050048828125;126,458161680724;2,099609375E-08;-0,049957275390625;3;239;3,44711914658546E-07;-3,28827276825905E-07;100 nA
0;126,95864967946;2,35595703125E-08;0,0001220703125;3;240;3,44711914658546E-07;-3,28827276825905E-07;100 nA
0,050048828125;127,459137678197;2,294921875E-08;0,050018310546875;4;241;3,4303180873394E-07;-3,28537076711655E-07;100 nA
0,10009765625;127,959625676933;2,3529052734375E-08;0,09991455078125;4;242;3,4303180873394E-07;-3,28537076711655E-07;100 nA
0,150146484375;128,460113675669;2,423095703125E-08;0,14996337890625;4;243;3,4303180873394E-07;-3,28537076711655E-07;100 nA
0,2001953125;128,960601674406;2,606201171875E-08;0,199920654296875;4;244;3,4303180873394E-07;-3,28537076711655E-07;100 nA
0,250244140625;129,461089673142;2,166748046875E-08;0,25;4;245;3,4303180873394E-07;-3,28537076711655E-07;100 nA
0,30029296875;129,961577671879;2,3193359375E-08;0,2999267578125;4;246;3,4303180873394E-07;-3,28537076711655E-07;100 nA
0,350341796875;130,462065670615;2,2857666015625E-08;0,3499755859375;4;247;3,4303180873394E-07;-3,28537076711655E-07;100 nA
0,400390625;130,962553669351;2,23388671875E-08;0,39996337890625;4;248;3,4303180873394E-07;-3,28537076711655E-07;100 nA
0,450439453125;131,463041668088;2,117919921875E-08;0,449981689453125;4;249;3,4303180873394E-07;-3,28537076711655E-07;100 nA
0,50048828125;131,963529666824;2,0751953125E-08;0,5;4;250;3,4303180873394E-07;-3,28537076711655E-07;100 nA
0,550537109375;132,464017665561;2,0782470703125E-08;0,550018310546875;4;251;3,4303180873394E-07;-3,28537076711655E-07;100 nA
0,6005859375;132,964505664297;2,1697998046875E-08;0,60003662109375;4;252;3,4303180873394E-07;-3,28537076711655E-07;100 nA
0,650634765625;133,464993663033;2,0965576171875E-08;0,649932861328125;4;253;3,4303180873394E-07;-3,28537076711655E-07;100 nA
0,70068359375;133,96548166177;2,0660400390625E-08;0,699859619140625;4;254;3,4303180873394E-07;-3,28537076711655E-07;100 nA
0,750732421875;134,465969660506;2,0721435546875E-08;0,749755859375;4;255;3,4303180873394E-07;-3,28537076711655E-07;100 nA
0,80078125;134,966457659242;2,11181640625E-08;0,79986572265625;4;256;3,4303180873394E-07;-3,28537076711655E-07;100 nA
0,850830078125;135,466945657979;2,1759033203125E-08;0,849609375;4;257;3,4303180873394E-07;-3,28537076711655E-07;100 nA
0,90087890625;135,967433656715;2,2308349609375E-08;0,89935302734375;4;258;3,4303180873394E-07;-3,28537076711655E-07;100 nA
0,950927734375;136,467921655452;2,3040771484375E-08;0,94940185546875;4;259;3,4303180873394E-07;-3,28537076711655E-07;100 nA
1,0009765625;136,968409654188;2,38037109375E-08;1,00006103515625;4;260;3,4303180873394E-07;-3,28537076711655E-07;100 nA
0,950927734375;137,468897652924;1,6387939453125E-08;0,94940185546875;4;261;3,4303180873394E-07;-3,28537076711655E-07;100 nA
0,90087890625;137,969385651661;1,2664794921875E-08;0,89996337890625;4;262;3,4303180873394E-07;-3,28537076711655E-07;100 nA
0,850830078125;138,469873650397;9,735107421875E-09;0,84991455078125;4;263;3,4303180873394E-07;-3,28537076711655E-07;100 nA
0,80078125;138,970361649134;7,476806640625E-09;0,79986572265625;4;264;3,4303180873394E-07;-3,28537076711655E-07;100 nA
0,750732421875;139,47084964787;5,950927734375E-09;0,7498779296875;4;265;3,4303180873394E-07;-3,28537076711655E-07;100 nA
0,70068359375;139,971337646606;4,45556640625E-09;0,699981689453125;4;266;3,4303180873394E-07;-3,28537076711655E-07;100 nA
0,650634765625;140,471825645343;2,197265625E-09;0,650115966796875;4;267;3,4303180873394E-07;-3,28537076711655E-07;100 nA
0,6005859375;140,972313644079;-9,765625E-10;0,600128173828125;4;268;3,4303180873394E-07;-3,28537076711655E-07;100 nA
0,550537109375;141,472801642816;-3,11279296875E-09;0,55010986328125;4;269;3,4303180873394E-07;-3,28537076711655E-07;100 nA
0,50048828125;141,973289641552;-2,044677734375E-09;0,500213623046875;4;270;3,4303180873394E-07;-3,28537076711655E-07;100 nA
0,450439453125;142,473777640288;-3,0517578125E-09;0,450164794921875;4;271;3,4303180873394E-07;-3,28537076711655E-07;100 nA
0,400390625;142,974265639025;-5,401611328125E-09;0,400115966796875;4;272;3,4303180873394E-07;-3,28537076711655E-07;100 nA
0,350341796875;143,474753637761;-8,270263671875E-09;0,350128173828125;4;273;3,4303180873394E-07;-3,28537076711655E-07;100 nA
0,30029296875;143,975241636497;-1,2054443359375E-08;0,30010986328125;4;274;3,4303180873394E-07;-3,28537076711655E-07;100 nA
0,250244140625;144,475729635234;-1,55029296875E-08;0,2501220703125;4;275;3,4303180873394E-07;-3,28537076711655E-07;100 nA
0,2001953125;144,97621763397;-1,86767578125E-08;0,2000732421875;4;276;3,4303180873394E-07;-3,28537076711655E-07;100 nA
0,150146484375;145,476705632707;-2,16064453125E-08;0,150146484375;4;277;3,4303180873394E-07;-3,28537076711655E-07;100 nA
0,10009765625;145,977193631443;-2,3773193359375E-08;0,100128173828125;4;278;3,4303180873394E-07;-3,28537076711655E-07;100 nA
0,050048828125;146,477681630179;-2,5390625E-08;0,050140380859375;4;279;3,4303180873394E-07;-3,28537076711655E-07;100 nA
0;146,978169628916;-2,6031494140625E-08;0,0001220703125;4;280;3,4303180873394E-07;-3,28537076711655E-07;100 nA
-0,050048828125;147,478657627652;-2,6092529296875E-08;-0,049725341796875;4;281;3,4303180873394E-07;-3,28537076711655E-07;100 nA
-0,10009765625;147,979145626389;-2,5970458984375E-08;-0,099639892578125;4;282;3,4303180873394E-07;-3,28537076711655E-07;100 nA
-0,150146484375;148,479633625125;-2,5848388671875E-08;-0,149566650390625;4;283;3,4303180873394E-07;-3,28537076711655E-07;100 nA
-0,2001953125;148,980121623861;-2,593994140625E-08;-0,199432373046875;4;284;3,4303180873394E-07;-3,28537076711655E-07;100 nA
-0,250244140625;149,480609622598;-2,6397705078125E-08;-0,2493896484375;4;285;3,4303180873394E-07;-3,28537076711655E-07;100 nA
-0,30029296875;149,981097621334;-2,74658203125E-08;-0,299224853515625;4;286;3,4303180873394E-07;-3,28537076711655E-07;100 nA
-0,350341796875;150,481585620071;-2,978515625E-08;-0,349212646484375;4;287;3,4303180873394E-07;-3,28537076711655E-07;100 nA
-0,400390625;150,982073618807;-3,057861328125E-08;-0,399078369140625;4;288;3,4303180873394E-07;-3,28537076711655E-07;100 nA
-0,450439453125;151,482561617543;-1,7242431640625E-08;-0,448974609375;4;289;3,4303180873394E-07;-3,28537076711655E-07;100 nA
-0,50048828125;151,98304961628;-1,4495849609375E-08;-0,49884033203125;4;290;3,4303180873394E-07;-3,28537076711655E-07;100 nA
-0,550537109375;152,483537615016;-1,3946533203125E-08;-0,548736572265625;4;291;3,4303180873394E-07;-3,28537076711655E-07;100 nA
-0,6005859375;152,984025613752;-1,3763427734375E-08;-0,598663330078125;4;292;3,4303180873394E-07;-3,28537076711655E-07;100 nA
-0,650634765625;153,484513612489;-1,3824462890625E-08;-0,648590087890625;4;293;3,4303180873394E-07;-3,28537076711655E-07;100 nA
-0,70068359375;153,985001611225;-1,3519287109375E-08;-0,6986083984375;4;294;3,4303180873394E-07;-3,28537076711655E-07;100 nA
-0,750732421875;154,485489609962;-1,35498046875E-08;-0,74859619140625;4;295;3,4303180873394E-07;-3,28537076711655E-07;100 nA
-0,80078125;154,985977608698;-1,4404296875E-08;-0,79864501953125;4;296;3,4303180873394E-07;-3,28537076711655E-07;100 nA
-0,850830078125;155,486465607434;-1,690673828125E-08;-0,84869384765625;4;297;3,4303180873394E-07;-3,28537076711655E-07;100 nA
-0,90087890625;155,986953606171;-2,166748046875E-08;-0,8990478515625;4;298;3,4303180873394E-07;-3,28537076711655E-07;100 nA
-0,950927734375;156,487441604907;-2,9754638671875E-08;-0,94879150390625;4;299;3,4303180873394E-07;-3,28537076711655E-07;100 nA
-1,0009765625;156,987929603644;-4,1229248046875E-08;-0,99884033203125;4;300;3,4303180873394E-07;-3,28537076711655E-07;100 nA
-0,950927734375;157,48841760238;-2,11181640625E-08;-0,94879150390625;4;301;3,4303180873394E-07;-3,28537076711655E-07;100 nA
-0,90087890625;157,988905601116;-1,1383056640625E-08;-0,8990478515625;4;302;3,4303180873394E-07;-3,28537076711655E-07;100 nA
-0,850830078125;158,489393599853;-6,683349609375E-09;-0,84869384765625;4;303;3,4303180873394E-07;-3,28537076711655E-07;100 nA
-0,80078125;158,989881598589;-4,45556640625E-09;-0,79925537109375;4;304;3,4303180873394E-07;-3,28537076711655E-07;100 nA
-0,750732421875;159,490369597326;-2,86865234375E-09;-0,74859619140625;4;305;3,4303180873394E-07;-3,28537076711655E-07;100 nA
-0,70068359375;159,990857596062;-1,556396484375E-09;-0,698577880859375;4;306;3,4303180873394E-07;-3,28537076711655E-07;100 nA
-0,650634765625;160,491345594798;-9,1552734375E-11;-0,64862060546875;4;307;3,4303180873394E-07;-3,28537076711655E-07;100 nA
-0,6005859375;160,991833593535;7,9345703125E-10;-0,598663330078125;4;308;3,4303180873394E-07;-3,28537076711655E-07;100 nA
-0,550537109375;161,492321592271;1,40380859375E-09;-0,548797607421875;4;309;3,4303180873394E-07;-3,28537076711655E-07;100 nA
-0,50048828125;161,992809591007;2,197265625E-09;-0,49884033203125;4;310;3,4303180873394E-07;-3,28537076711655E-07;100 nA
-0,450439453125;162,493297589744;3,23486328125E-09;-0,448974609375;4;311;3,4303180873394E-07;-3,28537076711655E-07;100 nA
-0,400390625;162,99378558848;5,37109375E-09;-0,399078369140625;4;312;3,4303180873394E-07;-3,28537076711655E-07;100 nA
-0,350341796875;163,494273587217;1,1199951171875E-08;-0,3492431640625;4;313;3,4303180873394E-07;-3,28537076711655E-07;100 nA
-0,30029296875;163,994761585953;2,1026611328125E-08;-0,29925537109375;4;314;3,4303180873394E-07;-3,28537076711655E-07;100 nA
-0,250244140625;164,495249584689;2,5848388671875E-08;-0,2493896484375;4;315;3,4303180873394E-07;-3,28537076711655E-07;100 nA
-0,2001953125;164,995737583426;2,3284912109375E-08;-0,199462890625;4;316;3,4303180873394E-07;-3,28537076711655E-07;100 nA
-0,150146484375;165,496225582162;2,1575927734375E-08;-0,149566650390625;4;317;3,4303180873394E-07;-3,28537076711655E-07;100 nA
-0,10009765625;165,996713580899;2,1087646484375E-08;-0,0997314453125;4;318;3,4303180873394E-07;-3,28537076711655E-07;100 nA
-0,050048828125;166,497201579635;2,1514892578125E-08;-0,049835205078125;4;319;3,4303180873394E-07;-3,28537076711655E-07;100 nA
0;166,997689578371;2,2369384765625E-08;0,000112915039062494;4;320;3,4303180873394E-07;-3,28537076711655E-07;100 nA
0,050048828125;167,498177577108;2,349853515625E-08;0,05010986328125;5;321;3,46850231289864E-07;-3,30110266804695E-07;100 nA
0,10009765625;167,998665575844;2,4200439453125E-08;0,100067138671875;5;322;3,46850231289864E-07;-3,30110266804695E-07;100 nA
0,150146484375;168,499153574581;2,435302734375E-08;0,15008544921875;5;323;3,46850231289864E-07;-3,30110266804695E-07;100 nA
0,2001953125;168,999641573317;2,4658203125E-08;0,200103759765625;5;324;3,46850231289864E-07;-3,30110266804695E-07;100 nA
0,250244140625;169,500129572053;2,4688720703125E-08;0,2501220703125;5;325;3,46850231289864E-07;-3,30110266804695E-07;100 nA
0,30029296875;170,00061757079;2,4261474609375E-08;0,300140380859375;5;326;3,46850231289864E-07;-3,30110266804695E-07;100 nA
0,350341796875;170,501105569526;2,35595703125E-08;0,35015869140625;5;327;3,46850231289864E-07;-3,30110266804695E-07;100 nA
0,400390625;171,001593568262;2,28271484375E-08;0,400115966796875;5;328;3,46850231289864E-07;-3,30110266804695E-07;100 nA
0,450439453125;171,502081566999;2,191162109375E-08;0,450103759765625;5;329;3,46850231289864E-07;-3,30110266804695E-07;100 nA
0,50048828125;172,002569565735;2,1209716796875E-08;0,50006103515625;5;330;3,46850231289864E-07;-3,30110266804695E-07;100 nA
0,550537109375;172,503057564472;2,1240234375E-08;0,550140380859375;5;331;3,46850231289864E-07;-3,30110266804695E-07;100 nA
0,6005859375;173,003545563208;2,1881103515625E-08;0,60009765625;5;332;3,46850231289864E-07;-3,30110266804695E-07;100 nA
0,650634765625;173,504033561944;2,1240234375E-08;0,6500244140625;5;333;3,46850231289864E-07;-3,30110266804695E-07;100 nA
0,70068359375;174,004521560681;2,093505859375E-08;0,699920654296875;5;334;3,46850231289864E-07;-3,30110266804695E-07;100 nA
0,750732421875;174,505009559417;2,093505859375E-08;0,74981689453125;5;335;3,46850231289864E-07;-3,30110266804695E-07;100 nA
0,80078125;175,005497558154;2,1240234375E-08;0,799560546875;5;336;3,46850231289864E-07;-3,30110266804695E-07;100 nA
0,850830078125;175,50598555689;2,166748046875E-08;0,849609375;5;337;3,46850231289864E-07;-3,30110266804695E-07;100 nA
0,90087890625;176,006473555626;2,2247314453125E-08;0,89996337890625;5;338;3,46850231289864E-07;-3,30110266804695E-07;100 nA
0,950927734375;176,506961554363;2,2918701171875E-08;0,94940185546875;5;339;3,46850231289864E-07;-3,30110266804695E-07;100 nA
1,0009765625;177,007449553099;2,362060546875E-08;0,9991455078125;5;340;3,46850231289864E-07;-3,30110266804695E-07;100 nA
0,950927734375;177,507937551836;1,629638671875E-08;0,9490966796875;5;341;3,46850231289864E-07;-3,30110266804695E-07;100 nA
0,90087890625;178,008425550572;1,2298583984375E-08;0,899658203125;5;342;3,46850231289864E-07;-3,30110266804695E-07;100 nA
0,850830078125;178,508913549308;9,521484375E-09;0,849609375;5;343;3,46850231289864E-07;-3,30110266804695E-07;100 nA
0,80078125;179,009401548045;7,32421875E-09;0,79986572265625;5;344;3,46850231289864E-07;-3,30110266804695E-07;100 nA
0,750732421875;179,509889546781;5,828857421875E-09;0,749786376953125;5;345;3,46850231289864E-07;-3,30110266804695E-07;100 nA
0,70068359375;180,010377545517;4,058837890625E-09;0,699920654296875;5;346;3,46850231289864E-07;-3,30110266804695E-07;100 nA
0,650634765625;180,510865544254;1,861572265625E-09;0,649993896484375;5;347;3,46850231289864E-07;-3,30110266804695E-07;100 nA
0,6005859375;181,01135354299;-1,40380859375E-09;0,600067138671875;5;348;3,46850231289864E-07;-3,30110266804695E-07;100 nA
0,550537109375;181,511841541727;-3,448486328125E-09;0,550048828125;5;349;3,46850231289864E-07;-3,30110266804695E-07;100 nA
0,50048828125;182,012329540463;-2,716064453125E-09;0,50006103515625;5;350;3,46850231289864E-07;-3,30110266804695E-07;100 nA
0,450439453125;182,512817539199;-3,631591796875E-09;0,4500732421875;5;351;3,46850231289864E-07;-3,30110266804695E-07;100 nA
0,400390625;183,013305537936;-5,9814453125E-09;0,40008544921875;5;352;3,46850231289864E-07;-3,30110266804695E-07;100 nA
0,350341796875;183,513793536672;-8,9111328125E-09;0,35009765625;5;353;3,46850231289864E-07;-3,30110266804695E-07;100 nA
0,30029296875;184,014281535409;-1,2359619140625E-08;0,300048828125;5;354;3,46850231289864E-07;-3,30110266804695E-07;100 nA
0,250244140625;184,514769534145;-1,6143798828125E-08;0,25006103515625;5;355;3,46850231289864E-07;-3,30110266804695E-07;100 nA
0,2001953125;185,015257532881;-1,922607421875E-08;0,200042724609375;5;356;3,46850231289864E-07;-3,30110266804695E-07;100 nA
0,150146484375;185,515745531618;-2,23388671875E-08;0,15008544921875;5;357;3,46850231289864E-07;-3,30110266804695E-07;100 nA
0,10009765625;186,016233530354;-2,4566650390625E-08;0,100067138671875;5;358;3,46850231289864E-07;-3,30110266804695E-07;100 nA
0,050048828125;186,516721529091;-2,5909423828125E-08;0,050048828125;5;359;3,46850231289864E-07;-3,30110266804695E-07;100 nA
0;187,017209527827;-2,6458740234375E-08;0,000109863281249997;5;360;3,46850231289864E-07;-3,30110266804695E-07;100 nA
-0,050048828125;187,517697526563;-2,64892578125E-08;-0,04986572265625;5;361;3,46850231289864E-07;-3,30110266804695E-07;100 nA
-0,10009765625;188,0181855253;-2,630615234375E-08;-0,099700927734375;5;362;3,46850231289864E-07;-3,30110266804695E-07;100 nA
-0,150146484375;188,518673524036;-2,6092529296875E-08;-0,14959716796875;5;363;3,46850231289864E-07;-3,30110266804695E-07;100 nA
-0,2001953125;189,019161522772;-2,606201171875E-08;-0,199493408203125;5;364;3,46850231289864E-07;-3,30110266804695E-07;100 nA
-0,250244140625;189,519649521509;-2,64892578125E-08;-0,2493896484375;5;365;3,46850231289864E-07;-3,30110266804695E-07;100 nA
-0,30029296875;190,020137520245;-2,7557373046875E-08;-0,299285888671875;5;366;3,46850231289864E-07;-3,30110266804695E-07;100 nA
-0,350341796875;190,520625518982;-2,96630859375E-08;-0,34918212890625;5;367;3,46850231289864E-07;-3,30110266804695E-07;100 nA
-0,400390625;191,021113517718;-3,0792236328125E-08;-0,39910888671875;5;368;3,46850231289864E-07;-3,30110266804695E-07;100 nA
-0,450439453125;191,521601516454;-1,7364501953125E-08;-0,448883056640625;5;369;3,46850231289864E-07;-3,30110266804695E-07;100 nA
-0,50048828125;192,022089515191;-1,45263671875E-08;-0,49884033203125;5;370;3,46850231289864E-07;-3,30110266804695E-07;100 nA
-0,550537109375;192,522577513927;-1,385498046875E-08;-0,548736572265625;5;371;3,46850231289864E-07;-3,30110266804695E-07;100 nA
-0,6005859375;193,023065512664;-1,37939453125E-08;-0,59869384765625;5;372;3,46850231289864E-07;-3,30110266804695E-07;100 nA
-0,650634765625;193,5235535114;-1,348876953125E-08;-0,6485595703125;5;373;3,46850231289864E-07;-3,30110266804695E-07;100 nA
-0,70068359375;194,024041510136;-1,33056640625E-08;-0,698577880859375;5;374;3,46850231289864E-07;-3,30110266804695E-07;100 nA
-0,750732421875;194,524529508873;-1,3336181640625E-08;-0,74847412109375;5;375;3,46850231289864E-07;-3,30110266804695E-07;100 nA
-0,80078125;195,025017507609;-1,409912109375E-08;-0,79833984375;5;376;3,46850231289864E-07;-3,30110266804695E-07;100 nA
-0,850830078125;195,525505506346;-1,64794921875E-08;-0,84869384765625;5;377;3,46850231289864E-07;-3,30110266804695E-07;100 nA
-0,90087890625;196,025993505082;-2,1270751953125E-08;-0,89874267578125;5;378;3,46850231289864E-07;-3,30110266804695E-07;100 nA
-0,950927734375;196,526481503818;-2,911376953125E-08;-0,94879150390625;5;379;3,46850231289864E-07;-3,30110266804695E-07;100 nA
-1,0009765625;197,026969502555;-4,0618896484375E-08;-0,99822998046875;5;380;3,46850231289864E-07;-3,30110266804695E-07;100 nA
-0,950927734375;197,527457501291;-2,05078125E-08;-0,94879150390625;5;381;3,46850231289864E-07;-3,30110266804695E-07;100 nA
-0,90087890625;198,027945500028;-1,0955810546875E-08;-0,8984375;5;382;3,46850231289864E-07;-3,30110266804695E-07;100 nA
-0,850830078125;198,528433498764;-6,34765625E-09;-0,84869384765625;5;383;3,46850231289864E-07;-3,30110266804695E-07;100 nA
-0,80078125;199,0289214975;-4,08935546875E-09;-0,79864501953125;5;384;3,46850231289864E-07;-3,30110266804695E-07;100 nA
-0,750732421875;199,529409496237;-2,593994140625E-09;-0,748565673828125;5;385;3,46850231289864E-07;-3,30110266804695E-07;100 nA
-0,70068359375;200,029897494973;-1,28173828125E-09;-0,698577880859375;5;386;3,46850231289864E-07;-3,30110266804695E-07;100 nA
-0,650634765625;200,530385493709;3,96728515625E-10;-0,648529052734375;5;387;3,46850231289864E-07;-3,30110266804695E-07;100 nA
-0,6005859375;201,030873492446;9,1552734375E-10;-0,5986328125;5;388;3,46850231289864E-07;-3,30110266804695E-07;100 nA
-0,550537109375;201,531361491182;1,64794921875E-09;-0,5487060546875;5;389;3,46850231289864E-07;-3,30110266804695E-07;100 nA
-0,50048828125;202,031849489919;2,410888671875E-09;-0,498809814453125;5;390;3,46850231289864E-07;-3,30110266804695E-07;100 nA
-0,450439453125;202,532337488655;3,47900390625E-09;-0,44891357421875;5;391;3,46850231289864E-07;-3,30110266804695E-07;100 nA
-0,400390625;203,032825487391;5,645751953125E-09;-0,399017333984375;5;392;3,46850231289864E-07;-3,30110266804695E-07;100 nA
-0,350341796875;203,533313486128;1,15966796875E-08;-0,349151611328125;5;393;3,46850231289864E-07;-3,30110266804695E-07;100 nA
-0,30029296875;204,033801484864;2,1453857421875E-08;-0,299224853515625;5;394;3,46850231289864E-07;-3,30110266804695E-07;100 nA
-0,250244140625;204,534289483601;2,581787109375E-08;-0,249298095703125;5;395;3,46850231289864E-07;-3,30110266804695E-07;100 nA
-0,2001953125;205,034777482337;2,325439453125E-08;-0,199493408203125;5;396;3,46850231289864E-07;-3,30110266804695E-07;100 nA
-0,150146484375;205,535265481073;2,1636962890625E-08;-0,149566650390625;5;397;3,46850231289864E-07;-3,30110266804695E-07;100 nA
-0,10009765625;206,03575347981;2,11181640625E-08;-0,099700927734375;5;398;3,46850231289864E-07;-3,30110266804695E-07;100 nA
-0,050048828125;206,536241478546;2,1209716796875E-08;-0,04986572265625;5;399;3,46850231289864E-07;-3,30110266804695E-07;100 nA
0;207,036729477283;2,215576171875E-08;0,000115966796875006;5;400;3,46850231289864E-07;-3,30110266804695E-07;100 nA
0,050048828125;207,537217476019;2,34375E-08;0,050048828125;6;401;3,41412797570229E-07;-3,26520949602127E-07;100 nA
0,10009765625;208,037705474755;2,4078369140625E-08;0,10003662109375;6;402;3,41412797570229E-07;-3,26520949602127E-07;100 nA
0,150146484375;208,538193473492;2,4200439453125E-08;0,1500244140625;6;403;3,41412797570229E-07;-3,26520949602127E-07;100 nA
0,2001953125;209,038681472228;2,4322509765625E-08;0,20001220703125;6;404;3,41412797570229E-07;-3,26520949602127E-07;100 nA
0,250244140625;209,539169470964;2,435302734375E-08;0,250030517578125;6;405;3,41412797570229E-07;-3,26520949602127E-07;100 nA
0,30029296875;210,039657469701;2,3956298828125E-08;0,300048828125;6;406;3,41412797570229E-07;-3,26520949602127E-07;100 nA
0,350341796875;210,540145468437;2,3345947265625E-08;0,35003662109375;6;407;3,41412797570229E-07;-3,26520949602127E-07;100 nA
0,400390625;211,040633467174;2,252197265625E-08;0,400054931640625;6;408;3,41412797570229E-07;-3,26520949602127E-07;100 nA
0,450439453125;211,54112146591;2,166748046875E-08;0,45001220703125;6;409;3,41412797570229E-07;-3,26520949602127E-07;100 nA
0,50048828125;212,041609464646;2,093505859375E-08;0,5;6;410;3,41412797570229E-07;-3,26520949602127E-07;100 nA
0,550537109375;212,542097463383;2,081298828125E-08;0,54998779296875;6;411;3,41412797570229E-07;-3,26520949602127E-07;100 nA
0,6005859375;213,042585462119;2,1514892578125E-08;0,600006103515625;6;412;3,41412797570229E-07;-3,26520949602127E-07;100 nA
0,650634765625;213,543073460856;2,11181640625E-08;0,64996337890625;6;413;3,41412797570229E-07;-3,26520949602127E-07;100 nA
0,70068359375;214,043561459592;2,0782470703125E-08;0,6998291015625;6;414;3,41412797570229E-07;-3,26520949602127E-07;100 nA
0,750732421875;214,544049458328;2,069091796875E-08;0,749725341796875;6;415;3,41412797570229E-07;-3,26520949602127E-07;100 nA
0,80078125;215,044537457065;2,0965576171875E-08;0,8001708984375;6;416;3,41412797570229E-07;-3,26520949602127E-07;100 nA
0,850830078125;215,545025455801;2,1392822265625E-08;0,84930419921875;6;417;3,41412797570229E-07;-3,26520949602127E-07;100 nA
0,90087890625;216,045513454538;2,1759033203125E-08;0,89935302734375;6;418;3,41412797570229E-07;-3,26520949602127E-07;100 nA
0,950927734375;216,546001453274;2,2491455078125E-08;0,95001220703125;6;419;3,41412797570229E-07;-3,26520949602127E-07;100 nA
1,0009765625;217,04648945201;2,33154296875E-08;0,999755859375;6;420;3,41412797570229E-07;-3,26520949602127E-07;100 nA
0,950927734375;217,546977450747;1,605224609375E-08;0,94940185546875;6;421;3,41412797570229E-07;-3,26520949602127E-07;100 nA
0,90087890625;218,047465449483;1,1993408203125E-08;0,89996337890625;6;422;3,41412797570229E-07;-3,26520949602127E-07;100 nA
0,850830078125;218,547953448219;9,185791015625E-09;0,84991455078125;6;423;3,41412797570229E-07;-3,26520949602127E-07;100 nA
0,80078125;219,048441446956;7,232666015625E-09;0,799560546875;6;424;3,41412797570229E-07;-3,26520949602127E-07;100 nA
0,750732421875;219,548929445692;5,706787109375E-09;0,749755859375;6;425;3,41412797570229E-07;-3,26520949602127E-07;100 nA
0,70068359375;220,049417444429;3,96728515625E-09;0,699859619140625;6;426;3,41412797570229E-07;-3,26520949602127E-07;100 nA
0,650634765625;220,549905443165;2,0751953125E-09;0,649932861328125;6;427;3,41412797570229E-07;-3,26520949602127E-07;100 nA
0,6005859375;221,050393441901;-1,52587890625E-09;0,60009765625;6;428;3,41412797570229E-07;-3,26520949602127E-07;100 nA
0,550537109375;221,550881440638;-3,2958984375E-09;0,55010986328125;6;429;3,41412797570229E-07;-3,26520949602127E-07;100 nA
0,50048828125;222,051369439374;-2,716064453125E-09;0,50006103515625;6;430;3,41412797570229E-07;-3,26520949602127E-07;100 nA
0,450439453125;222,551857438111;-3,509521484375E-09;0,450042724609375;6;431;3,41412797570229E-07;-3,26520949602127E-07;100 nA
0,400390625;223,052345436847;-5,767822265625E-09;0,400115966796875;6;432;3,41412797570229E-07;-3,26520949602127E-07;100 nA
0,350341796875;223,552833435583;-8,9111328125E-09;0,350128173828125;6;433;3,41412797570229E-07;-3,26520949602127E-07;100 nA
0,30029296875;224,05332143432;-1,2420654296875E-08;0,300079345703125;6;434;3,41412797570229E-07;-3,26520949602127E-07;100 nA
0,250244140625;224,553809433056;-1,605224609375E-08;0,250152587890625;6;435;3,41412797570229E-07;-3,26520949602127E-07;100 nA
0,2001953125;225,054297431793;-1,91650390625E-08;0,200164794921875;6;436;3,41412797570229E-07;-3,26520949602127E-07;100 nA
0,150146484375;225,554785430529;-2,2125244140625E-08;0,15008544921875;6;437;3,41412797570229E-07;-3,26520949602127E-07;100 nA
0,10009765625;226,055273429265;-2,4200439453125E-08;0,100128173828125;6;438;3,41412797570229E-07;-3,26520949602127E-07;100 nA
0,050048828125;226,555761428002;-2,55126953125E-08;0,050140380859375;6;439;3,41412797570229E-07;-3,26520949602127E-07;100 nA
0;227,056249426738;-2,6092529296875E-08;0,000131225585937506;6;440;3,41412797570229E-07;-3,26520949602127E-07;100 nA
-0,050048828125;227,556737425474;-2,6123046875E-08;-0,049725341796875;6;441;3,41412797570229E-07;-3,26520949602127E-07;100 nA
-0,10009765625;228,057225424211;-2,587890625E-08;-0,099639892578125;6;442;3,41412797570229E-07;-3,26520949602127E-07;100 nA
-0,150146484375;228,557713422947;-2,569580078125E-08;-0,1495361328125;6;443;3,41412797570229E-07;-3,26520949602127E-07;100 nA
-0,2001953125;229,058201421684;-2,569580078125E-08;-0,199432373046875;6;444;3,41412797570229E-07;-3,26520949602127E-07;100 nA
-0,250244140625;229,55868942042;-2,60009765625E-08;-0,249298095703125;6;445;3,41412797570229E-07;-3,26520949602127E-07;100 nA
-0,30029296875;230,059177419156;-2,7008056640625E-08;-0,299163818359375;6;446;3,41412797570229E-07;-3,26520949602127E-07;100 nA
-0,350341796875;230,559665417893;-2,9266357421875E-08;-0,349090576171875;6;447;3,41412797570229E-07;-3,26520949602127E-07;100 nA
-0,400390625;231,060153416629;-3,0670166015625E-08;-0,399017333984375;6;448;3,41412797570229E-07;-3,26520949602127E-07;100 nA
-0,450439453125;231,560641415366;-1,727294921875E-08;-0,448883056640625;6;449;3,41412797570229E-07;-3,26520949602127E-07;100 nA
-0,50048828125;232,061129414102;-1,4312744140625E-08;-0,498809814453125;6;450;3,41412797570229E-07;-3,26520949602127E-07;100 nA
-0,550537109375;232,561617412838;-1,3702392578125E-08;-0,5487060546875;6;451;3,41412797570229E-07;-3,26520949602127E-07;100 nA
-0,6005859375;233,062105411575;-1,3214111328125E-08;-0,5985107421875;6;452;3,41412797570229E-07;-3,26520949602127E-07;100 nA
-0,650634765625;233,562593410311;-1,318359375E-08;-0,648529052734375;6;453;3,41412797570229E-07;-3,26520949602127E-07;100 nA
-0,70068359375;234,063081409048;-1,287841796875E-08;-0,69854736328125;6;454;3,41412797570229E-07;-3,26520949602127E-07;100 nA
-0,750732421875;234,563569407784;-1,312255859375E-08;-0,74847412109375;6;455;3,41412797570229E-07;-3,26520949602127E-07;100 nA
-0,80078125;235,06405740652;-1,409912109375E-08;-0,79864501953125;6;456;3,41412797570229E-07;-3,26520949602127E-07;100 nA
-0,850830078125;235,564545405257;-1,6357421875E-08;-0,84869384765625;6;457;3,41412797570229E-07;-3,26520949602127E-07;100 nA
-0,90087890625;236,065033403993;-2,081298828125E-08;-0,8990478515625;6;458;3,41412797570229E-07;-3,26520949602127E-07;100 nA
-0,950927734375;236,565521402729;-2,874755859375E-08;-0,948486328125;6;459;3,41412797570229E-07;-3,26520949602127E-07;100 nA
-1,0009765625;237,066009401466;-4,034423828125E-08;-0,9991455078125;6;460;3,41412797570229E-07;-3,26520949602127E-07;100 nA
-0,950927734375;237,566497400202;-2,0477294921875E-08;-0,9490966796875;6;461;3,41412797570229E-07;-3,26520949602127E-07;100 nA
-0,90087890625;238,066985398939;-1,1077880859375E-08;-0,8990478515625;6;462;3,41412797570229E-07;-3,26520949602127E-07;100 nA
-0,850830078125;238,567473397675;-6,4697265625E-09;-0,848388671875;6;463;3,41412797570229E-07;-3,26520949602127E-07;100 nA
-0,80078125;239,067961396411;-4,241943359375E-09;-0,79864501953125;6;464;3,41412797570229E-07;-3,26520949602127E-07;100 nA
-0,750732421875;239,568449395148;-2,777099609375E-09;-0,74859619140625;6;465;3,41412797570229E-07;-3,26520949602127E-07;100 nA
-0,70068359375;240,068937393884;-1,556396484375E-09;-0,698638916015625;6;466;3,41412797570229E-07;-3,26520949602127E-07;100 nA
-0,650634765625;240,569425392621;-1,220703125E-10;-0,64862060546875;6;467;3,41412797570229E-07;-3,26520949602127E-07;100 nA
-0,6005859375;241,069913391357;6,7138671875E-10;-0,59857177734375;6;468;3,41412797570229E-07;-3,26520949602127E-07;100 nA
-0,550537109375;241,570401390093;1,3427734375E-09;-0,548797607421875;6;469;3,41412797570229E-07;-3,26520949602127E-07;100 nA
-0,50048828125;242,07088938883;2,105712890625E-09;-0,498809814453125;6;470;3,41412797570229E-07;-3,26520949602127E-07;100 nA
-0,450439453125;242,571377387566;3,173828125E-09;-0,449005126953125;6;471;3,41412797570229E-07;-3,26520949602127E-07;100 nA
-0,400390625;243,071865386303;5,645751953125E-09;-0,399139404296875;6;472;3,41412797570229E-07;-3,26520949602127E-07;100 nA
-0,350341796875;243,572353385039;1,1474609375E-08;-0,349273681640625;6;473;3,41412797570229E-07;-3,26520949602127E-07;100 nA
-0,30029296875;244,072841383775;2,13623046875E-08;-0,29937744140625;6;474;3,41412797570229E-07;-3,26520949602127E-07;100 nA
-0,250244140625;244,573329382512;2,55126953125E-08;-0,24951171875;6;475;3,41412797570229E-07;-3,26520949602127E-07;100 nA
-0,2001953125;245,073817381248;2,2674560546875E-08;-0,199554443359375;6;476;3,41412797570229E-07;-3,26520949602127E-07;100 nA
-0,150146484375;245,574305379984;2,11181640625E-08;-0,14971923828125;6;477;3,41412797570229E-07;-3,26520949602127E-07;100 nA
-0,10009765625;246,074793378721;2,0355224609375E-08;-0,099822998046875;6;478;3,41412797570229E-07;-3,26520949602127E-07;100 nA
-0,050048828125;246,575281377457;2,093505859375E-08;-0,049957275390625;6;479;3,41412797570229E-07;-3,26520949602127E-07;100 nA
0;247,075769376194;2,191162109375E-08;9,76562499999944E-05;6;480;3,41412797570229E-07;-3,26520949602127E-07;100 nA
0,050048828125;247,57625737493;2,30712890625E-08;0,0500885009765625;7;481;3,46789136528969E-07;-3,28995287418366E-07;100 nA
0,10009765625;248,076745373666;2,38037109375E-08;0,099945068359375;7;482;3,46789136528969E-07;-3,28995287418366E-07;100 nA
0,150146484375;248,577233372403;2,4017333984375E-08;0,14996337890625;7;483;3,46789136528969E-07;-3,28995287418366E-07;100 nA
0,2001953125;249,077721371139;2,4200439453125E-08;0,199951171875;7;484;3,46789136528969E-07;-3,28995287418366E-07;100 nA
0,250244140625;249,578209369876;2,44140625E-08;0,24993896484375;7;485;3,46789136528969E-07;-3,28995287418366E-07;100 nA
0,30029296875;250,078697368612;2,40478515625E-08;0,299957275390625;7;486;3,46789136528969E-07;-3,28995287418366E-07;100 nA
0,350341796875;250,579185367348;2,3468017578125E-08;0,35003662109375;7;487;3,46789136528969E-07;-3,28995287418366E-07;100 nA
0,400390625;251,079673366085;2,2674560546875E-08;0,400054931640625;7;488;3,46789136528969E-07;-3,28995287418366E-07;100 nA
0,450439453125;251,580161364821;2,178955078125E-08;0,450042724609375;7;489;3,46789136528969E-07;-3,28995287418366E-07;100 nA
0,50048828125;252,080649363558;2,105712890625E-08;0,500030517578125;7;490;3,46789136528969E-07;-3,28995287418366E-07;100 nA
0,550537109375;252,581137362294;2,081298828125E-08;0,550048828125;7;491;3,46789136528969E-07;-3,28995287418366E-07;100 nA
0,6005859375;253,08162536103;2,1820068359375E-08;0,60009765625;7;492;3,46789136528969E-07;-3,28995287418366E-07;100 nA
0,650634765625;253,582113359767;2,1331787109375E-08;0,649993896484375;7;493;3,46789136528969E-07;-3,28995287418366E-07;100 nA
0,70068359375;254,082601358503;2,0965576171875E-08;0,69989013671875;7;494;3,46789136528969E-07;-3,28995287418366E-07;100 nA
0,750732421875;254,583089357239;2,0843505859375E-08;0,749786376953125;7;495;3,46789136528969E-07;-3,28995287418366E-07;100 nA
0,80078125;255,083577355976;2,1270751953125E-08;0,80047607421875;7;496;3,46789136528969E-07;-3,28995287418366E-07;100 nA
0,850830078125;255,584065354712;2,178955078125E-08;0,84930419921875;7;497;3,46789136528969E-07;-3,28995287418366E-07;100 nA
0,90087890625;256,084553353449;2,2308349609375E-08;0,899658203125;7;498;3,46789136528969E-07;-3,28995287418366E-07;100 nA
0,950927734375;256,585041352185;2,30712890625E-08;0,94970703125;7;499;3,46789136528969E-07;-3,28995287418366E-07;100 nA
1,0009765625;257,085529350921;2,3834228515625E-08;0,9991455078125;7;500;3,46789136528969E-07;-3,28995287418366E-07;100 nA
0,950927734375;257,586017349658;1,6693115234375E-08;0,94970703125;7;501;3,46789136528969E-07;-3,28995287418366E-07;100 nA
0,90087890625;258,086505348394;1,2725830078125E-08;0,899658203125;7;502;3,46789136528969E-07;-3,28995287418366E-07;100 nA
0,850830078125;258,586993347131;9,857177734375E-09;0,84991455078125;7;503;3,46789136528969E-07;-3,28995287418366E-07;100 nA
0,80078125;259,087481345867;7,75146484375E-09;0,79986572265625;7;504;3,46789136528969E-07;-3,28995287418366E-07;100 nA
0,750732421875;259,587969344603;6,011962890625E-09;0,749969482421875;7;505;3,46789136528969E-07;-3,28995287418366E-07;100 nA
0,70068359375;260,08845734334;4,364013671875E-09;0,699981689453125;7;506;3,46789136528969E-07;-3,28995287418366E-07;100 nA
0,650634765625;260,588945342076;2,13623046875E-09;0,650115966796875;7;507;3,46789136528969E-07;-3,28995287418366E-07;100 nA
0,6005859375;261,089433340813;-1,220703125E-09;0,600067138671875;7;508;3,46789136528969E-07;-3,28995287418366E-07;100 nA
0,550537109375;261,589921339549;-3,143310546875E-09;0,550140380859375;7;509;3,46789136528969E-07;-3,28995287418366E-07;100 nA
0,50048828125;262,090409338285;-2,471923828125E-09;0,50006103515625;7;510;3,46789136528969E-07;-3,28995287418366E-07;100 nA
0,450439453125;262,590897337022;-3,60107421875E-09;0,45013427734375;7;511;3,46789136528969E-07;-3,28995287418366E-07;100 nA
0,400390625;263,091385335758;-5,92041015625E-09;0,40008544921875;7;512;3,46789136528969E-07;-3,28995287418366E-07;100 nA
0,350341796875;263,591873334494;-9,1552734375E-09;0,350128173828125;7;513;3,46789136528969E-07;-3,28995287418366E-07;100 nA
0,30029296875;264,092361333231;-1,2786865234375E-08;0,300048828125;7;514;3,46789136528969E-07;-3,28995287418366E-07;100 nA
0,250244140625;264,592849331967;-1,641845703125E-08;0,25006103515625;7;515;3,46789136528969E-07;-3,28995287418366E-07;100 nA
0,2001953125;265,093337330704;-1,947021484375E-08;0,200103759765625;7;516;3,46789136528969E-07;-3,28995287418366E-07;100 nA
0,150146484375;265,59382532944;-2,24609375E-08;0,150054931640625;7;517;3,46789136528969E-07;-3,28995287418366E-07;100 nA
0,10009765625;266,094313328176;-2,447509765625E-08;0,100067138671875;7;518;3,46789136528969E-07;-3,28995287418366E-07;100 nA
0,050048828125;266,594801326913;-2,5787353515625E-08;0,050079345703125;7;519;3,46789136528969E-07;-3,28995287418366E-07;100 nA
0;267,095289325649;-2,6336669921875E-08;0,000131225585937506;7;520;3,46789136528969E-07;-3,28995287418366E-07;100 nA
-0,050048828125;267,595777324386;-2,6275634765625E-08;-0,0498046875;7;521;3,46789136528969E-07;-3,28995287418366E-07;100 nA
-0,10009765625;268,096265323122;-2,6123046875E-08;-0,0997314453125;7;522;3,46789136528969E-07;-3,28995287418366E-07;100 nA
-0,150146484375;268,596753321858;-2,5909423828125E-08;-0,1495361328125;7;523;3,46789136528969E-07;-3,28995287418366E-07;100 nA
-0,2001953125;269,097241320595;-2,618408203125E-08;-0,199493408203125;7;524;3,46789136528969E-07;-3,28995287418366E-07;100 nA
-0,250244140625;269,597729319331;-2,642822265625E-08;-0,24932861328125;7;525;3,46789136528969E-07;-3,28995287418366E-07;100 nA
-0,30029296875;270,098217318068;-2,7252197265625E-08;-0,299285888671875;7;526;3,46789136528969E-07;-3,28995287418366E-07;100 nA
-0,350341796875;270,598705316804;-2,9388427734375E-08;-0,349212646484375;7;527;3,46789136528969E-07;-3,28995287418366E-07;100 nA
-0,400390625;271,09919331554;-3,1158447265625E-08;-0,3990478515625;7;528;3,46789136528969E-07;-3,28995287418366E-07;100 nA
-0,450439453125;271,599681314277;-1,7822265625E-08;-0,448974609375;7;529;3,46789136528969E-07;-3,28995287418366E-07;100 nA
-0,50048828125;272,100169313013;-1,4556884765625E-08;-0,4989013671875;7;530;3,46789136528969E-07;-3,28995287418366E-07;100 nA
-0,550537109375;272,60065731175;-1,385498046875E-08;-0,54876708984375;7;531;3,46789136528969E-07;-3,28995287418366E-07;100 nA
-0,6005859375;273,101145310486;-1,37939453125E-08;-0,598663330078125;7;532;3,46789136528969E-07;-3,28995287418366E-07;100 nA
-0,650634765625;273,601633309222;-1,35498046875E-08;-0,648529052734375;7;533;3,46789136528969E-07;-3,28995287418366E-07;100 nA
-0,70068359375;274,102121307959;-1,324462890625E-08;-0,698516845703125;7;534;3,46789136528969E-07;-3,28995287418366E-07;100 nA
-0,750732421875;274,602609306695;-1,3153076171875E-08;-0,74859619140625;7;535;3,46789136528969E-07;-3,28995287418366E-07;100 nA
-0,80078125;275,103097305431;-1,409912109375E-08;-0,79833984375;7;536;3,46789136528969E-07;-3,28995287418366E-07;100 nA
-0,850830078125;275,603585304168;-1,6387939453125E-08;-0,8489990234375;7;537;3,46789136528969E-07;-3,28995287418366E-07;100 nA
-0,90087890625;276,104073302904;-2,0721435546875E-08;-0,8984375;7;538;3,46789136528969E-07;-3,28995287418366E-07;100 nA
-0,950927734375;276,604561301641;-2,8594970703125E-08;-0,948486328125;7;539;3,46789136528969E-07;-3,28995287418366E-07;100 nA
-1,0009765625;277,105049300377;-4,00390625E-08;-0,99853515625;7;540;3,46789136528969E-07;-3,28995287418366E-07;100 nA
-0,950927734375;277,605537299113;-2,0263671875E-08;-0,94818115234375;7;541;3,46789136528969E-07;-3,28995287418366E-07;100 nA
-0,90087890625;278,10602529785;-1,0894775390625E-08;-0,89874267578125;7;542;3,46789136528969E-07;-3,28995287418366E-07;100 nA
-0,850830078125;278,606513296586;-6,317138671875E-09;-0,84869384765625;7;543;3,46789136528969E-07;-3,28995287418366E-07;100 nA
-0,80078125;279,107001295323;-4,119873046875E-09;-0,79925537109375;7;544;3,46789136528969E-07;-3,28995287418366E-07;100 nA
-0,750732421875;279,607489294059;-2,655029296875E-09;-0,74859619140625;7;545;3,46789136528969E-07;-3,28995287418366E-07;100 nA
-0,70068359375;280,107977292795;-1,312255859375E-09;-0,698516845703125;7;546;3,46789136528969E-07;-3,28995287418366E-07;100 nA
-0,650634765625;280,608465291532;3,0517578125E-11;-0,6485595703125;7;547;3,46789136528969E-07;-3,28995287418366E-07;100 nA
-0,6005859375;281,108953290268;8,85009765625E-10;-0,598602294921875;7;548;3,46789136528969E-07;-3,28995287418366E-07;100 nA
-0,550537109375;281,609441289005;1,5869140625E-09;-0,548736572265625;7;549;3,46789136528969E-07;-3,28995287418366E-07;100 nA
-0,50048828125;282,109929287741;2,349853515625E-09;-0,498809814453125;7;550;3,46789136528969E-07;-3,28995287418366E-07;100 nA
-0,450439453125;282,610417286477;3,631591796875E-09;-0,448883056640625;7;551;3,46789136528969E-07;-3,28995287418366E-07;100 nA
-0,400390625;283,110905285214;5,767822265625E-09;-0,39898681640625;7;552;3,46789136528969E-07;-3,28995287418366E-07;100 nA
-0,350341796875;283,61139328395;1,220703125E-08;-0,349212646484375;7;553;3,46789136528969E-07;-3,28995287418366E-07;100 nA
-0,30029296875;284,111881282686;2,18505859375E-08;-0,29925537109375;7;554;3,46789136528969E-07;-3,28995287418366E-07;100 nA
-0,250244140625;284,612369281423;2,569580078125E-08;-0,24932861328125;7;555;3,46789136528969E-07;-3,28995287418366E-07;100 nA
-0,2001953125;285,112857280159;2,2918701171875E-08;-0,199432373046875;7;556;3,46789136528969E-07;-3,28995287418366E-07;100 nA
-0,150146484375;285,613345278896;2,1392822265625E-08;-0,149566650390625;7;557;3,46789136528969E-07;-3,28995287418366E-07;100 nA
-0,10009765625;286,113833277632;2,093505859375E-08;-0,099700927734375;7;558;3,46789136528969E-07;-3,28995287418366E-07;100 nA
-0,050048828125;286,614321276368;2,1240234375E-08;-0,0498046875;7;559;3,46789136528969E-07;-3,28995287418366E-07;100 nA
0;287,114809275105;2,227783203125E-08;0,000128173828124994;7;560;3,46789136528969E-07;-3,28995287418366E-07;100 nA
0,050048828125;287,615297273841;2,3468017578125E-08;0,050079345703125;8;561;3,45567241311073E-07;-3,29835340380669E-07;100 nA
0,10009765625;288,115785272578;2,410888671875E-08;0,10003662109375;8;562;3,45567241311073E-07;-3,29835340380669E-07;100 nA
0,150146484375;288,616273271314;2,435302734375E-08;0,1500244140625;8;563;3,45567241311073E-07;-3,29835340380669E-07;100 nA
0,2001953125;289,11676127005;2,4444580078125E-08;0,199951171875;8;564;3,45567241311073E-07;-3,29835340380669E-07;100 nA
0,250244140625;289,617249268787;2,4505615234375E-08;0,25;8;565;3,45567241311073E-07;-3,29835340380669E-07;100 nA
0,30029296875;290,117737267523;2,4139404296875E-08;0,300018310546875;8;566;3,45567241311073E-07;-3,29835340380669E-07;100 nA
0,350341796875;290,61822526626;2,349853515625E-08;0,35003662109375;8;567;3,45567241311073E-07;-3,29835340380669E-07;100 nA
0,400390625;291,118713264996;2,2674560546875E-08;0,399993896484375;8;568;3,45567241311073E-07;-3,29835340380669E-07;100 nA
0,450439453125;291,619201263732;2,166748046875E-08;0,4500732421875;8;569;3,45567241311073E-07;-3,29835340380669E-07;100 nA
0,50048828125;292,119689262469;2,1026611328125E-08;0,500030517578125;8;570;3,45567241311073E-07;-3,29835340380669E-07;100 nA
0,550537109375;292,620177261205;2,0721435546875E-08;0,550079345703125;8;571;3,45567241311073E-07;-3,29835340380669E-07;100 nA
0,6005859375;293,120665259941;2,1484375E-08;0,600067138671875;8;572;3,45567241311073E-07;-3,29835340380669E-07;100 nA
0,650634765625;293,621153258678;2,0904541015625E-08;0,64990234375;8;573;3,45567241311073E-07;-3,29835340380669E-07;100 nA
0,70068359375;294,121641257414;2,0538330078125E-08;0,6998291015625;8;574;3,45567241311073E-07;-3,29835340380669E-07;100 nA
0,750732421875;294,622129256151;2,0538330078125E-08;0,749725341796875;8;575;3,45567241311073E-07;-3,29835340380669E-07;100 nA
0,80078125;295,122617254887;2,093505859375E-08;0,79925537109375;8;576;3,45567241311073E-07;-3,29835340380669E-07;100 nA
0,850830078125;295,623105253623;2,13623046875E-08;0,84991455078125;8;577;3,45567241311073E-07;-3,29835340380669E-07;100 nA
0,90087890625;296,12359325236;2,215576171875E-08;0,899658203125;8;578;3,45567241311073E-07;-3,29835340380669E-07;100 nA
0,950927734375;296,624081251096;2,28271484375E-08;0,94940185546875;8;579;3,45567241311073E-07;-3,29835340380669E-07;100 nA
1,0009765625;297,124569249833;2,3651123046875E-08;1,00006103515625;8;580;3,45567241311073E-07;-3,29835340380669E-07;100 nA
0,950927734375;297,625057248569;1,6448974609375E-08;0,94970703125;8;581;3,45567241311073E-07;-3,29835340380669E-07;100 nA
0,90087890625;298,125545247305;1,2420654296875E-08;0,899658203125;8;582;3,45567241311073E-07;-3,29835340380669E-07;100 nA
0,850830078125;298,626033246042;9,94873046875E-09;0,84930419921875;8;583;3,45567241311073E-07;-3,29835340380669E-07;100 nA
0,80078125;299,126521244778;7,598876953125E-09;0,79986572265625;8;584;3,45567241311073E-07;-3,29835340380669E-07;100 nA
0,750732421875;299,627009243515;6,103515625E-09;0,749847412109375;8;585;3,45567241311073E-07;-3,29835340380669E-07;100 nA
0,70068359375;300,127497242251;4,2724609375E-09;0,699920654296875;8;586;3,45567241311073E-07;-3,29835340380669E-07;100 nA
0,650634765625;300,627985240987;2,01416015625E-09;0,650054931640625;8;587;3,45567241311073E-07;-3,29835340380669E-07;100 nA
0,6005859375;301,128473239724;-1,3427734375E-09;0,60009765625;8;588;3,45567241311073E-07;-3,29835340380669E-07;100 nA
0,550537109375;301,62896123846;-3,204345703125E-09;0,550140380859375;8;589;3,45567241311073E-07;-3,29835340380669E-07;100 nA
0,50048828125;302,129449237196;-2,44140625E-09;0,500152587890625;8;590;3,45567241311073E-07;-3,29835340380669E-07;100 nA
0,450439453125;302,629937235933;-3,570556640625E-09;0,450103759765625;8;591;3,45567241311073E-07;-3,29835340380669E-07;100 nA
0,400390625;303,130425234669;-6,072998046875E-09;0,400146484375;8;592;3,45567241311073E-07;-3,29835340380669E-07;100 nA
0,350341796875;303,630913233406;-9,033203125E-09;0,350128173828125;8;593;3,45567241311073E-07;-3,29835340380669E-07;100 nA
0,30029296875;304,131401232142;-1,2451171875E-08;0,3001708984375;8;594;3,45567241311073E-07;-3,29835340380669E-07;100 nA
0,250244140625;304,631889230878;-1,6143798828125E-08;0,2501220703125;8;595;3,45567241311073E-07;-3,29835340380669E-07;100 nA
0,2001953125;305,132377229615;-1,922607421875E-08;0,200103759765625;8;596;3,45567241311073E-07;-3,29835340380669E-07;100 nA
0,150146484375;305,632865228351;-2,215576171875E-08;0,150054931640625;8;597;3,45567241311073E-07;-3,29835340380669E-07;100 nA
0,10009765625;306,133353227088;-2,4261474609375E-08;0,10015869140625;8;598;3,45567241311073E-07;-3,29835340380669E-07;100 nA
0,050048828125;306,633841225824;-2,5421142578125E-08;0,05010986328125;8;599;3,45567241311073E-07;-3,29835340380669E-07;100 nA
0;307,13432922456;-2,6214599609375E-08;0,000112915039062494;8;600;3,45567241311073E-07;-3,29835340380669E-07;100 nA
-0,050048828125;307,634817223297;-2,6153564453125E-08;-0,0498046875;8;601;3,45567241311073E-07;-3,29835340380669E-07;100 nA
-0,10009765625;308,135305222033;-2,587890625E-08;-0,099609375;8;602;3,45567241311073E-07;-3,29835340380669E-07;100 nA
-0,150146484375;308,63579322077;-2,5665283203125E-08;-0,1495361328125;8;603;3,45567241311073E-07;-3,29835340380669E-07;100 nA
-0,2001953125;309,136281219506;-2,5390625E-08;-0,19940185546875;8;604;3,45567241311073E-07;-3,29835340380669E-07;100 nA
-0,250244140625;309,636769218242;-2,5909423828125E-08;-0,24932861328125;8;605;3,45567241311073E-07;-3,29835340380669E-07;100 nA
-0,30029296875;310,137257216979;-2,655029296875E-08;-0,299224853515625;8;606;3,45567241311073E-07;-3,29835340380669E-07;100 nA
-0,350341796875;310,637745215715;-3,192138671875E-08;-0,349151611328125;8;607;3,45567241311073E-07;-3,29835340380669E-07;100 nA
-0,400390625;311,138233214451;-3,0609130859375E-08;-0,3990478515625;8;608;3,45567241311073E-07;-3,29835340380669E-07;100 nA
-0,450439453125;311,638721213188;-1,8157958984375E-08;-0,449005126953125;8;609;3,45567241311073E-07;-3,29835340380669E-07;100 nA
-0,50048828125;312,139209211924;-1,5106201171875E-08;-0,4989013671875;8;610;3,45567241311073E-07;-3,29835340380669E-07;100 nA
-0,550537109375;312,639697210661;-1,4129638671875E-08;-0,548736572265625;8;611;3,45567241311073E-07;-3,29835340380669E-07;100 nA
-0,6005859375;313,140185209397;-1,3916015625E-08;-0,598663330078125;8;612;3,45567241311073E-07;-3,29835340380669E-07;100 nA
-0,650634765625;313,640673208133;-1,3702392578125E-08;-0,648590087890625;8;613;3,45567241311073E-07;-3,29835340380669E-07;100 nA
-0,70068359375;314,14116120687;-1,336669921875E-08;-0,698577880859375;8;614;3,45567241311073E-07;-3,29835340380669E-07;100 nA
-0,750732421875;314,641649205606;-1,35498046875E-08;-0,748565673828125;8;615;3,45567241311073E-07;-3,29835340380669E-07;100 nA
-0,80078125;315,142137204343;-1,42822265625E-08;-0,79833984375;8;616;3,45567241311073E-07;-3,29835340380669E-07;100 nA
-0,850830078125;315,642625203079;-1,666259765625E-08;-0,84869384765625;8;617;3,45567241311073E-07;-3,29835340380669E-07;100 nA
-0,90087890625;316,143113201815;-2,099609375E-08;-0,89874267578125;8;618;3,45567241311073E-07;-3,29835340380669E-07;100 nA
-0,950927734375;316,643601200552;-2,8717041015625E-08;-0,94879150390625;8;619;3,45567241311073E-07;-3,29835340380669E-07;100 nA
-1,0009765625;317,144089199288;-4,010009765625E-08;-0,99884033203125;8;620;3,45567241311073E-07;-3,29835340380669E-07;100 nA
-0,950927734375;317,644577198025;-2,0294189453125E-08;-0,94879150390625;8;621;3,45567241311073E-07;-3,29835340380669E-07;100 nA
-0,90087890625;318,145065196761;-1,116943359375E-08;-0,89813232421875;8;622;3,45567241311073E-07;-3,29835340380669E-07;100 nA
-0,850830078125;318,645553195497;-6,683349609375E-09;-0,84869384765625;8;623;3,45567241311073E-07;-3,29835340380669E-07;100 nA
-0,80078125;319,146041194234;-4,2724609375E-09;-0,79925537109375;8;624;3,45567241311073E-07;-3,29835340380669E-07;100 nA
-0,750732421875;319,64652919297;-2,74658203125E-09;-0,74853515625;8;625;3,45567241311073E-07;-3,29835340380669E-07;100 nA
-0,70068359375;320,147017191706;-1,52587890625E-09;-0,698577880859375;8;626;3,45567241311073E-07;-3,29835340380669E-07;100 nA
-0,650634765625;320,647505190443;-3,0517578125E-11;-0,6485595703125;8;627;3,45567241311073E-07;-3,29835340380669E-07;100 nA
-0,6005859375;321,147993189179;7,9345703125E-10;-0,5986328125;8;628;3,45567241311073E-07;-3,29835340380669E-07;100 nA
-0,550537109375;321,648481187916;1,495361328125E-09;-0,548736572265625;8;629;3,45567241311073E-07;-3,29835340380669E-07;100 nA
-0,50048828125;322,148969186652;2,288818359375E-09;-0,498809814453125;8;630;3,45567241311073E-07;-3,29835340380669E-07;100 nA
-0,450439453125;322,649457185388;3,448486328125E-09;-0,448883056640625;8;631;3,45567241311073E-07;-3,29835340380669E-07;100 nA
-0,400390625;323,149945184125;5,79833984375E-09;-0,39910888671875;8;632;3,45567241311073E-07;-3,29835340380669E-07;100 nA
-0,350341796875;323,650433182861;1,220703125E-08;-0,349212646484375;8;633;3,45567241311073E-07;-3,29835340380669E-07;100 nA
-0,30029296875;324,150921181598;2,2064208984375E-08;-0,29925537109375;8;634;3,45567241311073E-07;-3,29835340380669E-07;100 nA
-0,250244140625;324,651409180334;2,5482177734375E-08;-0,24932861328125;8;635;3,45567241311073E-07;-3,29835340380669E-07;100 nA
-0,2001953125;325,15189717907;2,28271484375E-08;-0,199462890625;8;636;3,45567241311073E-07;-3,29835340380669E-07;100 nA
-0,150146484375;325,652385177807;2,1209716796875E-08;-0,149566650390625;8;637;3,45567241311073E-07;-3,29835340380669E-07;100 nA
-0,10009765625;326,152873176543;2,1087646484375E-08;-0,099639892578125;8;638;3,45567241311073E-07;-3,29835340380669E-07;100 nA
-0,050048828125;326,65336117528;2,142333984375E-08;-0,049737548828125;8;639;3,45567241311073E-07;-3,29835340380669E-07;100 nA
0;327,153849174016;2,252197265625E-08;0,000140380859374997;8;640;3,45567241311073E-07;-3,29835340380669E-07;100 nA
0,050048828125;327,654337172752;2,3681640625E-08;0,0501708984375;9;641;3,42420861124992E-07;-3,29117476940155E-07;100 nA
0,10009765625;328,154825171489;2,4261474609375E-08;0,10003662109375;9;642;3,42420861124992E-07;-3,29117476940155E-07;100 nA
0,150146484375;328,655313170225;2,4658203125E-08;0,150146484375;9;643;3,42420861124992E-07;-3,29117476940155E-07;100 nA
0,2001953125;329,155801168961;2,4810791015625E-08;0,2000732421875;9;644;3,42420861124992E-07;-3,29117476940155E-07;100 nA
0,250244140625;329,656289167698;2,5146484375E-08;0,250030517578125;9;645;3,42420861124992E-07;-3,29117476940155E-07;100 nA
0,30029296875;330,156777166434;2,4322509765625E-08;0,29998779296875;9;646;3,42420861124992E-07;-3,29117476940155E-07;100 nA
0,350341796875;330,657265165171;2,62451171875E-08;0,350067138671875;9;647;3,42420861124992E-07;-3,29117476940155E-07;100 nA
0,400390625;331,157753163907;2,4169921875E-08;0,4000244140625;9;648;3,42420861124992E-07;-3,29117476940155E-07;100 nA
0,450439453125;331,658241162643;1,837158203125E-08;0,449981689453125;9;649;3,42420861124992E-07;-3,29117476940155E-07;100 nA
0,50048828125;332,15872916138;1,7578125E-08;0,500030517578125;9;650;3,42420861124992E-07;-3,29117476940155E-07;100 nA
0,550537109375;332,659217160116;2,0721435546875E-08;0,550048828125;9;651;3,42420861124992E-07;-3,29117476940155E-07;100 nA
0,6005859375;333,159705158853;2,1881103515625E-08;0,600006103515625;9;652;3,42420861124992E-07;-3,29117476940155E-07;100 nA
0,650634765625;333,660193157589;2,1331787109375E-08;0,649993896484375;9;653;3,42420861124992E-07;-3,29117476940155E-07;100 nA
0,70068359375;334,160681156325;2,099609375E-08;0,6998291015625;9;654;3,42420861124992E-07;-3,29117476940155E-07;100 nA
0,750732421875;334,661169155062;2,044677734375E-08;0,749755859375;9;655;3,42420861124992E-07;-3,29117476940155E-07;100 nA
0,80078125;335,161657153798;2,1026611328125E-08;0,799560546875;9;656;3,42420861124992E-07;-3,29117476940155E-07;100 nA
0,850830078125;335,662145152535;1,84326171875E-08;0,84991455078125;9;657;3,42420861124992E-07;-3,29117476940155E-07;100 nA
0,90087890625;336,162633151271;2,1636962890625E-08;0,899658203125;9;658;3,42420861124992E-07;-3,29117476940155E-07;100 nA
0,950927734375;336,663121150007;2,203369140625E-08;0,94940185546875;9;659;3,42420861124992E-07;-3,29117476940155E-07;100 nA
1,0009765625;337,163609148744;2,4505615234375E-08;0,99945068359375;9;660;3,42420861124992E-07;-3,29117476940155E-07;100 nA
0,950927734375;337,66409714748;1,641845703125E-08;0,9490966796875;9;661;3,42420861124992E-07;-3,29117476940155E-07;100 nA
0,90087890625;338,164585146217;1,1993408203125E-08;0,899658203125;9;662;3,42420861124992E-07;-3,29117476940155E-07;100 nA
0,850830078125;338,665073144953;9,490966796875E-09;0,849609375;9;663;3,42420861124992E-07;-3,29117476940155E-07;100 nA
0,80078125;339,165561143689;6,9580078125E-09;0,799560546875;9;664;3,42420861124992E-07;-3,29117476940155E-07;100 nA
0,750732421875;339,666049142426;5,706787109375E-09;0,74981689453125;9;665;3,42420861124992E-07;-3,29117476940155E-07;100 nA
0,70068359375;340,166537141162;4,486083984375E-09;0,699920654296875;9;666;3,42420861124992E-07;-3,29117476940155E-07;100 nA
0,650634765625;340,667025139898;1,8310546875E-09;0,6500244140625;9;667;3,42420861124992E-07;-3,29117476940155E-07;100 nA
0,6005859375;341,167513138635;-1,77001953125E-09;0,60009765625;9;668;3,42420861124992E-07;-3,29117476940155E-07;100 nA
0,550537109375;341,668001137371;-3,11279296875E-09;0,550079345703125;9;669;3,42420861124992E-07;-3,29117476940155E-07;100 nA
0,50048828125;342,168489136108;-2,50244140625E-09;0,5001220703125;9;670;3,42420861124992E-07;-3,29117476940155E-07;100 nA
0,450439453125;342,668977134844;-3,753662109375E-09;0,450103759765625;9;671;3,42420861124992E-07;-3,29117476940155E-07;100 nA
0,400390625;343,16946513358;-6,195068359375E-09;0,400146484375;9;672;3,42420861124992E-07;-3,29117476940155E-07;100 nA
0,350341796875;343,669953132317;-9,368896484375E-09;0,35015869140625;9;673;3,42420861124992E-07;-3,29117476940155E-07;100 nA
0,30029296875;344,170441131053;-1,287841796875E-08;0,3001708984375;9;674;3,42420861124992E-07;-3,29117476940155E-07;100 nA
0,250244140625;344,67092912979;-1,6571044921875E-08;0,2501220703125;9;675;3,42420861124992E-07;-3,29117476940155E-07;100 nA
0,2001953125;345,171417128526;-1,9317626953125E-08;0,200103759765625;9;676;3,42420861124992E-07;-3,29117476940155E-07;100 nA
0,150146484375;345,671905127262;-2,227783203125E-08;0,150177001953125;9;677;3,42420861124992E-07;-3,29117476940155E-07;100 nA
0,10009765625;346,172393125999;-2,4261474609375E-08;0,100189208984375;9;678;3,42420861124992E-07;-3,29117476940155E-07;100 nA
0,050048828125;346,672881124735;-2,55126953125E-08;0,05010986328125;9;679;3,42420861124992E-07;-3,29117476940155E-07;100 nA
0;347,173369123472;-2,6031494140625E-08;0,0001373291015625;9;680;3,42420861124992E-07;-3,29117476940155E-07;100 nA
-0,050048828125;347,673857122208;-2,5970458984375E-08;-0,04971923828125;9;681;3,42420861124992E-07;-3,29117476940155E-07;100 nA
-0,10009765625;348,174345120944;-2,5909423828125E-08;-0,099700927734375;9;682;3,42420861124992E-07;-3,29117476940155E-07;100 nA
-0,150146484375;348,674833119681;-2,5604248046875E-08;-0,149566650390625;9;683;3,42420861124992E-07;-3,29117476940155E-07;100 nA
-0,2001953125;349,175321118417;-2,5634765625E-08;-0,199432373046875;9;684;3,42420861124992E-07;-3,29117476940155E-07;100 nA
-0,250244140625;349,675809117153;-2,606201171875E-08;-0,249298095703125;9;685;3,42420861124992E-07;-3,29117476940155E-07;100 nA
-0,30029296875;350,17629711589;-2,69775390625E-08;-0,2991943359375;9;686;3,42420861124992E-07;-3,29117476940155E-07;100 nA
-0,350341796875;350,676785114626;-2,89306640625E-08;-0,34912109375;9;687;3,42420861124992E-07;-3,29117476940155E-07;100 nA
-0,400390625;351,177273113363;-3,1280517578125E-08;-0,399078369140625;9;688;3,42420861124992E-07;-3,29117476940155E-07;100 nA
-0,450439453125;351,677761112099;-1,8035888671875E-08;-0,44891357421875;9;689;3,42420861124992E-07;-3,29117476940155E-07;100 nA
-0,50048828125;352,178249110835;-1,458740234375E-08;-0,49884033203125;9;690;3,42420861124992E-07;-3,29117476940155E-07;100 nA
-0,550537109375;352,678737109572;-1,3946533203125E-08;-0,5487060546875;9;691;3,42420861124992E-07;-3,29117476940155E-07;100 nA
-0,6005859375;353,179225108308;-1,3702392578125E-08;-0,598663330078125;9;692;3,42420861124992E-07;-3,29117476940155E-07;100 nA
-0,650634765625;353,679713107045;-1,35498046875E-08;-0,648590087890625;9;693;3,42420861124992E-07;-3,29117476940155E-07;100 nA
-0,70068359375;354,180201105781;-1,3519287109375E-08;-0,698577880859375;9;694;3,42420861124992E-07;-3,29117476940155E-07;100 nA
-0,750732421875;354,680689104517;-1,33056640625E-08;-0,748626708984375;9;695;3,42420861124992E-07;-3,29117476940155E-07;100 nA
-0,80078125;355,181177103254;-1,434326171875E-08;-0,79864501953125;9;696;3,42420861124992E-07;-3,29117476940155E-07;100 nA
-0,850830078125;355,68166510199;-1,6387939453125E-08;-0,84869384765625;9;697;3,42420861124992E-07;-3,29117476940155E-07;100 nA
-0,90087890625;356,182153100727;-2,0721435546875E-08;-0,89874267578125;9;698;3,42420861124992E-07;-3,29117476940155E-07;100 nA
-0,950927734375;356,682641099463;-2,8472900390625E-08;-0,94879150390625;9;699;3,42420861124992E-07;-3,29117476940155E-07;100 nA
-1,0009765625;357,183129098199;-3,9825439453125E-08;-0,99945068359375;9;700;3,42420861124992E-07;-3,29117476940155E-07;100 nA
-0,950927734375;357,683617096936;-2,0172119140625E-08;-0,94879150390625;9;701;3,42420861124992E-07;-3,29117476940155E-07;100 nA
-0,90087890625;358,184105095672;-1,0986328125E-08;-0,8990478515625;9;702;3,42420861124992E-07;-3,29117476940155E-07;100 nA
-0,850830078125;358,684593094408;-6,744384765625E-09;-0,84869384765625;9;703;3,42420861124992E-07;-3,29117476940155E-07;100 nA
-0,80078125;359,185081093145;-4,39453125E-09;-0,7989501953125;9;704;3,42420861124992E-07;-3,29117476940155E-07;100 nA
-0,750732421875;359,685569091881;-2,99072265625E-09;-0,74871826171875;9;705;3,42420861124992E-07;-3,29117476940155E-07;100 nA
-0,70068359375;360,186057090618;-1,708984375E-09;-0,698638916015625;9;706;3,42420861124992E-07;-3,29117476940155E-07;100 nA
-0,650634765625;360,686545089354;-2,74658203125E-10;-0,648651123046875;9;707;3,42420861124992E-07;-3,29117476940155E-07;100 nA
-0,6005859375;361,18703308809;5,18798828125E-10;-0,598724365234375;9;708;3,42420861124992E-07;-3,29117476940155E-07;100 nA
-0,550537109375;361,687521086827;1,556396484375E-09;-0,548797607421875;9;709;3,42420861124992E-07;-3,29117476940155E-07;100 nA
-0,50048828125;362,188009085563;2,532958984375E-09;-0,498931884765625;9;710;3,42420861124992E-07;-3,29117476940155E-07;100 nA
-0,450439453125;362,6884970843;3,082275390625E-09;-0,448974609375;9;711;3,42420861124992E-07;-3,29117476940155E-07;100 nA
-0,400390625;363,188985083036;6,378173828125E-09;-0,399200439453125;9;712;3,42420861124992E-07;-3,29117476940155E-07;100 nA
-0,350341796875;363,689473081772;1,2237548828125E-08;-0,3492431640625;9;713;3,42420861124992E-07;-3,29117476940155E-07;100 nA
-0,30029296875;364,189961080509;2,191162109375E-08;-0,299346923828125;9;714;3,42420861124992E-07;-3,29117476940155E-07;100 nA
-0,250244140625;364,690449079245;2,520751953125E-08;-0,24945068359375;9;715;3,42420861124992E-07;-3,29117476940155E-07;100 nA
-0,2001953125;365,190937077982;2,24609375E-08;-0,199493408203125;9;716;3,42420861124992E-07;-3,29117476940155E-07;100 nA
-0,150146484375;365,691425076718;2,0965576171875E-08;-0,149658203125;9;717;3,42420861124992E-07;-3,29117476940155E-07;100 nA
-0,10009765625;366,191913075454;2,081298828125E-08;-0,099700927734375;9;718;3,42420861124992E-07;-3,29117476940155E-07;100 nA
-0,050048828125;366,692401074191;2,1148681640625E-08;-0,04986572265625;9;719;3,42420861124992E-07;-3,29117476940155E-07;100 nA
0;367,192889072927;2,2216796875E-08;0,000112915039062494;9;720;3,42420861124992E-07;-3,29117476940155E-07;100 nA
0,050048828125;367,693377071663;2,34375E-08;0,050018310546875;10;721;3,44788283109665E-07;-3,32141667604446E-07;100 nA
0,10009765625;368,1938650704;2,4200439453125E-08;0,100006103515625;10;722;3,44788283109665E-07;-3,32141667604446E-07;100 nA
0,150146484375;368,694353069136;2,459716796875E-08;0,150054931640625;10;723;3,44788283109665E-07;-3,32141667604446E-07;100 nA
0,2001953125;369,194841067873;2,4627685546875E-08;0,200042724609375;10;724;3,44788283109665E-07;-3,32141667604446E-07;100 nA
0,250244140625;369,695329066609;2,45361328125E-08;0,250030517578125;10;725;3,44788283109665E-07;-3,32141667604446E-07;100 nA
0,30029296875;370,195817065345;2,45361328125E-08;0,300048828125;10;726;3,44788283109665E-07;-3,32141667604446E-07;100 nA
0,350341796875;370,696305064082;2,3468017578125E-08;0,350067138671875;10;727;3,44788283109665E-07;-3,32141667604446E-07;100 nA
0,400390625;371,196793062818;2,0599365234375E-08;0,400115966796875;10;728;3,44788283109665E-07;-3,32141667604446E-07;100 nA
0,450439453125;371,697281061555;2,2186279296875E-08;0,45001220703125;10;729;3,44788283109665E-07;-3,32141667604446E-07;100 nA
0,50048828125;372,197769060291;1,776123046875E-08;0,500091552734375;10;730;3,44788283109665E-07;-3,32141667604446E-07;100 nA
0,550537109375;372,698257059027;1,9989013671875E-08;0,55010986328125;10;731;3,44788283109665E-07;-3,32141667604446E-07;100 nA
0,6005859375;373,198745057764;2,178955078125E-08;0,600067138671875;10;732;3,44788283109665E-07;-3,32141667604446E-07;100 nA
0,650634765625;373,6992330565;2,178955078125E-08;0,6500244140625;10;733;3,44788283109665E-07;-3,32141667604446E-07;100 nA
0,70068359375;374,199721055237;2,2247314453125E-08;0,699951171875;10;734;3,44788283109665E-07;-3,32141667604446E-07;100 nA
0,750732421875;374,700209053973;2,0904541015625E-08;0,74981689453125;10;735;3,44788283109665E-07;-3,32141667604446E-07;100 nA
0,80078125;375,200697052709;2,1820068359375E-08;0,79986572265625;10;736;3,44788283109665E-07;-3,32141667604446E-07;100 nA
0,850830078125;375,701185051446;2,1881103515625E-08;0,85052490234375;10;737;3,44788283109665E-07;-3,32141667604446E-07;100 nA
0,90087890625;376,201673050182;2,30712890625E-08;0,899658203125;10;738;3,44788283109665E-07;-3,32141667604446E-07;100 nA
0,950927734375;376,702161048918;2,2979736328125E-08;0,94970703125;10;739;3,44788283109665E-07;-3,32141667604446E-07;100 nA
1,0009765625;377,202649047655;2,3895263671875E-08;0,9991455078125;10;740;3,44788283109665E-07;-3,32141667604446E-07;100 nA
0,950927734375;377,703137046391;1,62353515625E-08;0,94970703125;10;741;3,44788283109665E-07;-3,32141667604446E-07;100 nA
0,90087890625;378,203625045128;1,263427734375E-08;0,899658203125;10;742;3,44788283109665E-07;-3,32141667604446E-07;100 nA
0,850830078125;378,704113043864;8,636474609375E-09;0,84930419921875;10;743;3,44788283109665E-07;-3,32141667604446E-07;100 nA
0,80078125;379,2046010426;6,561279296875E-09;0,79986572265625;10;744;3,44788283109665E-07;-3,32141667604446E-07;100 nA
0,750732421875;379,705089041337;1,06201171875E-08;0,74981689453125;10;745;3,44788283109665E-07;-3,32141667604446E-07;100 nA
0,70068359375;380,205577040073;2,74658203125E-09;0,699920654296875;10;746;3,44788283109665E-07;-3,32141667604446E-07;100 nA
0,650634765625;380,70606503881;-3,936767578125E-09;0,6500244140625;10;747;3,44788283109665E-07;-3,32141667604446E-07;100 nA
0,6005859375;381,206553037546;-2,288818359375E-09;0,600128173828125;10;748;3,44788283109665E-07;-3,32141667604446E-07;100 nA
0,550537109375;381,707041036282;-5,31005859375E-09;0,550048828125;10;749;3,44788283109665E-07;-3,32141667604446E-07;100 nA
0,50048828125;382,207529035019;-2,838134765625E-09;0,50006103515625;10;750;3,44788283109665E-07;-3,32141667604446E-07;100 nA
0,450439453125;382,708017033755;-4,150390625E-09;0,450103759765625;10;751;3,44788283109665E-07;-3,32141667604446E-07;100 nA
0,400390625;383,208505032492;-6,500244140625E-09;0,40008544921875;10;752;3,44788283109665E-07;-3,32141667604446E-07;100 nA
0,350341796875;383,708993031228;-9,70458984375E-09;0,350067138671875;10;753;3,44788283109665E-07;-3,32141667604446E-07;100 nA
0,30029296875;384,209481029964;-1,3427734375E-08;0,300079345703125;10;754;3,44788283109665E-07;-3,32141667604446E-07;100 nA
0,250244140625;384,709969028701;-1,6632080078125E-08;0,25006103515625;10;755;3,44788283109665E-07;-3,32141667604446E-07;100 nA
0,2001953125;385,210457027437;-1,9927978515625E-08;0,2000732421875;10;756;3,44788283109665E-07;-3,32141667604446E-07;100 nA
0,150146484375;385,710945026173;-2,264404296875E-08;0,15008544921875;10;757;3,44788283109665E-07;-3,32141667604446E-07;100 nA
0,10009765625;386,21143302491;-2,4658203125E-08;0,10009765625;10;758;3,44788283109665E-07;-3,32141667604446E-07;100 nA
0,050048828125;386,711921023646;-2,57568359375E-08;0,050079345703125;10;759;3,44788283109665E-07;-3,32141667604446E-07;100 nA
0;387,212409022383;-2,6153564453125E-08;0,0001220703125;10;760;3,44788283109665E-07;-3,32141667604446E-07;100 nA
-0,050048828125;387,712897021119;-2,6336669921875E-08;-0,04986572265625;10;761;3,44788283109665E-07;-3,32141667604446E-07;100 nA
-0,10009765625;388,213385019855;-2,6214599609375E-08;-0,0997314453125;10;762;3,44788283109665E-07;-3,32141667604446E-07;100 nA
-0,150146484375;388,713873018592;-2,587890625E-08;-0,149566650390625;10;763;3,44788283109665E-07;-3,32141667604446E-07;100 nA
-0,2001953125;389,214361017328;-2,587890625E-08;-0,199462890625;10;764;3,44788283109665E-07;-3,32141667604446E-07;100 nA
-0,250244140625;389,714849016065;-2,618408203125E-08;-0,24932861328125;10;765;3,44788283109665E-07;-3,32141667604446E-07;100 nA
-0,30029296875;390,215337014801;-2,7130126953125E-08;-0,299224853515625;10;766;3,44788283109665E-07;-3,32141667604446E-07;100 nA
-0,350341796875;390,715825013537;-2,886962890625E-08;-0,349151611328125;10;767;3,44788283109665E-07;-3,32141667604446E-07;100 nA
-0,400390625;391,216313012274;-3,131103515625E-08;-0,3990478515625;10;768;3,44788283109665E-07;-3,32141667604446E-07;100 nA
-0,450439453125;391,71680101101;-1,8157958984375E-08;-0,448944091796875;10;769;3,44788283109665E-07;-3,32141667604446E-07;100 nA
-0,50048828125;392,217289009747;-1,4556884765625E-08;-0,498809814453125;10;770;3,44788283109665E-07;-3,32141667604446E-07;100 nA
-0,550537109375;392,717777008483;-1,3671875E-08;-0,5487060546875;10;771;3,44788283109665E-07;-3,32141667604446E-07;100 nA
-0,6005859375;393,218265007219;-1,3671875E-08;-0,5986328125;10;772;3,44788283109665E-07;-3,32141667604446E-07;100 nA
-0,650634765625;393,718753005956;-1,348876953125E-08;-0,6485595703125;10;773;3,44788283109665E-07;-3,32141667604446E-07;100 nA
-0,70068359375;394,219241004692;-1,2969970703125E-08;-0,698577880859375;10;774;3,44788283109665E-07;-3,32141667604446E-07;100 nA
-0,750732421875;394,719729003428;-1,3214111328125E-08;-0,74853515625;10;775;3,44788283109665E-07;-3,32141667604446E-07;100 nA
-0,80078125;395,220217002165;-1,4068603515625E-08;-0,79833984375;10;776;3,44788283109665E-07;-3,32141667604446E-07;100 nA
-0,850830078125;395,720705000901;-1,6265869140625E-08;-0,8489990234375;10;777;3,44788283109665E-07;-3,32141667604446E-07;100 nA
-0,90087890625;396,221192999638;-2,044677734375E-08;-0,8990478515625;10;778;3,44788283109665E-07;-3,32141667604446E-07;100 nA
-0,950927734375;396,721680998374;-2,8106689453125E-08;-0,94879150390625;10;779;3,44788283109665E-07;-3,32141667604446E-07;100 nA
-1,0009765625;397,22216899711;-3,924560546875E-08;-0,99884033203125;10;780;3,44788283109665E-07;-3,32141667604446E-07;100 nA
-0,950927734375;397,722656995847;-1,96533203125E-08;-0,9490966796875;10;781;3,44788283109665E-07;-3,32141667604446E-07;100 nA
-0,90087890625;398,223144994583;-1,0284423828125E-08;-0,89874267578125;10;782;3,44788283109665E-07;-3,32141667604446E-07;100 nA
-0,850830078125;398,72363299332;-6,195068359375E-09;-0,84869384765625;10;783;3,44788283109665E-07;-3,32141667604446E-07;100 nA
-0,80078125;399,224120992056;-3,997802734375E-09;-0,79864501953125;10;784;3,44788283109665E-07;-3,32141667604446E-07;100 nA
-0,750732421875;399,724608990792;-2,62451171875E-09;-0,74859619140625;10;785;3,44788283109665E-07;-3,32141667604446E-07;100 nA
-0,70068359375;400,225096989529;-1,28173828125E-09;-0,698516845703125;10;786;3,44788283109665E-07;-3,32141667604446E-07;100 nA
-0,650634765625;400,725584988265;3,0517578125E-11;-0,648529052734375;10;787;3,44788283109665E-07;-3,32141667604446E-07;100 nA
-0,6005859375;401,226072987002;8,23974609375E-10;-0,598602294921875;10;788;3,44788283109665E-07;-3,32141667604446E-07;100 nA
-0,550537109375;401,726560985738;1,434326171875E-09;-0,548797607421875;10;789;3,44788283109665E-07;-3,32141667604446E-07;100 nA
-0,50048828125;402,227048984474;2,288818359375E-09;-0,49884033203125;10;790;3,44788283109665E-07;-3,32141667604446E-07;100 nA
-0,450439453125;402,727536983211;3,41796875E-09;-0,448974609375;10;791;3,44788283109665E-07;-3,32141667604446E-07;100 nA
-0,400390625;403,228024981947;5,950927734375E-09;-0,3990478515625;10;792;3,44788283109665E-07;-3,32141667604446E-07;100 nA
-0,350341796875;403,728512980683;1,2542724609375E-08;-0,34918212890625;10;793;3,44788283109665E-07;-3,32141667604446E-07;100 nA
-0,30029296875;404,22900097942;2,227783203125E-08;-0,29931640625;10;794;3,44788283109665E-07;-3,32141667604446E-07;100 nA
-0,250244140625;404,729488978156;2,508544921875E-08;-0,249420166015625;10;795;3,44788283109665E-07;-3,32141667604446E-07;100 nA
-0,2001953125;405,229976976893;2,2308349609375E-08;-0,199493408203125;10;796;3,44788283109665E-07;-3,32141667604446E-07;100 nA
-0,150146484375;405,730464975629;2,0965576171875E-08;-0,14959716796875;10;797;3,44788283109665E-07;-3,32141667604446E-07;100 nA
-0,10009765625;406,230952974365;2,0751953125E-08;-0,099761962890625;10;798;3,44788283109665E-07;-3,32141667604446E-07;100 nA
-0,050048828125;406,731440973102;2,105712890625E-08;-0,049835205078125;10;799;3,44788283109665E-07;-3,32141667604446E-07;100 nA
0;407,231928971838;2,2216796875E-08;0,000134277343750003;10;800;3,44788283109665E-07;-3,32141667604446E-07;100 nA
