Potential applied (V);Time (s);WE(1).Current (A);WE(1).Potential (V);Scan;Index;Q+;Q-;Current range
0,050048828125;8,8299969777064;1,0040283203125E-09;0,05010986328125;1;1;8,06053727865219E-08;-9,01269912719727E-08;100 nA
0,10009765625;9,33048497644279;1,776123046875E-09;0,10009765625;1;2;8,06053727865219E-08;-9,01269912719727E-08;100 nA
0,150146484375;9,83097297517918;2,520751953125E-09;0,150115966796875;1;3;8,06053727865219E-08;-9,01269912719727E-08;100 nA
0,2001953125;10,3314609739156;3,1036376953125E-09;0,2000732421875;1;4;8,06053727865219E-08;-9,01269912719727E-08;100 nA
0,250244140625;10,831948972652;3,9459228515625E-09;0,250091552734375;1;5;8,06053727865219E-08;-9,01269912719727E-08;100 nA
0,30029296875;11,3324369713883;4,8065185546875E-09;0,30010986328125;1;6;8,06053727865219E-08;-9,01269912719727E-08;100 nA
0,350341796875;11,8329249701247;5,5694580078125E-09;0,35015869140625;1;7;8,06053727865219E-08;-9,01269912719727E-08;100 nA
0,400390625;12,3334129688611;6,317138671875E-09;0,400177001953125;1;8;8,06053727865219E-08;-9,01269912719727E-08;100 nA
0,450439453125;12,8339009675975;6,8572998046875E-09;0,45013427734375;1;9;8,06053727865219E-08;-9,01269912719727E-08;100 nA
0,50048828125;13,3343889663339;7,0556640625E-09;0,50006103515625;1;10;8,06053727865219E-08;-9,01269912719727E-08;100 nA
0,550537109375;13,8348769650703;7,2174072265625E-09;0,550140380859375;1;11;8,06053727865219E-08;-9,01269912719727E-08;100 nA
0,6005859375;14,3353649638067;7,177734375E-09;0,60003662109375;1;12;8,06053727865219E-08;-9,01269912719727E-08;100 nA
0,650634765625;14,8358529625431;7,09228515625E-09;0,6500244140625;1;13;8,06053727865219E-08;-9,01269912719727E-08;100 nA
0,70068359375;15,3363409612795;7,0404052734375E-09;0,699920654296875;1;14;8,06053727865219E-08;-9,01269912719727E-08;100 nA
0,750732421875;15,8368289600159;6,8634033203125E-09;0,749786376953125;1;15;8,06053727865219E-08;-9,01269912719727E-08;100 nA
0,80078125;16,3373169587522;6,75048828125E-09;0,79986572265625;1;16;8,06053727865219E-08;-9,01269912719727E-08;100 nA
0,850830078125;16,8378049574886;6,65283203125E-09;0,849609375;1;17;8,06053727865219E-08;-9,01269912719727E-08;100 nA
0,90087890625;17,338292956225;6,634521484375E-09;0,89996337890625;1;18;8,06053727865219E-08;-9,01269912719727E-08;100 nA
0,950927734375;17,8387809549614;6,7535400390625E-09;0,94970703125;1;19;8,06053727865219E-08;-9,01269912719727E-08;100 nA
1,0009765625;18,3392689536978;6,9091796875E-09;1,00006103515625;1;20;8,06053727865219E-08;-9,01269912719727E-08;100 nA
0,950927734375;18,8397569524342;3,91845703125E-09;0,94970703125;1;21;8,06053727865219E-08;-9,01269912719727E-08;100 nA
0,90087890625;19,3402449511706;2,545166015625E-09;0,89996337890625;1;22;8,06053727865219E-08;-9,01269912719727E-08;100 nA
0,850830078125;19,840732949907;1,690673828125E-09;0,849609375;1;23;8,06053727865219E-08;-9,01269912719727E-08;100 nA
0,80078125;20,3412209486434;1,1993408203125E-09;0,799560546875;1;24;8,06053727865219E-08;-9,01269912719727E-08;100 nA
0,750732421875;20,8417089473797;6,683349609375E-10;0,74981689453125;1;25;8,06053727865219E-08;-9,01269912719727E-08;100 nA
0,70068359375;21,3421969461161;2,62451171875E-10;0,699920654296875;1;26;8,06053727865219E-08;-9,01269912719727E-08;100 nA
0,650634765625;21,8426849448525;-8,85009765625E-11;0,650054931640625;1;27;8,06053727865219E-08;-9,01269912719727E-08;100 nA
0,6005859375;22,3431729435889;-5,0048828125E-10;0,60003662109375;1;28;8,06053727865219E-08;-9,01269912719727E-08;100 nA
0,550537109375;22,8436609423253;-9,674072265625E-10;0,550018310546875;1;29;8,06053727865219E-08;-9,01269912719727E-08;100 nA
0,50048828125;23,3441489410617;-1,4434814453125E-09;0,50006103515625;1;30;8,06053727865219E-08;-9,01269912719727E-08;100 nA
0,450439453125;23,8446369397981;-1,9134521484375E-09;0,45001220703125;1;31;8,06053727865219E-08;-9,01269912719727E-08;100 nA
0,400390625;24,3451249385345;-2,581787109375E-09;0,400054931640625;1;32;8,06053727865219E-08;-9,01269912719727E-08;100 nA
0,350341796875;24,8456129372709;-3,3111572265625E-09;0,35003662109375;1;33;8,06053727865219E-08;-9,01269912719727E-08;100 nA
0,30029296875;25,3461009360072;-4,18701171875E-09;0,30010986328125;1;34;8,06053727865219E-08;-9,01269912719727E-08;100 nA
0,250244140625;25,8465889347436;-5,029296875E-09;0,250030517578125;1;35;8,06053727865219E-08;-9,01269912719727E-08;100 nA
0,2001953125;26,34707693348;-5,877685546875E-09;0,2000732421875;1;36;8,06053727865219E-08;-9,01269912719727E-08;100 nA
0,150146484375;26,8475649322164;-6,7138671875E-09;0,1500244140625;1;37;8,06053727865219E-08;-9,01269912719727E-08;100 nA
0,10009765625;27,3480529309528;-7,5286865234375E-09;0,10003662109375;1;38;8,06053727865219E-08;-9,01269912719727E-08;100 nA
0,050048828125;27,8485409296892;-8,5662841796875E-09;0,05010986328125;1;39;8,06053727865219E-08;-9,01269912719727E-08;100 nA
0;28,3490289284256;-1,0577392578125E-08;0,0001220703125;1;40;8,06053727865219E-08;-9,01269912719727E-08;100 nA
-0,050048828125;28,849516927162;-1,324462890625E-08;-0,049725341796875;1;41;8,06053727865219E-08;-9,01269912719727E-08;100 nA
-0,10009765625;29,3500049258984;-1,1651611328125E-08;-0,099639892578125;1;42;8,06053727865219E-08;-9,01269912719727E-08;100 nA
-0,150146484375;29,8504929246348;-5,1971435546875E-09;-0,149444580078125;1;43;8,06053727865219E-08;-9,01269912719727E-08;100 nA
-0,2001953125;30,3509809233711;-4,449462890625E-09;-0,199462890625;1;44;8,06053727865219E-08;-9,01269912719727E-08;100 nA
-0,250244140625;30,8514689221075;-4,6783447265625E-09;-0,249359130859375;1;45;8,06053727865219E-08;-9,01269912719727E-08;100 nA
-0,30029296875;31,3519569208439;-5,023193359375E-09;-0,299224853515625;1;46;8,06053727865219E-08;-9,01269912719727E-08;100 nA
-0,350341796875;31,8524449195803;-5,1116943359375E-09;-0,34918212890625;1;47;8,06053727865219E-08;-9,01269912719727E-08;100 nA
-0,400390625;32,3529329183167;-4,9713134765625E-09;-0,3990478515625;1;48;8,06053727865219E-08;-9,01269912719727E-08;100 nA
-0,450439453125;32,8534209170531;-4,94384765625E-09;-0,448944091796875;1;49;8,06053727865219E-08;-9,01269912719727E-08;100 nA
-0,50048828125;33,3539089157895;-4,962158203125E-09;-0,49884033203125;1;50;8,06053727865219E-08;-9,01269912719727E-08;100 nA
-0,550537109375;33,8543969145259;-4,9560546875E-09;-0,548736572265625;1;51;8,06053727865219E-08;-9,01269912719727E-08;100 nA
-0,6005859375;34,3548849132623;-4,864501953125E-09;-0,59857177734375;1;52;8,06053727865219E-08;-9,01269912719727E-08;100 nA
-0,650634765625;34,8553729119986;-4,82177734375E-09;-0,648590087890625;1;53;8,06053727865219E-08;-9,01269912719727E-08;100 nA
-0,70068359375;35,355860910735;-4,82177734375E-09;-0,6986083984375;1;54;8,06053727865219E-08;-9,01269912719727E-08;100 nA
-0,750732421875;35,8563489094714;-4,7943115234375E-09;-0,74859619140625;1;55;8,06053727865219E-08;-9,01269912719727E-08;100 nA
-0,80078125;36,3568369082078;-4,7576904296875E-09;-0,79864501953125;1;56;8,06053727865219E-08;-9,01269912719727E-08;100 nA
-0,850830078125;36,8573249069442;-4,8431396484375E-09;-0,8489990234375;1;57;8,06053727865219E-08;-9,01269912719727E-08;100 nA
-0,90087890625;37,3578129056806;-4,8583984375E-09;-0,8984375;1;58;8,06053727865219E-08;-9,01269912719727E-08;100 nA
-0,950927734375;37,858300904417;-4,998779296875E-09;-0,9490966796875;1;59;8,06053727865219E-08;-9,01269912719727E-08;100 nA
-1,0009765625;38,3587889031534;-5,2001953125E-09;-0,9991455078125;1;60;8,06053727865219E-08;-9,01269912719727E-08;100 nA
-0,950927734375;38,8592769018898;-3,1005859375E-09;-0,948486328125;1;61;8,06053727865219E-08;-9,01269912719727E-08;100 nA
-0,90087890625;39,3597649006261;-1,9775390625E-09;-0,8984375;1;62;8,06053727865219E-08;-9,01269912719727E-08;100 nA
-0,850830078125;39,8602528993625;-1,300048828125E-09;-0,84869384765625;1;63;8,06053727865219E-08;-9,01269912719727E-08;100 nA
-0,80078125;40,3607408980989;-7,965087890625E-10;-0,79864501953125;1;64;8,06053727865219E-08;-9,01269912719727E-08;100 nA
-0,750732421875;40,8612288968353;-4,364013671875E-10;-0,74871826171875;1;65;8,06053727865219E-08;-9,01269912719727E-08;100 nA
-0,70068359375;41,3617168955717;-3,0517578125E-11;-0,69854736328125;1;66;8,06053727865219E-08;-9,01269912719727E-08;100 nA
-0,650634765625;41,8622048943081;3,0517578125E-10;-0,64862060546875;1;67;8,06053727865219E-08;-9,01269912719727E-08;100 nA
-0,6005859375;42,3626928930445;5,859375E-10;-0,5986328125;1;68;8,06053727865219E-08;-9,01269912719727E-08;100 nA
-0,550537109375;42,8631808917809;8,636474609375E-10;-0,548797607421875;1;69;8,06053727865219E-08;-9,01269912719727E-08;100 nA
-0,50048828125;43,3636688905173;1,1016845703125E-09;-0,49896240234375;1;70;8,06053727865219E-08;-9,01269912719727E-08;100 nA
-0,450439453125;43,8641568892537;1,513671875E-09;-0,448974609375;1;71;8,06053727865219E-08;-9,01269912719727E-08;100 nA
-0,400390625;44,36464488799;1,9439697265625E-09;-0,39910888671875;1;72;8,06053727865219E-08;-9,01269912719727E-08;100 nA
-0,350341796875;44,8651328867264;2,4169921875E-09;-0,349273681640625;1;73;8,06053727865219E-08;-9,01269912719727E-08;100 nA
-0,30029296875;45,3656208854628;3,0975341796875E-09;-0,299285888671875;1;74;8,06053727865219E-08;-9,01269912719727E-08;100 nA
-0,250244140625;45,8661088841992;4,1473388671875E-09;-0,249420166015625;1;75;8,06053727865219E-08;-9,01269912719727E-08;100 nA
-0,2001953125;46,3665968829356;4,644775390625E-09;-0,199493408203125;1;76;8,06053727865219E-08;-9,01269912719727E-08;100 nA
-0,150146484375;46,867084881672;4,7821044921875E-09;-0,14959716796875;1;77;8,06053727865219E-08;-9,01269912719727E-08;100 nA
-0,10009765625;47,3675728804084;4,7393798828125E-09;-0,0997314453125;1;78;8,06053727865219E-08;-9,01269912719727E-08;100 nA
-0,050048828125;47,8680608791448;4,388427734375E-09;-0,0498046875;1;79;8,06053727865219E-08;-9,01269912719727E-08;100 nA
0;48,3685488778812;4,1900634765625E-09;0,000112915039062494;1;80;8,06053727865219E-08;-9,01269912719727E-08;100 nA
0,050048828125;48,8690368766175;4,30908203125E-09;0,050079345703125;2;81;9,3080922961235E-08;-8,70111584663391E-08;100 nA
0,10009765625;49,3695248753539;4,742431640625E-09;0,100128173828125;2;82;9,3080922961235E-08;-8,70111584663391E-08;100 nA
0,150146484375;49,8700128740903;5,3192138671875E-09;0,150146484375;2;83;9,3080922961235E-08;-8,70111584663391E-08;100 nA
0,2001953125;50,3705008728267;5,9295654296875E-09;0,200042724609375;2;84;9,3080922961235E-08;-8,70111584663391E-08;100 nA
0,250244140625;50,8709888715631;6,5765380859375E-09;0,250091552734375;2;85;9,3080922961235E-08;-8,70111584663391E-08;100 nA
0,30029296875;51,3714768702995;7,098388671875E-09;0,300079345703125;2;86;9,3080922961235E-08;-8,70111584663391E-08;100 nA
0,350341796875;51,8719648690359;7,60498046875E-09;0,350189208984375;2;87;9,3080922961235E-08;-8,70111584663391E-08;100 nA
0,400390625;52,3724528677723;7,977294921875E-09;0,400177001953125;2;88;9,3080922961235E-08;-8,70111584663391E-08;100 nA
0,450439453125;52,8729408665087;8,087158203125E-09;0,450103759765625;2;89;9,3080922961235E-08;-8,70111584663391E-08;100 nA
0,50048828125;53,373428865245;8,1207275390625E-09;0,500152587890625;2;90;9,3080922961235E-08;-8,70111584663391E-08;100 nA
0,550537109375;53,8739168639814;7,9345703125E-09;0,550140380859375;2;91;9,3080922961235E-08;-8,70111584663391E-08;100 nA
0,6005859375;54,3744048627178;7,769775390625E-09;0,60015869140625;2;92;9,3080922961235E-08;-8,70111584663391E-08;100 nA
0,650634765625;54,8748928614542;7,3272705078125E-09;0,650054931640625;2;93;9,3080922961235E-08;-8,70111584663391E-08;100 nA
0,70068359375;55,3753808601906;6,9854736328125E-09;0,70001220703125;2;94;9,3080922961235E-08;-8,70111584663391E-08;100 nA
0,750732421875;55,875868858927;6,756591796875E-09;0,74981689453125;2;95;9,3080922961235E-08;-8,70111584663391E-08;100 nA
0,80078125;56,3763568576634;6,5826416015625E-09;0,79986572265625;2;96;9,3080922961235E-08;-8,70111584663391E-08;100 nA
0,850830078125;56,8768448563998;6,5155029296875E-09;0,84991455078125;2;97;9,3080922961235E-08;-8,70111584663391E-08;100 nA
0,90087890625;57,3773328551362;6,54296875E-09;0,89935302734375;2;98;9,3080922961235E-08;-8,70111584663391E-08;100 nA
0,950927734375;57,8778208538725;6,6558837890625E-09;0,94940185546875;2;99;9,3080922961235E-08;-8,70111584663391E-08;100 nA
1,0009765625;58,3783088526089;6,9305419921875E-09;0,99884033203125;2;100;9,3080922961235E-08;-8,70111584663391E-08;100 nA
0,950927734375;58,8787968513453;4,0802001953125E-09;0,9490966796875;2;101;9,3080922961235E-08;-8,70111584663391E-08;100 nA
0,90087890625;59,3792848500817;2,655029296875E-09;0,89996337890625;2;102;9,3080922961235E-08;-8,70111584663391E-08;100 nA
0,850830078125;59,8797728488181;1,86767578125E-09;0,84991455078125;2;103;9,3080922961235E-08;-8,70111584663391E-08;100 nA
0,80078125;60,3802608475545;1,3092041015625E-09;0,8001708984375;2;104;9,3080922961235E-08;-8,70111584663391E-08;100 nA
0,750732421875;60,8807488462909;8,209228515625E-10;0,749755859375;2;105;9,3080922961235E-08;-8,70111584663391E-08;100 nA
0,70068359375;61,3812368450273;4,2724609375E-10;0,69989013671875;2;106;9,3080922961235E-08;-8,70111584663391E-08;100 nA
0,650634765625;61,8817248437637;4,2724609375E-11;0,65008544921875;2;107;9,3080922961235E-08;-8,70111584663391E-08;100 nA
0,6005859375;62,3822128425001;-3,631591796875E-10;0,60003662109375;2;108;9,3080922961235E-08;-8,70111584663391E-08;100 nA
0,550537109375;62,8827008412364;-8,30078125E-10;0,54998779296875;2;109;9,3080922961235E-08;-8,70111584663391E-08;100 nA
0,50048828125;63,3831888399728;-1,2542724609375E-09;0,5;2;110;9,3080922961235E-08;-8,70111584663391E-08;100 nA
0,450439453125;63,8836768387092;-1,7578125E-09;0,450103759765625;2;111;9,3080922961235E-08;-8,70111584663391E-08;100 nA
0,400390625;64,3841648374456;-2,4383544921875E-09;0,400054931640625;2;112;9,3080922961235E-08;-8,70111584663391E-08;100 nA
0,350341796875;64,884652836182;-3,143310546875E-09;0,350067138671875;2;113;9,3080922961235E-08;-8,70111584663391E-08;100 nA
0,30029296875;65,3851408349184;-3,9794921875E-09;0,300018310546875;2;114;9,3080922961235E-08;-8,70111584663391E-08;100 nA
0,250244140625;65,8856288336548;-4,94384765625E-09;0,25006103515625;2;115;9,3080922961235E-08;-8,70111584663391E-08;100 nA
0,2001953125;66,3861168323912;-5,8013916015625E-09;0,20001220703125;2;116;9,3080922961235E-08;-8,70111584663391E-08;100 nA
0,150146484375;66,8866048311276;-6,65283203125E-09;0,15008544921875;2;117;9,3080922961235E-08;-8,70111584663391E-08;100 nA
0,10009765625;67,3870928298639;-7,43408203125E-09;0,10015869140625;2;118;9,3080922961235E-08;-8,70111584663391E-08;100 nA
0,050048828125;67,8875808286003;-8,6456298828125E-09;0,050048828125;2;119;9,3080922961235E-08;-8,70111584663391E-08;100 nA
0;68,3880688273367;-1,0626220703125E-08;0,000149536132812503;2;120;9,3080922961235E-08;-8,70111584663391E-08;100 nA
-0,050048828125;68,8885568260731;-1,33697509765625E-08;-0,0497406005859375;2;121;9,3080922961235E-08;-8,70111584663391E-08;100 nA
-0,10009765625;69,3890448248095;-1,0894775390625E-08;-0,09967041015625;2;122;9,3080922961235E-08;-8,70111584663391E-08;100 nA
-0,150146484375;69,8895328235459;-5,09033203125E-09;-0,1495361328125;2;123;9,3080922961235E-08;-8,70111584663391E-08;100 nA
-0,2001953125;70,3900208222823;-4,6142578125E-09;-0,199462890625;2;124;9,3080922961235E-08;-8,70111584663391E-08;100 nA
-0,250244140625;70,8905088210187;-4,72412109375E-09;-0,2493896484375;2;125;9,3080922961235E-08;-8,70111584663391E-08;100 nA
-0,30029296875;71,3909968197551;-4,9591064453125E-09;-0,29925537109375;2;126;9,3080922961235E-08;-8,70111584663391E-08;100 nA
-0,350341796875;71,8914848184914;-5,010986328125E-09;-0,349151611328125;2;127;9,3080922961235E-08;-8,70111584663391E-08;100 nA
-0,400390625;72,3919728172278;-4,913330078125E-09;-0,39910888671875;2;128;9,3080922961235E-08;-8,70111584663391E-08;100 nA
-0,450439453125;72,8924608159642;-4,9591064453125E-09;-0,44891357421875;2;129;9,3080922961235E-08;-8,70111584663391E-08;100 nA
-0,50048828125;73,3929488147006;-4,8370361328125E-09;-0,498809814453125;2;130;9,3080922961235E-08;-8,70111584663391E-08;100 nA
-0,550537109375;73,893436813437;-4,6966552734375E-09;-0,548675537109375;2;131;9,3080922961235E-08;-8,70111584663391E-08;100 nA
-0,6005859375;74,3939248121734;-4,6234130859375E-09;-0,5986328125;2;132;9,3080922961235E-08;-8,70111584663391E-08;100 nA
-0,650634765625;74,8944128109098;-4,5318603515625E-09;-0,648529052734375;2;133;9,3080922961235E-08;-8,70111584663391E-08;100 nA
-0,70068359375;75,3949008096462;-4,449462890625E-09;-0,698577880859375;2;134;9,3080922961235E-08;-8,70111584663391E-08;100 nA
-0,750732421875;75,8953888083826;-4,400634765625E-09;-0,748626708984375;2;135;9,3080922961235E-08;-8,70111584663391E-08;100 nA
-0,80078125;76,395876807119;-4,4464111328125E-09;-0,79925537109375;2;136;9,3080922961235E-08;-8,70111584663391E-08;100 nA
-0,850830078125;76,8963648058553;-4,425048828125E-09;-0,8489990234375;2;137;9,3080922961235E-08;-8,70111584663391E-08;100 nA
-0,90087890625;77,3968528045917;-4,5196533203125E-09;-0,89874267578125;2;138;9,3080922961235E-08;-8,70111584663391E-08;100 nA
-0,950927734375;77,8973408033281;-4,6722412109375E-09;-0,9490966796875;2;139;9,3080922961235E-08;-8,70111584663391E-08;100 nA
-1,0009765625;78,3978288020645;-4,8919677734375E-09;-0,99853515625;2;140;9,3080922961235E-08;-8,70111584663391E-08;100 nA
-0,950927734375;78,8983168008009;-2,8656005859375E-09;-0,94879150390625;2;141;9,3080922961235E-08;-8,70111584663391E-08;100 nA
-0,90087890625;79,3988047995373;-1,800537109375E-09;-0,8984375;2;142;9,3080922961235E-08;-8,70111584663391E-08;100 nA
-0,850830078125;79,8992927982737;-1,177978515625E-09;-0,8489990234375;2;143;9,3080922961235E-08;-8,70111584663391E-08;100 nA
-0,80078125;80,3997807970101;-7,32421875E-10;-0,79833984375;2;144;9,3080922961235E-08;-8,70111584663391E-08;100 nA
-0,750732421875;80,9002687957465;-3,753662109375E-10;-0,7486572265625;2;145;9,3080922961235E-08;-8,70111584663391E-08;100 nA
-0,70068359375;81,4007567944828;3,96728515625E-11;-0,698516845703125;2;146;9,3080922961235E-08;-8,70111584663391E-08;100 nA
-0,650634765625;81,9012447932192;3,41796875E-10;-0,6485595703125;2;147;9,3080922961235E-08;-8,70111584663391E-08;100 nA
-0,6005859375;82,4017327919556;5,92041015625E-10;-0,59857177734375;2;148;9,3080922961235E-08;-8,70111584663391E-08;100 nA
-0,550537109375;82,902220790692;8,72802734375E-10;-0,548736572265625;2;149;9,3080922961235E-08;-8,70111584663391E-08;100 nA
-0,50048828125;83,4027087894284;1,1627197265625E-09;-0,4989013671875;2;150;9,3080922961235E-08;-8,70111584663391E-08;100 nA
-0,450439453125;83,9031967881648;1,5899658203125E-09;-0,448974609375;2;151;9,3080922961235E-08;-8,70111584663391E-08;100 nA
-0,400390625;84,4036847869012;2,0111083984375E-09;-0,399139404296875;2;152;9,3080922961235E-08;-8,70111584663391E-08;100 nA
-0,350341796875;84,9041727856376;2,3956298828125E-09;-0,349273681640625;2;153;9,3080922961235E-08;-8,70111584663391E-08;100 nA
-0,30029296875;85,404660784374;3,125E-09;-0,299224853515625;2;154;9,3080922961235E-08;-8,70111584663391E-08;100 nA
-0,250244140625;85,9051487831103;4,23583984375E-09;-0,2493896484375;2;155;9,3080922961235E-08;-8,70111584663391E-08;100 nA
-0,2001953125;86,4056367818467;4,6722412109375E-09;-0,199493408203125;2;156;9,3080922961235E-08;-8,70111584663391E-08;100 nA
-0,150146484375;86,9061247805831;4,791259765625E-09;-0,14959716796875;2;157;9,3080922961235E-08;-8,70111584663391E-08;100 nA
-0,10009765625;87,4066127793195;4,669189453125E-09;-0,09967041015625;2;158;9,3080922961235E-08;-8,70111584663391E-08;100 nA
-0,050048828125;87,9071007780559;4,3701171875E-09;-0,049835205078125;2;159;9,3080922961235E-08;-8,70111584663391E-08;100 nA
0;88,4075887767923;4,1412353515625E-09;0,000115966796875006;2;160;9,3080922961235E-08;-8,70111584663391E-08;100 nA
0,050048828125;88,9080767755287;4,241943359375E-09;0,050079345703125;3;161;9,31649282574654E-08;-8,55586305260658E-08;100 nA
0,10009765625;89,4085647742651;4,5654296875E-09;0,100067138671875;3;162;9,31649282574654E-08;-8,55586305260658E-08;100 nA
0,150146484375;89,9090527730015;5,2215576171875E-09;0,150115966796875;3;163;9,31649282574654E-08;-8,55586305260658E-08;100 nA
0,2001953125;90,4095407717379;5,84716796875E-09;0,2000732421875;3;164;9,31649282574654E-08;-8,55586305260658E-08;100 nA
0,250244140625;90,9100287704742;6,5216064453125E-09;0,2501220703125;3;165;9,31649282574654E-08;-8,55586305260658E-08;100 nA
0,30029296875;91,4105167692106;7,1136474609375E-09;0,300079345703125;3;166;9,31649282574654E-08;-8,55586305260658E-08;100 nA
0,350341796875;91,911004767947;7,58056640625E-09;0,350189208984375;3;167;9,31649282574654E-08;-8,55586305260658E-08;100 nA
0,400390625;92,4114927666834;7,952880859375E-09;0,400146484375;3;168;9,31649282574654E-08;-8,55586305260658E-08;100 nA
0,450439453125;92,9119807654198;8,0780029296875E-09;0,450042724609375;3;169;9,31649282574654E-08;-8,55586305260658E-08;100 nA
0,50048828125;93,4124687641562;8,10546875E-09;0,500091552734375;3;170;9,31649282574654E-08;-8,55586305260658E-08;100 nA
0,550537109375;93,9129567628926;7,8887939453125E-09;0,550079345703125;3;171;9,31649282574654E-08;-8,55586305260658E-08;100 nA
0,6005859375;94,413444761629;7,58056640625E-09;0,600128173828125;3;172;9,31649282574654E-08;-8,55586305260658E-08;100 nA
0,650634765625;94,9139327603654;7,159423828125E-09;0,650054931640625;3;173;9,31649282574654E-08;-8,55586305260658E-08;100 nA
0,70068359375;95,4144207591017;6,903076171875E-09;0,699920654296875;3;174;9,31649282574654E-08;-8,55586305260658E-08;100 nA
0,750732421875;95,9149087578381;6,6864013671875E-09;0,749847412109375;3;175;9,31649282574654E-08;-8,55586305260658E-08;100 nA
0,80078125;96,4153967565745;6,5643310546875E-09;0,799560546875;3;176;9,31649282574654E-08;-8,55586305260658E-08;100 nA
0,850830078125;96,9158847553109;6,4453125E-09;0,84991455078125;3;177;9,31649282574654E-08;-8,55586305260658E-08;100 nA
0,90087890625;97,4163727540473;6,4727783203125E-09;0,89996337890625;3;178;9,31649282574654E-08;-8,55586305260658E-08;100 nA
0,950927734375;97,9168607527837;6,646728515625E-09;0,94970703125;3;179;9,31649282574654E-08;-8,55586305260658E-08;100 nA
1,0009765625;98,4173487515201;6,8695068359375E-09;0,999755859375;3;180;9,31649282574654E-08;-8,55586305260658E-08;100 nA
0,950927734375;98,9178367502565;4,0435791015625E-09;0,94940185546875;3;181;9,31649282574654E-08;-8,55586305260658E-08;100 nA
0,90087890625;99,4183247489929;2,6641845703125E-09;0,89996337890625;3;182;9,31649282574654E-08;-8,55586305260658E-08;100 nA
0,850830078125;99,9188127477292;1,849365234375E-09;0,84991455078125;3;183;9,31649282574654E-08;-8,55586305260658E-08;100 nA
0,80078125;100,419300746466;1,3275146484375E-09;0,79986572265625;3;184;9,31649282574654E-08;-8,55586305260658E-08;100 nA
0,750732421875;100,919788745202;8,087158203125E-10;0,74981689453125;3;185;9,31649282574654E-08;-8,55586305260658E-08;100 nA
0,70068359375;101,420276743938;3,41796875E-10;0,69989013671875;3;186;9,31649282574654E-08;-8,55586305260658E-08;100 nA
0,650634765625;101,920764742675;2,44140625E-11;0,649993896484375;3;187;9,31649282574654E-08;-8,55586305260658E-08;100 nA
0,6005859375;102,421252741411;-3,631591796875E-10;0,600067138671875;3;188;9,31649282574654E-08;-8,55586305260658E-08;100 nA
0,550537109375;102,921740740148;-7,01904296875E-10;0,550048828125;3;189;9,31649282574654E-08;-8,55586305260658E-08;100 nA
0,50048828125;103,422228738884;-1,177978515625E-09;0,500030517578125;3;190;9,31649282574654E-08;-8,55586305260658E-08;100 nA
0,450439453125;103,92271673762;-1,6754150390625E-09;0,4500732421875;3;191;9,31649282574654E-08;-8,55586305260658E-08;100 nA
0,400390625;104,423204736357;-2,276611328125E-09;0,400146484375;3;192;9,31649282574654E-08;-8,55586305260658E-08;100 nA
0,350341796875;104,923692735093;-3,0303955078125E-09;0,350128173828125;3;193;9,31649282574654E-08;-8,55586305260658E-08;100 nA
0,30029296875;105,42418073383;-3,802490234375E-09;0,30010986328125;3;194;9,31649282574654E-08;-8,55586305260658E-08;100 nA
0,250244140625;105,924668732566;-4,791259765625E-09;0,2501220703125;3;195;9,31649282574654E-08;-8,55586305260658E-08;100 nA
0,2001953125;106,425156731302;-5,6640625E-09;0,200103759765625;3;196;9,31649282574654E-08;-8,55586305260658E-08;100 nA
0,150146484375;106,925644730039;-6,5948486328125E-09;0,150115966796875;3;197;9,31649282574654E-08;-8,55586305260658E-08;100 nA
0,10009765625;107,426132728775;-7,5653076171875E-09;0,10009765625;3;198;9,31649282574654E-08;-8,55586305260658E-08;100 nA
0,050048828125;107,926620727511;-8,6456298828125E-09;0,0501708984375;3;199;9,31649282574654E-08;-8,55586305260658E-08;100 nA
0;108,427108726248;-1,051025390625E-08;0,000119018554687503;3;200;9,31649282574654E-08;-8,55586305260658E-08;100 nA
-0,050048828125;108,927596724984;-1,29638671875E-08;-0,0496917724609375;3;201;9,31649282574654E-08;-8,55586305260658E-08;100 nA
-0,10009765625;109,428084723721;-9,82666015625E-09;-0,09967041015625;3;202;9,31649282574654E-08;-8,55586305260658E-08;100 nA
-0,150146484375;109,928572722457;-4,864501953125E-09;-0,149566650390625;3;203;9,31649282574654E-08;-8,55586305260658E-08;100 nA
-0,2001953125;110,429060721193;-4,5654296875E-09;-0,19952392578125;3;204;9,31649282574654E-08;-8,55586305260658E-08;100 nA
-0,250244140625;110,92954871993;-4,7821044921875E-09;-0,24932861328125;3;205;9,31649282574654E-08;-8,55586305260658E-08;100 nA
-0,30029296875;111,430036718666;-5,145263671875E-09;-0,299285888671875;3;206;9,31649282574654E-08;-8,55586305260658E-08;100 nA
-0,350341796875;111,930524717403;-5,1910400390625E-09;-0,349212646484375;3;207;9,31649282574654E-08;-8,55586305260658E-08;100 nA
-0,400390625;112,431012716139;-5,059814453125E-09;-0,399078369140625;3;208;9,31649282574654E-08;-8,55586305260658E-08;100 nA
-0,450439453125;112,931500714875;-4,949951171875E-09;-0,44891357421875;3;209;9,31649282574654E-08;-8,55586305260658E-08;100 nA
-0,50048828125;113,431988713612;-4,876708984375E-09;-0,498870849609375;3;210;9,31649282574654E-08;-8,55586305260658E-08;100 nA
-0,550537109375;113,932476712348;-4,7393798828125E-09;-0,54876708984375;3;211;9,31649282574654E-08;-8,55586305260658E-08;100 nA
-0,6005859375;114,432964711085;-4,6722412109375E-09;-0,598602294921875;3;212;9,31649282574654E-08;-8,55586305260658E-08;100 nA
-0,650634765625;114,933452709821;-4,5684814453125E-09;-0,648590087890625;3;213;9,31649282574654E-08;-8,55586305260658E-08;100 nA
-0,70068359375;115,433940708557;-4,5562744140625E-09;-0,698699951171875;3;214;9,31649282574654E-08;-8,55586305260658E-08;100 nA
-0,750732421875;115,934428707294;-4,541015625E-09;-0,74859619140625;3;215;9,31649282574654E-08;-8,55586305260658E-08;100 nA
-0,80078125;116,43491670603;-4,4342041015625E-09;-0,7989501953125;3;216;9,31649282574654E-08;-8,55586305260658E-08;100 nA
-0,850830078125;116,935404704766;-4,3853759765625E-09;-0,8489990234375;3;217;9,31649282574654E-08;-8,55586305260658E-08;100 nA
-0,90087890625;117,435892703503;-4,5501708984375E-09;-0,8984375;3;218;9,31649282574654E-08;-8,55586305260658E-08;100 nA
-0,950927734375;117,936380702239;-4,5379638671875E-09;-0,9490966796875;3;219;9,31649282574654E-08;-8,55586305260658E-08;100 nA
-1,0009765625;118,436868700976;-4,78515625E-09;-0,99884033203125;3;220;9,31649282574654E-08;-8,55586305260658E-08;100 nA
-0,950927734375;118,937356699712;-2,7801513671875E-09;-0,9490966796875;3;221;9,31649282574654E-08;-8,55586305260658E-08;100 nA
-0,90087890625;119,437844698448;-1,7578125E-09;-0,8990478515625;3;222;9,31649282574654E-08;-8,55586305260658E-08;100 nA
-0,850830078125;119,938332697185;-9,552001953125E-10;-0,84869384765625;3;223;9,31649282574654E-08;-8,55586305260658E-08;100 nA
-0,80078125;120,438820695921;-5,67626953125E-10;-0,7989501953125;3;224;9,31649282574654E-08;-8,55586305260658E-08;100 nA
-0,750732421875;120,939308694658;-9,46044921875E-11;-0,748565673828125;3;225;9,31649282574654E-08;-8,55586305260658E-08;100 nA
-0,70068359375;121,439796693394;2,25830078125E-10;-0,698516845703125;3;226;9,31649282574654E-08;-8,55586305260658E-08;100 nA
-0,650634765625;121,94028469213;5,2490234375E-10;-0,648590087890625;3;227;9,31649282574654E-08;-8,55586305260658E-08;100 nA
-0,6005859375;122,440772690867;7,781982421875E-10;-0,598663330078125;3;228;9,31649282574654E-08;-8,55586305260658E-08;100 nA
-0,550537109375;122,941260689603;1,15966796875E-09;-0,548736572265625;3;229;9,31649282574654E-08;-8,55586305260658E-08;100 nA
-0,50048828125;123,44174868834;1,55029296875E-09;-0,49884033203125;3;230;9,31649282574654E-08;-8,55586305260658E-08;100 nA
-0,450439453125;123,942236687076;1,79443359375E-09;-0,44891357421875;3;231;9,31649282574654E-08;-8,55586305260658E-08;100 nA
-0,400390625;124,442724685812;2,1240234375E-09;-0,399078369140625;3;232;9,31649282574654E-08;-8,55586305260658E-08;100 nA
-0,350341796875;124,943212684549;2,5634765625E-09;-0,34918212890625;3;233;9,31649282574654E-08;-8,55586305260658E-08;100 nA
-0,30029296875;125,443700683285;3,2196044921875E-09;-0,299224853515625;3;234;9,31649282574654E-08;-8,55586305260658E-08;100 nA
-0,250244140625;125,944188682021;4,28466796875E-09;-0,249359130859375;3;235;9,31649282574654E-08;-8,55586305260658E-08;100 nA
-0,2001953125;126,444676680758;4,8614501953125E-09;-0,199462890625;3;236;9,31649282574654E-08;-8,55586305260658E-08;100 nA
-0,150146484375;126,945164679494;4,8431396484375E-09;-0,149627685546875;3;237;9,31649282574654E-08;-8,55586305260658E-08;100 nA
-0,10009765625;127,445652678231;4,5623779296875E-09;-0,099639892578125;3;238;9,31649282574654E-08;-8,55586305260658E-08;100 nA
-0,050048828125;127,946140676967;4,2022705078125E-09;-0,0498046875;3;239;9,31649282574654E-08;-8,55586305260658E-08;100 nA
0;128,446628675703;3,948974609375E-09;0,000109863281249997;3;240;9,31649282574654E-08;-8,55586305260658E-08;100 nA
0,050048828125;128,94711667444;4,0679931640625E-09;0,050018310546875;4;241;9,24669206142425E-08;-8,51492956280708E-08;100 nA
0,10009765625;129,447604673176;4,3548583984375E-09;0,10003662109375;4;242;9,24669206142425E-08;-8,51492956280708E-08;100 nA
0,150146484375;129,948092671913;4,9346923828125E-09;0,150054931640625;4;243;9,24669206142425E-08;-8,51492956280708E-08;100 nA
0,2001953125;130,448580670649;5,46875E-09;0,199920654296875;4;244;9,24669206142425E-08;-8,51492956280708E-08;100 nA
0,250244140625;130,949068669385;6,109619140625E-09;0,25;4;245;9,24669206142425E-08;-8,51492956280708E-08;100 nA
0,30029296875;131,449556668122;6,768798828125E-09;0,300048828125;4;246;9,24669206142425E-08;-8,51492956280708E-08;100 nA
0,350341796875;131,950044666858;7,3089599609375E-09;0,35003662109375;4;247;9,24669206142425E-08;-8,51492956280708E-08;100 nA
0,400390625;132,450532665595;7,6385498046875E-09;0,40008544921875;4;248;9,24669206142425E-08;-8,51492956280708E-08;100 nA
0,450439453125;132,951020664331;7,9010009765625E-09;0,450042724609375;4;249;9,24669206142425E-08;-8,51492956280708E-08;100 nA
0,50048828125;133,451508663067;7,8521728515625E-09;0,5;4;250;9,24669206142425E-08;-8,51492956280708E-08;100 nA
0,550537109375;133,951996661804;7,6690673828125E-09;0,550079345703125;4;251;9,24669206142425E-08;-8,51492956280708E-08;100 nA
0,6005859375;134,45248466054;7,3822021484375E-09;0,60003662109375;4;252;9,24669206142425E-08;-8,51492956280708E-08;100 nA
0,650634765625;134,952972659277;7,1533203125E-09;0,649993896484375;4;253;9,24669206142425E-08;-8,51492956280708E-08;100 nA
0,70068359375;135,453460658013;6,89697265625E-09;0,699951171875;4;254;9,24669206142425E-08;-8,51492956280708E-08;100 nA
0,750732421875;135,953948656749;6,756591796875E-09;0,749847412109375;4;255;9,24669206142425E-08;-8,51492956280708E-08;100 nA
0,80078125;136,454436655486;6,57958984375E-09;0,799560546875;4;256;9,24669206142425E-08;-8,51492956280708E-08;100 nA
0,850830078125;136,954924654222;6,494140625E-09;0,84991455078125;4;257;9,24669206142425E-08;-8,51492956280708E-08;100 nA
0,90087890625;137,455412652958;6,573486328125E-09;0,899658203125;4;258;9,24669206142425E-08;-8,51492956280708E-08;100 nA
0,950927734375;137,955900651695;6,65283203125E-09;0,94970703125;4;259;9,24669206142425E-08;-8,51492956280708E-08;100 nA
1,0009765625;138,456388650431;6,982421875E-09;0,99945068359375;4;260;9,24669206142425E-08;-8,51492956280708E-08;100 nA
0,950927734375;138,956876649168;4,229736328125E-09;0,94940185546875;4;261;9,24669206142425E-08;-8,51492956280708E-08;100 nA
0,90087890625;139,457364647904;2,8900146484375E-09;0,9002685546875;4;262;9,24669206142425E-08;-8,51492956280708E-08;100 nA
0,850830078125;139,95785264664;2,0050048828125E-09;0,849609375;4;263;9,24669206142425E-08;-8,51492956280708E-08;100 nA
0,80078125;140,458340645377;1,4007568359375E-09;0,79986572265625;4;264;9,24669206142425E-08;-8,51492956280708E-08;100 nA
0,750732421875;140,958828644113;9,185791015625E-10;0,74981689453125;4;265;9,24669206142425E-08;-8,51492956280708E-08;100 nA
0,70068359375;141,45931664285;5,2490234375E-10;0,699951171875;4;266;9,24669206142425E-08;-8,51492956280708E-08;100 nA
0,650634765625;141,959804641586;1,556396484375E-10;0,649993896484375;4;267;9,24669206142425E-08;-8,51492956280708E-08;100 nA
0,6005859375;142,460292640322;-2,410888671875E-10;0,60009765625;4;268;9,24669206142425E-08;-8,51492956280708E-08;100 nA
0,550537109375;142,960780639059;-6,622314453125E-10;0,55010986328125;4;269;9,24669206142425E-08;-8,51492956280708E-08;100 nA
0,50048828125;143,461268637795;-1,1016845703125E-09;0,500091552734375;4;270;9,24669206142425E-08;-8,51492956280708E-08;100 nA
0,450439453125;143,961756636532;-1,67236328125E-09;0,450164794921875;4;271;9,24669206142425E-08;-8,51492956280708E-08;100 nA
0,400390625;144,462244635268;-2,337646484375E-09;0,400115966796875;4;272;9,24669206142425E-08;-8,51492956280708E-08;100 nA
0,350341796875;144,962732634004;-3,045654296875E-09;0,350128173828125;4;273;9,24669206142425E-08;-8,51492956280708E-08;100 nA
0,30029296875;145,463220632741;-3,9276123046875E-09;0,300079345703125;4;274;9,24669206142425E-08;-8,51492956280708E-08;100 nA
0,250244140625;145,963708631477;-4,9224853515625E-09;0,25;4;275;9,24669206142425E-08;-8,51492956280708E-08;100 nA
0,2001953125;146,464196630213;-5,7769775390625E-09;0,2000732421875;4;276;9,24669206142425E-08;-8,51492956280708E-08;100 nA
0,150146484375;146,96468462895;-6,707763671875E-09;0,1500244140625;4;277;9,24669206142425E-08;-8,51492956280708E-08;100 nA
0,10009765625;147,465172627686;-7,6690673828125E-09;0,10003662109375;4;278;9,24669206142425E-08;-8,51492956280708E-08;100 nA
0,050048828125;147,965660626423;-8,843994140625E-09;0,050079345703125;4;279;9,24669206142425E-08;-8,51492956280708E-08;100 nA
0;148,466148625159;-1,07025146484375E-08;0,000112915039062494;4;280;9,24669206142425E-08;-8,51492956280708E-08;100 nA
-0,050048828125;148,966636623895;-1,251220703125E-08;-0,04986572265625;4;281;9,24669206142425E-08;-8,51492956280708E-08;100 nA
-0,10009765625;149,467124622632;-8,984375E-09;-0,099700927734375;4;282;9,24669206142425E-08;-8,51492956280708E-08;100 nA
-0,150146484375;149,967612621368;-4,77294921875E-09;-0,149627685546875;4;283;9,24669206142425E-08;-8,51492956280708E-08;100 nA
-0,2001953125;150,468100620105;-4,620361328125E-09;-0,199432373046875;4;284;9,24669206142425E-08;-8,51492956280708E-08;100 nA
-0,250244140625;150,968588618841;-4,9102783203125E-09;-0,249420166015625;4;285;9,24669206142425E-08;-8,51492956280708E-08;100 nA
-0,30029296875;151,469076617577;-5,2886962890625E-09;-0,29931640625;4;286;9,24669206142425E-08;-8,51492956280708E-08;100 nA
-0,350341796875;151,969564616314;-5,328369140625E-09;-0,3492431640625;4;287;9,24669206142425E-08;-8,51492956280708E-08;100 nA
-0,400390625;152,47005261505;-5,157470703125E-09;-0,399139404296875;4;288;9,24669206142425E-08;-8,51492956280708E-08;100 nA
-0,450439453125;152,970540613787;-5,0323486328125E-09;-0,448974609375;4;289;9,24669206142425E-08;-8,51492956280708E-08;100 nA
-0,50048828125;153,471028612523;-4,9530029296875E-09;-0,498870849609375;4;290;9,24669206142425E-08;-8,51492956280708E-08;100 nA
-0,550537109375;153,971516611259;-4,7332763671875E-09;-0,548797607421875;4;291;9,24669206142425E-08;-8,51492956280708E-08;100 nA
-0,6005859375;154,472004609996;-4,656982421875E-09;-0,5986328125;4;292;9,24669206142425E-08;-8,51492956280708E-08;100 nA
-0,650634765625;154,972492608732;-4,6112060546875E-09;-0,64862060546875;4;293;9,24669206142425E-08;-8,51492956280708E-08;100 nA
-0,70068359375;155,472980607468;-4,486083984375E-09;-0,6986083984375;4;294;9,24669206142425E-08;-8,51492956280708E-08;100 nA
-0,750732421875;155,973468606205;-4,3487548828125E-09;-0,7486572265625;4;295;9,24669206142425E-08;-8,51492956280708E-08;100 nA
-0,80078125;156,473956604941;-4,3121337890625E-09;-0,79864501953125;4;296;9,24669206142425E-08;-8,51492956280708E-08;100 nA
-0,850830078125;156,974444603678;-4,302978515625E-09;-0,848388671875;4;297;9,24669206142425E-08;-8,51492956280708E-08;100 nA
-0,90087890625;157,474932602414;-4,345703125E-09;-0,8990478515625;4;298;9,24669206142425E-08;-8,51492956280708E-08;100 nA
-0,950927734375;157,97542060115;-4,4921875E-09;-0,94879150390625;4;299;9,24669206142425E-08;-8,51492956280708E-08;100 nA
-1,0009765625;158,475908599887;-4,72412109375E-09;-0,9991455078125;4;300;9,24669206142425E-08;-8,51492956280708E-08;100 nA
-0,950927734375;158,976396598623;-2,7008056640625E-09;-0,94879150390625;4;301;9,24669206142425E-08;-8,51492956280708E-08;100 nA
-0,90087890625;159,47688459736;-1,611328125E-09;-0,89874267578125;4;302;9,24669206142425E-08;-8,51492956280708E-08;100 nA
-0,850830078125;159,977372596096;-9,857177734375E-10;-0,8489990234375;4;303;9,24669206142425E-08;-8,51492956280708E-08;100 nA
-0,80078125;160,477860594832;-5,55419921875E-10;-0,7989501953125;4;304;9,24669206142425E-08;-8,51492956280708E-08;100 nA
-0,750732421875;160,978348593569;-9,46044921875E-11;-0,748565673828125;4;305;9,24669206142425E-08;-8,51492956280708E-08;100 nA
-0,70068359375;161,478836592305;2,3193359375E-10;-0,698577880859375;4;306;9,24669206142425E-08;-8,51492956280708E-08;100 nA
-0,650634765625;161,979324591042;5,401611328125E-10;-0,648590087890625;4;307;9,24669206142425E-08;-8,51492956280708E-08;100 nA
-0,6005859375;162,479812589778;8,392333984375E-10;-0,598602294921875;4;308;9,24669206142425E-08;-8,51492956280708E-08;100 nA
-0,550537109375;162,980300588514;1,15966796875E-09;-0,54876708984375;4;309;9,24669206142425E-08;-8,51492956280708E-08;100 nA
-0,50048828125;163,480788587251;1,4068603515625E-09;-0,4989013671875;4;310;9,24669206142425E-08;-8,51492956280708E-08;100 nA
-0,450439453125;163,981276585987;1,776123046875E-09;-0,448944091796875;4;311;9,24669206142425E-08;-8,51492956280708E-08;100 nA
-0,400390625;164,481764584723;2,16064453125E-09;-0,3990478515625;4;312;9,24669206142425E-08;-8,51492956280708E-08;100 nA
-0,350341796875;164,98225258346;2,6611328125E-09;-0,34912109375;4;313;9,24669206142425E-08;-8,51492956280708E-08;100 nA
-0,30029296875;165,482740582196;3,3172607421875E-09;-0,299224853515625;4;314;9,24669206142425E-08;-8,51492956280708E-08;100 nA
-0,250244140625;165,983228580933;4,38232421875E-09;-0,24932861328125;4;315;9,24669206142425E-08;-8,51492956280708E-08;100 nA
-0,2001953125;166,483716579669;4,9163818359375E-09;-0,199432373046875;4;316;9,24669206142425E-08;-8,51492956280708E-08;100 nA
-0,150146484375;166,984204578405;4,8187255859375E-09;-0,149627685546875;4;317;9,24669206142425E-08;-8,51492956280708E-08;100 nA
-0,10009765625;167,484692577142;4,595947265625E-09;-0,0997314453125;4;318;9,24669206142425E-08;-8,51492956280708E-08;100 nA
-0,050048828125;167,985180575878;4,248046875E-09;-0,049835205078125;4;319;9,24669206142425E-08;-8,51492956280708E-08;100 nA
0;168,485668574615;4,0283203125E-09;0,000119018554687503;4;320;9,24669206142425E-08;-8,51492956280708E-08;100 nA
0,050048828125;168,986156573351;4,04052734375E-09;0,050079345703125;5;321;8,93480330705642E-08;-8,23572650551796E-08;100 nA
0,10009765625;169,486644572087;4,3853759765625E-09;0,100067138671875;5;322;8,93480330705642E-08;-8,23572650551796E-08;100 nA
0,150146484375;169,987132570824;4,901123046875E-09;0,15008544921875;5;323;8,93480330705642E-08;-8,23572650551796E-08;100 nA
0,2001953125;170,48762056956;5,5450439453125E-09;0,200042724609375;5;324;8,93480330705642E-08;-8,23572650551796E-08;100 nA
0,250244140625;170,988108568297;6,21337890625E-09;0,250091552734375;5;325;8,93480330705642E-08;-8,23572650551796E-08;100 nA
0,30029296875;171,488596567033;6,829833984375E-09;0,300018310546875;5;326;8,93480330705642E-08;-8,23572650551796E-08;100 nA
0,350341796875;171,989084565769;7,3028564453125E-09;0,350128173828125;5;327;8,93480330705642E-08;-8,23572650551796E-08;100 nA
0,400390625;172,489572564506;7,6263427734375E-09;0,400115966796875;5;328;8,93480330705642E-08;-8,23572650551796E-08;100 nA
0,450439453125;172,990060563242;7,794189453125E-09;0,4500732421875;5;329;8,93480330705642E-08;-8,23572650551796E-08;100 nA
0,50048828125;173,490548561978;7,7911376953125E-09;0,500030517578125;5;330;8,93480330705642E-08;-8,23572650551796E-08;100 nA
0,550537109375;173,991036560715;7,5103759765625E-09;0,550048828125;5;331;8,93480330705642E-08;-8,23572650551796E-08;100 nA
0,6005859375;174,491524559451;7,2479248046875E-09;0,60009765625;5;332;8,93480330705642E-08;-8,23572650551796E-08;100 nA
0,650634765625;174,992012558188;7,025146484375E-09;0,64996337890625;5;333;8,93480330705642E-08;-8,23572650551796E-08;100 nA
0,70068359375;175,492500556924;6,732177734375E-09;0,69989013671875;5;334;8,93480330705642E-08;-8,23572650551796E-08;100 nA
0,750732421875;175,99298855566;6,463623046875E-09;0,74981689453125;5;335;8,93480330705642E-08;-8,23572650551796E-08;100 nA
0,80078125;176,493476554397;6,365966796875E-09;0,80047607421875;5;336;8,93480330705642E-08;-8,23572650551796E-08;100 nA
0,850830078125;176,993964553133;6,35986328125E-09;0,8502197265625;5;337;8,93480330705642E-08;-8,23572650551796E-08;100 nA
0,90087890625;177,49445255187;6,317138671875E-09;0,89996337890625;5;338;8,93480330705642E-08;-8,23572650551796E-08;100 nA
0,950927734375;177,994940550606;6,439208984375E-09;0,94940185546875;5;339;8,93480330705642E-08;-8,23572650551796E-08;100 nA
1,0009765625;178,495428549342;6,695556640625E-09;0,999755859375;5;340;8,93480330705642E-08;-8,23572650551796E-08;100 nA
0,950927734375;178,995916548079;3,826904296875E-09;0,94970703125;5;341;8,93480330705642E-08;-8,23572650551796E-08;100 nA
0,90087890625;179,496404546815;2,5299072265625E-09;0,899658203125;5;342;8,93480330705642E-08;-8,23572650551796E-08;100 nA
0,850830078125;179,996892545552;1,7578125E-09;0,8502197265625;5;343;8,93480330705642E-08;-8,23572650551796E-08;100 nA
0,80078125;180,497380544288;1,1688232421875E-09;0,8001708984375;5;344;8,93480330705642E-08;-8,23572650551796E-08;100 nA
0,750732421875;180,997868543024;8,209228515625E-10;0,74981689453125;5;345;8,93480330705642E-08;-8,23572650551796E-08;100 nA
0,70068359375;181,498356541761;4,150390625E-10;0,699920654296875;5;346;8,93480330705642E-08;-8,23572650551796E-08;100 nA
0,650634765625;181,998844540497;-1,220703125E-11;0,64996337890625;5;347;8,93480330705642E-08;-8,23572650551796E-08;100 nA
0,6005859375;182,499332539233;-3,11279296875E-10;0,60003662109375;5;348;8,93480330705642E-08;-8,23572650551796E-08;100 nA
0,550537109375;182,99982053797;-6,53076171875E-10;0,550079345703125;5;349;8,93480330705642E-08;-8,23572650551796E-08;100 nA
0,50048828125;183,500308536706;-1,08642578125E-09;0,5001220703125;5;350;8,93480330705642E-08;-8,23572650551796E-08;100 nA
0,450439453125;184,000796535443;-1,64794921875E-09;0,4500732421875;5;351;8,93480330705642E-08;-8,23572650551796E-08;100 nA
0,400390625;184,501284534179;-2,252197265625E-09;0,40008544921875;5;352;8,93480330705642E-08;-8,23572650551796E-08;100 nA
0,350341796875;185,001772532915;-2,9815673828125E-09;0,350128173828125;5;353;8,93480330705642E-08;-8,23572650551796E-08;100 nA
0,30029296875;185,502260531652;-3,8482666015625E-09;0,300079345703125;5;354;8,93480330705642E-08;-8,23572650551796E-08;100 nA
0,250244140625;186,002748530388;-4,8370361328125E-09;0,250091552734375;5;355;8,93480330705642E-08;-8,23572650551796E-08;100 nA
0,2001953125;186,503236529125;-5,62744140625E-09;0,2000732421875;5;356;8,93480330705642E-08;-8,23572650551796E-08;100 nA
0,150146484375;187,003724527861;-6,54296875E-09;0,15008544921875;5;357;8,93480330705642E-08;-8,23572650551796E-08;100 nA
0,10009765625;187,504212526597;-7,53173828125E-09;0,100067138671875;5;358;8,93480330705642E-08;-8,23572650551796E-08;100 nA
0,050048828125;188,004700525334;-8,69140625E-09;0,05010986328125;5;359;8,93480330705642E-08;-8,23572650551796E-08;100 nA
0;188,50518852407;-1,03515625E-08;0,000161743164062506;5;360;8,93480330705642E-08;-8,23572650551796E-08;100 nA
-0,050048828125;189,005676522807;-1,204833984375E-08;-0,049713134765625;5;361;8,93480330705642E-08;-8,23572650551796E-08;100 nA
-0,10009765625;189,506164521543;-8,1298828125E-09;-0,099700927734375;5;362;8,93480330705642E-08;-8,23572650551796E-08;100 nA
-0,150146484375;190,006652520279;-4,4769287109375E-09;-0,149566650390625;5;363;8,93480330705642E-08;-8,23572650551796E-08;100 nA
-0,2001953125;190,507140519016;-4,3487548828125E-09;-0,19940185546875;5;364;8,93480330705642E-08;-8,23572650551796E-08;100 nA
-0,250244140625;191,007628517752;-4,669189453125E-09;-0,24932861328125;5;365;8,93480330705642E-08;-8,23572650551796E-08;100 nA
-0,30029296875;191,508116516488;-5,0140380859375E-09;-0,299224853515625;5;366;8,93480330705642E-08;-8,23572650551796E-08;100 nA
-0,350341796875;192,008604515225;-5,0079345703125E-09;-0,349151611328125;5;367;8,93480330705642E-08;-8,23572650551796E-08;100 nA
-0,400390625;192,509092513961;-4,852294921875E-09;-0,3990478515625;5;368;8,93480330705642E-08;-8,23572650551796E-08;100 nA
-0,450439453125;193,009580512698;-4,7454833984375E-09;-0,448944091796875;5;369;8,93480330705642E-08;-8,23572650551796E-08;100 nA
-0,50048828125;193,510068511434;-4,57763671875E-09;-0,498870849609375;5;370;8,93480330705642E-08;-8,23572650551796E-08;100 nA
-0,550537109375;194,01055651017;-4,443359375E-09;-0,54864501953125;5;371;8,93480330705642E-08;-8,23572650551796E-08;100 nA
-0,6005859375;194,511044508907;-4,412841796875E-09;-0,598602294921875;5;372;8,93480330705642E-08;-8,23572650551796E-08;100 nA
-0,650634765625;195,011532507643;-4,4158935546875E-09;-0,6485595703125;5;373;8,93480330705642E-08;-8,23572650551796E-08;100 nA
-0,70068359375;195,51202050638;-4,3304443359375E-09;-0,6986083984375;5;374;8,93480330705642E-08;-8,23572650551796E-08;100 nA
-0,750732421875;196,012508505116;-4,302978515625E-09;-0,748626708984375;5;375;8,93480330705642E-08;-8,23572650551796E-08;100 nA
-0,80078125;196,512996503852;-4,290771484375E-09;-0,7989501953125;5;376;8,93480330705642E-08;-8,23572650551796E-08;100 nA
-0,850830078125;197,013484502589;-4,180908203125E-09;-0,8489990234375;5;377;8,93480330705642E-08;-8,23572650551796E-08;100 nA
-0,90087890625;197,513972501325;-4,2877197265625E-09;-0,8990478515625;5;378;8,93480330705642E-08;-8,23572650551796E-08;100 nA
-0,950927734375;198,014460500062;-4,4281005859375E-09;-0,94879150390625;5;379;8,93480330705642E-08;-8,23572650551796E-08;100 nA
-1,0009765625;198,514948498798;-4,6905517578125E-09;-0,99884033203125;5;380;8,93480330705642E-08;-8,23572650551796E-08;100 nA
-0,950927734375;199,015436497534;-2,740478515625E-09;-0,94879150390625;5;381;8,93480330705642E-08;-8,23572650551796E-08;100 nA
-0,90087890625;199,515924496271;-1,751708984375E-09;-0,8990478515625;5;382;8,93480330705642E-08;-8,23572650551796E-08;100 nA
-0,850830078125;200,016412495007;-1,0894775390625E-09;-0,848388671875;5;383;8,93480330705642E-08;-8,23572650551796E-08;100 nA
-0,80078125;200,516900493743;-6,622314453125E-10;-0,7989501953125;5;384;8,93480330705642E-08;-8,23572650551796E-08;100 nA
-0,750732421875;201,01738849248;-2,8076171875E-10;-0,7486572265625;5;385;8,93480330705642E-08;-8,23572650551796E-08;100 nA
-0,70068359375;201,517876491216;4,57763671875E-11;-0,698577880859375;5;386;8,93480330705642E-08;-8,23572650551796E-08;100 nA
-0,650634765625;202,018364489953;3,570556640625E-10;-0,648590087890625;5;387;8,93480330705642E-08;-8,23572650551796E-08;100 nA
-0,6005859375;202,518852488689;7,14111328125E-10;-0,598602294921875;5;388;8,93480330705642E-08;-8,23572650551796E-08;100 nA
-0,550537109375;203,019340487425;1,0223388671875E-09;-0,548736572265625;5;389;8,93480330705642E-08;-8,23572650551796E-08;100 nA
-0,50048828125;203,519828486162;1,239013671875E-09;-0,498809814453125;5;390;8,93480330705642E-08;-8,23572650551796E-08;100 nA
-0,450439453125;204,020316484898;1,72119140625E-09;-0,448974609375;5;391;8,93480330705642E-08;-8,23572650551796E-08;100 nA
-0,400390625;204,520804483635;2,0477294921875E-09;-0,399078369140625;5;392;8,93480330705642E-08;-8,23572650551796E-08;100 nA
-0,350341796875;205,021292482371;2,3895263671875E-09;-0,3492431640625;5;393;8,93480330705642E-08;-8,23572650551796E-08;100 nA
-0,30029296875;205,521780481107;2,99072265625E-09;-0,299285888671875;5;394;8,93480330705642E-08;-8,23572650551796E-08;100 nA
-0,250244140625;206,022268479844;4,022216796875E-09;-0,249420166015625;5;395;8,93480330705642E-08;-8,23572650551796E-08;100 nA
-0,2001953125;206,52275647858;4,791259765625E-09;-0,199554443359375;5;396;8,93480330705642E-08;-8,23572650551796E-08;100 nA
-0,150146484375;207,023244477317;4,6722412109375E-09;-0,149627685546875;5;397;8,93480330705642E-08;-8,23572650551796E-08;100 nA
-0,10009765625;207,523732476053;4,449462890625E-09;-0,099761962890625;5;398;8,93480330705642E-08;-8,23572650551796E-08;100 nA
-0,050048828125;208,024220474789;4,1015625E-09;-0,049896240234375;5;399;8,93480330705642E-08;-8,23572650551796E-08;100 nA
0;208,524708473526;3,851318359375E-09;0,0001220703125;5;400;8,93480330705642E-08;-8,23572650551796E-08;100 nA
0,050048828125;209,025196472262;3,936767578125E-09;0,050048828125;6;401;9,21232625842094E-08;-8,36585834622383E-08;100 nA
0,10009765625;209,525684470999;4,3243408203125E-09;0,10003662109375;6;402;9,21232625842094E-08;-8,36585834622383E-08;100 nA
0,150146484375;210,026172469735;4,815673828125E-09;0,15008544921875;6;403;9,21232625842094E-08;-8,36585834622383E-08;100 nA
0,2001953125;210,526660468471;5,5023193359375E-09;0,20001220703125;6;404;9,21232625842094E-08;-8,36585834622383E-08;100 nA
0,250244140625;211,027148467208;6,2103271484375E-09;0,250030517578125;6;405;9,21232625842094E-08;-8,36585834622383E-08;100 nA
0,30029296875;211,527636465944;6,7413330078125E-09;0,300079345703125;6;406;9,21232625842094E-08;-8,36585834622383E-08;100 nA
0,350341796875;212,02812446468;7,3333740234375E-09;0,350128173828125;6;407;9,21232625842094E-08;-8,36585834622383E-08;100 nA
0,400390625;212,528612463417;7,733154296875E-09;0,400115966796875;6;408;9,21232625842094E-08;-8,36585834622383E-08;100 nA
0,450439453125;213,029100462153;7,861328125E-09;0,450103759765625;6;409;9,21232625842094E-08;-8,36585834622383E-08;100 nA
0,50048828125;213,52958846089;7,8948974609375E-09;0,500152587890625;6;410;9,21232625842094E-08;-8,36585834622383E-08;100 nA
0,550537109375;214,030076459626;7,6385498046875E-09;0,550140380859375;6;411;9,21232625842094E-08;-8,36585834622383E-08;100 nA
0,6005859375;214,530564458362;7,305908203125E-09;0,600128173828125;6;412;9,21232625842094E-08;-8,36585834622383E-08;100 nA
0,650634765625;215,031052457099;7,1197509765625E-09;0,650054931640625;6;413;9,21232625842094E-08;-8,36585834622383E-08;100 nA
0,70068359375;215,531540455835;6,8267822265625E-09;0,699951171875;6;414;9,21232625842094E-08;-8,36585834622383E-08;100 nA
0,750732421875;216,032028454572;6,610107421875E-09;0,74993896484375;6;415;9,21232625842094E-08;-8,36585834622383E-08;100 nA
0,80078125;216,532516453308;6,5521240234375E-09;0,799560546875;6;416;9,21232625842094E-08;-8,36585834622383E-08;100 nA
0,850830078125;217,033004452044;6,494140625E-09;0,84991455078125;6;417;9,21232625842094E-08;-8,36585834622383E-08;100 nA
0,90087890625;217,533492450781;6,6009521484375E-09;0,89996337890625;6;418;9,21232625842094E-08;-8,36585834622383E-08;100 nA
0,950927734375;218,033980449517;6,7474365234375E-09;0,94940185546875;6;419;9,21232625842094E-08;-8,36585834622383E-08;100 nA
1,0009765625;218,534468448254;6,915283203125E-09;0,99945068359375;6;420;9,21232625842094E-08;-8,36585834622383E-08;100 nA
0,950927734375;219,03495644699;4,052734375E-09;0,94940185546875;6;421;9,21232625842094E-08;-8,36585834622383E-08;100 nA
0,90087890625;219,535444445726;2,716064453125E-09;0,899658203125;6;422;9,21232625842094E-08;-8,36585834622383E-08;100 nA
0,850830078125;220,035932444463;1,91650390625E-09;0,849609375;6;423;9,21232625842094E-08;-8,36585834622383E-08;100 nA
0,80078125;220,536420443199;1,40380859375E-09;0,79986572265625;6;424;9,21232625842094E-08;-8,36585834622383E-08;100 nA
0,750732421875;221,036908441935;9,33837890625E-10;0,749908447265625;6;425;9,21232625842094E-08;-8,36585834622383E-08;100 nA
0,70068359375;221,537396440672;4,94384765625E-10;0,69989013671875;6;426;9,21232625842094E-08;-8,36585834622383E-08;100 nA
0,650634765625;222,037884439408;1,8310546875E-10;0,6500244140625;6;427;9,21232625842094E-08;-8,36585834622383E-08;100 nA
0,6005859375;222,538372438145;-2,197265625E-10;0,60009765625;6;428;9,21232625842094E-08;-8,36585834622383E-08;100 nA
0,550537109375;223,038860436881;-6,317138671875E-10;0,550079345703125;6;429;9,21232625842094E-08;-8,36585834622383E-08;100 nA
0,50048828125;223,539348435617;-1,0955810546875E-09;0,500091552734375;6;430;9,21232625842094E-08;-8,36585834622383E-08;100 nA
0,450439453125;224,039836434354;-1,6082763671875E-09;0,450103759765625;6;431;9,21232625842094E-08;-8,36585834622383E-08;100 nA
0,400390625;224,54032443309;-2,3101806640625E-09;0,400115966796875;6;432;9,21232625842094E-08;-8,36585834622383E-08;100 nA
0,350341796875;225,040812431827;-2,972412109375E-09;0,350128173828125;6;433;9,21232625842094E-08;-8,36585834622383E-08;100 nA
0,30029296875;225,541300430563;-3,8909912109375E-09;0,300079345703125;6;434;9,21232625842094E-08;-8,36585834622383E-08;100 nA
0,250244140625;226,041788429299;-4,8858642578125E-09;0,250091552734375;6;435;9,21232625842094E-08;-8,36585834622383E-08;100 nA
0,2001953125;226,542276428036;-5,77392578125E-09;0,2000732421875;6;436;9,21232625842094E-08;-8,36585834622383E-08;100 nA
0,150146484375;227,042764426772;-6,72607421875E-09;0,15008544921875;6;437;9,21232625842094E-08;-8,36585834622383E-08;100 nA
0,10009765625;227,543252425509;-7,6904296875E-09;0,10009765625;6;438;9,21232625842094E-08;-8,36585834622383E-08;100 nA
0,050048828125;228,043740424245;-8,8714599609375E-09;0,050048828125;6;439;9,21232625842094E-08;-8,36585834622383E-08;100 nA
0;228,544228422981;-1,05010986328125E-08;0,000128173828124994;6;440;9,21232625842094E-08;-8,36585834622383E-08;100 nA
-0,050048828125;229,044716421718;-1,18499755859375E-08;-0,04986572265625;6;441;9,21232625842094E-08;-8,36585834622383E-08;100 nA
-0,10009765625;229,545204420454;-7,8155517578125E-09;-0,099700927734375;6;442;9,21232625842094E-08;-8,36585834622383E-08;100 nA
-0,150146484375;230,04569241919;-4,6966552734375E-09;-0,14959716796875;6;443;9,21232625842094E-08;-8,36585834622383E-08;100 nA
-0,2001953125;230,546180417927;-4,6295166015625E-09;-0,199462890625;6;444;9,21232625842094E-08;-8,36585834622383E-08;100 nA
-0,250244140625;231,046668416663;-4,98046875E-09;-0,2493896484375;6;445;9,21232625842094E-08;-8,36585834622383E-08;100 nA
-0,30029296875;231,5471564154;-5,2581787109375E-09;-0,29925537109375;6;446;9,21232625842094E-08;-8,36585834622383E-08;100 nA
-0,350341796875;232,047644414136;-5,21240234375E-09;-0,34918212890625;6;447;9,21232625842094E-08;-8,36585834622383E-08;100 nA
-0,400390625;232,548132412872;-5,0567626953125E-09;-0,399078369140625;6;448;9,21232625842094E-08;-8,36585834622383E-08;100 nA
-0,450439453125;233,048620411609;-5,029296875E-09;-0,44903564453125;6;449;9,21232625842094E-08;-8,36585834622383E-08;100 nA
-0,50048828125;233,549108410345;-4,864501953125E-09;-0,4989013671875;6;450;9,21232625842094E-08;-8,36585834622383E-08;100 nA
-0,550537109375;234,049596409082;-4,754638671875E-09;-0,548797607421875;6;451;9,21232625842094E-08;-8,36585834622383E-08;100 nA
-0,6005859375;234,550084407818;-4,632568359375E-09;-0,5986328125;6;452;9,21232625842094E-08;-8,36585834622383E-08;100 nA
-0,650634765625;235,050572406554;-4,608154296875E-09;-0,64862060546875;6;453;9,21232625842094E-08;-8,36585834622383E-08;100 nA
-0,70068359375;235,551060405291;-4,43115234375E-09;-0,6986083984375;6;454;9,21232625842094E-08;-8,36585834622383E-08;100 nA
-0,750732421875;236,051548404027;-4,3121337890625E-09;-0,74859619140625;6;455;9,21232625842094E-08;-8,36585834622383E-08;100 nA
-0,80078125;236,552036402764;-4,3060302734375E-09;-0,7989501953125;6;456;9,21232625842094E-08;-8,36585834622383E-08;100 nA
-0,850830078125;237,0525244015;-4,2999267578125E-09;-0,84869384765625;6;457;9,21232625842094E-08;-8,36585834622383E-08;100 nA
-0,90087890625;237,553012400236;-4,302978515625E-09;-0,89874267578125;6;458;9,21232625842094E-08;-8,36585834622383E-08;100 nA
-0,950927734375;238,053500398973;-4,364013671875E-09;-0,94879150390625;6;459;9,21232625842094E-08;-8,36585834622383E-08;100 nA
-1,0009765625;238,553988397709;-4,669189453125E-09;-0,99945068359375;6;460;9,21232625842094E-08;-8,36585834622383E-08;100 nA
-0,950927734375;239,054476396445;-2,7252197265625E-09;-0,9490966796875;6;461;9,21232625842094E-08;-8,36585834622383E-08;100 nA
-0,90087890625;239,554964395182;-1,6448974609375E-09;-0,89874267578125;6;462;9,21232625842094E-08;-8,36585834622383E-08;100 nA
-0,850830078125;240,055452393918;-9,6435546875E-10;-0,84869384765625;6;463;9,21232625842094E-08;-8,36585834622383E-08;100 nA
-0,80078125;240,555940392655;-4,57763671875E-10;-0,7989501953125;6;464;9,21232625842094E-08;-8,36585834622383E-08;100 nA
-0,750732421875;241,056428391391;-1,0986328125E-10;-0,748565673828125;6;465;9,21232625842094E-08;-8,36585834622383E-08;100 nA
-0,70068359375;241,556916390127;2,01416015625E-10;-0,698577880859375;6;466;9,21232625842094E-08;-8,36585834622383E-08;100 nA
-0,650634765625;242,057404388864;5,767822265625E-10;-0,6485595703125;6;467;9,21232625842094E-08;-8,36585834622383E-08;100 nA
-0,6005859375;242,5578923876;8,23974609375E-10;-0,598663330078125;6;468;9,21232625842094E-08;-8,36585834622383E-08;100 nA
-0,550537109375;243,058380386337;1,0498046875E-09;-0,548675537109375;6;469;9,21232625842094E-08;-8,36585834622383E-08;100 nA
-0,50048828125;243,558868385073;1,513671875E-09;-0,49884033203125;6;470;9,21232625842094E-08;-8,36585834622383E-08;100 nA
-0,450439453125;244,059356383809;1,8798828125E-09;-0,448944091796875;6;471;9,21232625842094E-08;-8,36585834622383E-08;100 nA
-0,400390625;244,559844382546;2,130126953125E-09;-0,3990478515625;6;472;9,21232625842094E-08;-8,36585834622383E-08;100 nA
-0,350341796875;245,060332381282;2,5665283203125E-09;-0,349090576171875;6;473;9,21232625842094E-08;-8,36585834622383E-08;100 nA
-0,30029296875;245,560820380019;3,2440185546875E-09;-0,299224853515625;6;474;9,21232625842094E-08;-8,36585834622383E-08;100 nA
-0,250244140625;246,061308378755;4,3060302734375E-09;-0,24932861328125;6;475;9,21232625842094E-08;-8,36585834622383E-08;100 nA
-0,2001953125;246,561796377491;5,1544189453125E-09;-0,199432373046875;6;476;9,21232625842094E-08;-8,36585834622383E-08;100 nA
-0,150146484375;247,062284376228;5,029296875E-09;-0,14959716796875;6;477;9,21232625842094E-08;-8,36585834622383E-08;100 nA
-0,10009765625;247,562772374964;4,5989990234375E-09;-0,09967041015625;6;478;9,21232625842094E-08;-8,36585834622383E-08;100 nA
-0,050048828125;248,0632603737;4,16259765625E-09;-0,04974365234375;6;479;9,21232625842094E-08;-8,36585834622383E-08;100 nA
0;248,563748372437;3,9642333984375E-09;0,000119018554687503;6;480;9,21232625842094E-08;-8,36585834622383E-08;100 nA
0,050048828125;249,064236371173;3,985595703125E-09;0,05010986328125;7;481;9,00429859757423E-08;-8,12117382884025E-08;100 nA
0,10009765625;249,56472436991;4,2999267578125E-09;0,10009765625;7;482;9,00429859757423E-08;-8,12117382884025E-08;100 nA
0,150146484375;250,065212368646;4,827880859375E-09;0,150054931640625;7;483;9,00429859757423E-08;-8,12117382884025E-08;100 nA
0,2001953125;250,565700367382;5,3985595703125E-09;0,200042724609375;7;484;9,00429859757423E-08;-8,12117382884025E-08;100 nA
0,250244140625;251,066188366119;6,0272216796875E-09;0,250152587890625;7;485;9,00429859757423E-08;-8,12117382884025E-08;100 nA
0,30029296875;251,566676364855;6,6864013671875E-09;0,300018310546875;7;486;9,00429859757423E-08;-8,12117382884025E-08;100 nA
0,350341796875;252,067164363592;7,16552734375E-09;0,35009765625;7;487;9,00429859757423E-08;-8,12117382884025E-08;100 nA
0,400390625;252,567652362328;7,5164794921875E-09;0,40008544921875;7;488;9,00429859757423E-08;-8,12117382884025E-08;100 nA
0,450439453125;253,068140361064;7,568359375E-09;0,45001220703125;7;489;9,00429859757423E-08;-8,12117382884025E-08;100 nA
0,50048828125;253,568628359801;7,70263671875E-09;0,500091552734375;7;490;9,00429859757423E-08;-8,12117382884025E-08;100 nA
0,550537109375;254,069116358537;7,4310302734375E-09;0,550048828125;7;491;9,00429859757423E-08;-8,12117382884025E-08;100 nA
0,6005859375;254,569604357274;6,9427490234375E-09;0,600067138671875;7;492;9,00429859757423E-08;-8,12117382884025E-08;100 nA
0,650634765625;255,07009235601;6,9244384765625E-09;0,649993896484375;7;493;9,00429859757423E-08;-8,12117382884025E-08;100 nA
0,70068359375;255,570580354746;6,6680908203125E-09;0,69989013671875;7;494;9,00429859757423E-08;-8,12117382884025E-08;100 nA
0,750732421875;256,071068353483;6,500244140625E-09;0,749786376953125;7;495;9,00429859757423E-08;-8,12117382884025E-08;100 nA
0,80078125;256,571556352219;6,3812255859375E-09;0,79986572265625;7;496;9,00429859757423E-08;-8,12117382884025E-08;100 nA
0,850830078125;257,072044350955;6,3140869140625E-09;0,84930419921875;7;497;9,00429859757423E-08;-8,12117382884025E-08;100 nA
0,90087890625;257,572532349692;6,2896728515625E-09;0,899658203125;7;498;9,00429859757423E-08;-8,12117382884025E-08;100 nA
0,950927734375;258,073020348428;6,5093994140625E-09;0,95001220703125;7;499;9,00429859757423E-08;-8,12117382884025E-08;100 nA
1,0009765625;258,573508347165;6,87255859375E-09;0,999755859375;7;500;9,00429859757423E-08;-8,12117382884025E-08;100 nA
0,950927734375;259,073996345901;4,0496826171875E-09;0,9490966796875;7;501;9,00429859757423E-08;-8,12117382884025E-08;100 nA
0,90087890625;259,574484344637;2,618408203125E-09;0,899658203125;7;502;9,00429859757423E-08;-8,12117382884025E-08;100 nA
0,850830078125;260,074972343374;1,7425537109375E-09;0,849609375;7;503;9,00429859757423E-08;-8,12117382884025E-08;100 nA
0,80078125;260,57546034211;1,141357421875E-09;0,79986572265625;7;504;9,00429859757423E-08;-8,12117382884025E-08;100 nA
0,750732421875;261,075948340847;7,26318359375E-10;0,749786376953125;7;505;9,00429859757423E-08;-8,12117382884025E-08;100 nA
0,70068359375;261,576436339583;2,899169921875E-10;0,699859619140625;7;506;9,00429859757423E-08;-8,12117382884025E-08;100 nA
0,650634765625;262,076924338319;1,220703125E-11;0,64996337890625;7;507;9,00429859757423E-08;-8,12117382884025E-08;100 nA
0,6005859375;262,577412337056;-3,7841796875E-10;0,5999755859375;7;508;9,00429859757423E-08;-8,12117382884025E-08;100 nA
0,550537109375;263,077900335792;-7,415771484375E-10;0,550079345703125;7;509;9,00429859757423E-08;-8,12117382884025E-08;100 nA
0,50048828125;263,578388334529;-1,220703125E-09;0,50006103515625;7;510;9,00429859757423E-08;-8,12117382884025E-08;100 nA
0,450439453125;264,078876333265;-1,702880859375E-09;0,4500732421875;7;511;9,00429859757423E-08;-8,12117382884025E-08;100 nA
0,400390625;264,579364332001;-2,34375E-09;0,4000244140625;7;512;9,00429859757423E-08;-8,12117382884025E-08;100 nA
0,350341796875;265,079852330738;-3,0609130859375E-09;0,350067138671875;7;513;9,00429859757423E-08;-8,12117382884025E-08;100 nA
0,30029296875;265,580340329474;-3,9947509765625E-09;0,29998779296875;7;514;9,00429859757423E-08;-8,12117382884025E-08;100 nA
0,250244140625;266,08082832821;-4,91943359375E-09;0,250091552734375;7;515;9,00429859757423E-08;-8,12117382884025E-08;100 nA
0,2001953125;266,581316326947;-5,6793212890625E-09;0,199981689453125;7;516;9,00429859757423E-08;-8,12117382884025E-08;100 nA
0,150146484375;267,081804325683;-6,6619873046875E-09;0,15008544921875;7;517;9,00429859757423E-08;-8,12117382884025E-08;100 nA
0,10009765625;267,58229232442;-7,598876953125E-09;0,100067138671875;7;518;9,00429859757423E-08;-8,12117382884025E-08;100 nA
0,050048828125;268,082780323156;-8,7646484375E-09;0,050048828125;7;519;9,00429859757423E-08;-8,12117382884025E-08;100 nA
0;268,583268321892;-1,03424072265625E-08;0,0001220703125;7;520;9,00429859757423E-08;-8,12117382884025E-08;100 nA
-0,050048828125;269,083756320629;-1,129150390625E-08;-0,049774169921875;7;521;9,00429859757423E-08;-8,12117382884025E-08;100 nA
-0,10009765625;269,584244319365;-7,318115234375E-09;-0,09967041015625;7;522;9,00429859757423E-08;-8,12117382884025E-08;100 nA
-0,150146484375;270,084732318102;-4,443359375E-09;-0,14959716796875;7;523;9,00429859757423E-08;-8,12117382884025E-08;100 nA
-0,2001953125;270,585220316838;-4,4189453125E-09;-0,199462890625;7;524;9,00429859757423E-08;-8,12117382884025E-08;100 nA
-0,250244140625;271,085708315574;-4,67529296875E-09;-0,24932861328125;7;525;9,00429859757423E-08;-8,12117382884025E-08;100 nA
-0,30029296875;271,586196314311;-4,8858642578125E-09;-0,2991943359375;7;526;9,00429859757423E-08;-8,12117382884025E-08;100 nA
-0,350341796875;272,086684313047;-4,864501953125E-09;-0,349151611328125;7;527;9,00429859757423E-08;-8,12117382884025E-08;100 nA
-0,400390625;272,587172311784;-4,79736328125E-09;-0,399078369140625;7;528;9,00429859757423E-08;-8,12117382884025E-08;100 nA
-0,450439453125;273,08766031052;-4,7088623046875E-09;-0,448883056640625;7;529;9,00429859757423E-08;-8,12117382884025E-08;100 nA
-0,50048828125;273,588148309256;-4,595947265625E-09;-0,498809814453125;7;530;9,00429859757423E-08;-8,12117382884025E-08;100 nA
-0,550537109375;274,088636307993;-4,47998046875E-09;-0,548736572265625;7;531;9,00429859757423E-08;-8,12117382884025E-08;100 nA
-0,6005859375;274,589124306729;-4,3701171875E-09;-0,5986328125;7;532;9,00429859757423E-08;-8,12117382884025E-08;100 nA
-0,650634765625;275,089612305465;-4,345703125E-09;-0,6485595703125;7;533;9,00429859757423E-08;-8,12117382884025E-08;100 nA
-0,70068359375;275,590100304202;-4,2572021484375E-09;-0,698577880859375;7;534;9,00429859757423E-08;-8,12117382884025E-08;100 nA
-0,750732421875;276,090588302938;-4,2388916015625E-09;-0,748504638671875;7;535;9,00429859757423E-08;-8,12117382884025E-08;100 nA
-0,80078125;276,591076301675;-4,150390625E-09;-0,79833984375;7;536;9,00429859757423E-08;-8,12117382884025E-08;100 nA
-0,850830078125;277,091564300411;-4,1229248046875E-09;-0,8489990234375;7;537;9,00429859757423E-08;-8,12117382884025E-08;100 nA
-0,90087890625;277,592052299147;-4,1778564453125E-09;-0,8990478515625;7;538;9,00429859757423E-08;-8,12117382884025E-08;100 nA
-0,950927734375;278,092540297884;-4,315185546875E-09;-0,94879150390625;7;539;9,00429859757423E-08;-8,12117382884025E-08;100 nA
-1,0009765625;278,59302829662;-4,5623779296875E-09;-0,9991455078125;7;540;9,00429859757423E-08;-8,12117382884025E-08;100 nA
-0,950927734375;279,093516295357;-2,6702880859375E-09;-0,94940185546875;7;541;9,00429859757423E-08;-8,12117382884025E-08;100 nA
-0,90087890625;279,594004294093;-1,6265869140625E-09;-0,89874267578125;7;542;9,00429859757423E-08;-8,12117382884025E-08;100 nA
-0,850830078125;280,094492292829;-9,429931640625E-10;-0,84869384765625;7;543;9,00429859757423E-08;-8,12117382884025E-08;100 nA
-0,80078125;280,594980291566;-4,791259765625E-10;-0,79833984375;7;544;9,00429859757423E-08;-8,12117382884025E-08;100 nA
-0,750732421875;281,095468290302;-1,15966796875E-10;-0,748565673828125;7;545;9,00429859757423E-08;-8,12117382884025E-08;100 nA
-0,70068359375;281,595956289039;2,777099609375E-10;-0,698577880859375;7;546;9,00429859757423E-08;-8,12117382884025E-08;100 nA
-0,650634765625;282,096444287775;5,828857421875E-10;-0,648529052734375;7;547;9,00429859757423E-08;-8,12117382884025E-08;100 nA
-0,6005859375;282,596932286511;9,82666015625E-10;-0,5986328125;7;548;9,00429859757423E-08;-8,12117382884025E-08;100 nA
-0,550537109375;283,097420285248;1,2176513671875E-09;-0,548736572265625;7;549;9,00429859757423E-08;-8,12117382884025E-08;100 nA
-0,50048828125;283,597908283984;1,6387939453125E-09;-0,498809814453125;7;550;9,00429859757423E-08;-8,12117382884025E-08;100 nA
-0,450439453125;284,098396282721;1,91650390625E-09;-0,448883056640625;7;551;9,00429859757423E-08;-8,12117382884025E-08;100 nA
-0,400390625;284,598884281457;2,2369384765625E-09;-0,3990478515625;7;552;9,00429859757423E-08;-8,12117382884025E-08;100 nA
-0,350341796875;285,099372280193;2,62451171875E-09;-0,34918212890625;7;553;9,00429859757423E-08;-8,12117382884025E-08;100 nA
-0,30029296875;285,59986027893;3,179931640625E-09;-0,29925537109375;7;554;9,00429859757423E-08;-8,12117382884025E-08;100 nA
-0,250244140625;286,100348277666;4,2572021484375E-09;-0,249359130859375;7;555;9,00429859757423E-08;-8,12117382884025E-08;100 nA
-0,2001953125;286,600836276402;5,0384521484375E-09;-0,199371337890625;7;556;9,00429859757423E-08;-8,12117382884025E-08;100 nA
-0,150146484375;287,101324275139;4,8095703125E-09;-0,149627685546875;7;557;9,00429859757423E-08;-8,12117382884025E-08;100 nA
-0,10009765625;287,601812273875;4,510498046875E-09;-0,099700927734375;7;558;9,00429859757423E-08;-8,12117382884025E-08;100 nA
-0,050048828125;288,102300272612;4,1351318359375E-09;-0,049774169921875;7;559;9,00429859757423E-08;-8,12117382884025E-08;100 nA
0;288,602788271348;3,9093017578125E-09;0,000125122070312497;7;560;9,00429859757423E-08;-8,12117382884025E-08;100 nA
0,050048828125;289,103276270084;3,9764404296875E-09;0,050079345703125;8;561;8,97115468978881E-08;-8,31255316734314E-08;100 nA
0,10009765625;289,603764268821;4,2144775390625E-09;0,10003662109375;8;562;8,97115468978881E-08;-8,31255316734314E-08;100 nA
0,150146484375;290,104252267557;4,6783447265625E-09;0,150054931640625;8;563;8,97115468978881E-08;-8,31255316734314E-08;100 nA
0,2001953125;290,604740266294;5,322265625E-09;0,20001220703125;8;564;8,97115468978881E-08;-8,31255316734314E-08;100 nA
0,250244140625;291,10522826503;5,9906005859375E-09;0,25;8;565;8,97115468978881E-08;-8,31255316734314E-08;100 nA
0,30029296875;291,605716263766;6,640625E-09;0,300018310546875;8;566;8,97115468978881E-08;-8,31255316734314E-08;100 nA
0,350341796875;292,106204262503;7,1380615234375E-09;0,350067138671875;8;567;8,97115468978881E-08;-8,31255316734314E-08;100 nA
0,400390625;292,606692261239;7,5225830078125E-09;0,400054931640625;8;568;8,97115468978881E-08;-8,31255316734314E-08;100 nA
0,450439453125;293,107180259976;7,70263671875E-09;0,450042724609375;8;569;8,97115468978881E-08;-8,31255316734314E-08;100 nA
0,50048828125;293,607668258712;7,708740234375E-09;0,500091552734375;8;570;8,97115468978881E-08;-8,31255316734314E-08;100 nA
0,550537109375;294,108156257448;7,4462890625E-09;0,550079345703125;8;571;8,97115468978881E-08;-8,31255316734314E-08;100 nA
0,6005859375;294,608644256185;7,1502685546875E-09;0,60003662109375;8;572;8,97115468978881E-08;-8,31255316734314E-08;100 nA
0,650634765625;295,109132254921;6,9000244140625E-09;0,6500244140625;8;573;8,97115468978881E-08;-8,31255316734314E-08;100 nA
0,70068359375;295,609620253657;6,640625E-09;0,699951171875;8;574;8,97115468978881E-08;-8,31255316734314E-08;100 nA
0,750732421875;296,110108252394;6,475830078125E-09;0,74981689453125;8;575;8,97115468978881E-08;-8,31255316734314E-08;100 nA
0,80078125;296,61059625113;6,28662109375E-09;0,799560546875;8;576;8,97115468978881E-08;-8,31255316734314E-08;100 nA
0,850830078125;297,111084249867;6,2652587890625E-09;0,84991455078125;8;577;8,97115468978881E-08;-8,31255316734314E-08;100 nA
0,90087890625;297,611572248603;6,298828125E-09;0,9002685546875;8;578;8,97115468978881E-08;-8,31255316734314E-08;100 nA
0,950927734375;298,112060247339;6,4697265625E-09;0,94940185546875;8;579;8,97115468978881E-08;-8,31255316734314E-08;100 nA
1,0009765625;298,612548246076;6,7352294921875E-09;0,999755859375;8;580;8,97115468978881E-08;-8,31255316734314E-08;100 nA
0,950927734375;299,113036244812;3,961181640625E-09;0,94970703125;8;581;8,97115468978881E-08;-8,31255316734314E-08;100 nA
0,90087890625;299,613524243549;2,6763916015625E-09;0,899658203125;8;582;8,97115468978881E-08;-8,31255316734314E-08;100 nA
0,850830078125;300,114012242285;1,873779296875E-09;0,84930419921875;8;583;8,97115468978881E-08;-8,31255316734314E-08;100 nA
0,80078125;300,614500241021;1,3092041015625E-09;0,79986572265625;8;584;8,97115468978881E-08;-8,31255316734314E-08;100 nA
0,750732421875;301,114988239758;8,1787109375E-10;0,749847412109375;8;585;8,97115468978881E-08;-8,31255316734314E-08;100 nA
0,70068359375;301,615476238494;4,791259765625E-10;0,699951171875;8;586;8,97115468978881E-08;-8,31255316734314E-08;100 nA
0,650634765625;302,115964237231;1,312255859375E-10;0,6500244140625;8;587;8,97115468978881E-08;-8,31255316734314E-08;100 nA
0,6005859375;302,616452235967;-2,532958984375E-10;0,600067138671875;8;588;8,97115468978881E-08;-8,31255316734314E-08;100 nA
0,550537109375;303,116940234703;-5,706787109375E-10;0,550079345703125;8;589;8,97115468978881E-08;-8,31255316734314E-08;100 nA
0,50048828125;303,61742823344;-1,0986328125E-09;0,50006103515625;8;590;8,97115468978881E-08;-8,31255316734314E-08;100 nA
0,450439453125;304,117916232176;-1,74560546875E-09;0,450042724609375;8;591;8,97115468978881E-08;-8,31255316734314E-08;100 nA
0,400390625;304,618404230912;-2,2918701171875E-09;0,399993896484375;8;592;8,97115468978881E-08;-8,31255316734314E-08;100 nA
0,350341796875;305,118892229649;-3,0303955078125E-09;0,350067138671875;8;593;8,97115468978881E-08;-8,31255316734314E-08;100 nA
0,30029296875;305,619380228385;-4,0374755859375E-09;0,300018310546875;8;594;8,97115468978881E-08;-8,31255316734314E-08;100 nA
0,250244140625;306,119868227122;-4,852294921875E-09;0,250030517578125;8;595;8,97115468978881E-08;-8,31255316734314E-08;100 nA
0,2001953125;306,620356225858;-5,792236328125E-09;0,20001220703125;8;596;8,97115468978881E-08;-8,31255316734314E-08;100 nA
0,150146484375;307,120844224594;-6,732177734375E-09;0,150054931640625;8;597;8,97115468978881E-08;-8,31255316734314E-08;100 nA
0,10009765625;307,621332223331;-7,672119140625E-09;0,10009765625;8;598;8,97115468978881E-08;-8,31255316734314E-08;100 nA
0,050048828125;308,121820222067;-8,905029296875E-09;0,050048828125;8;599;8,97115468978881E-08;-8,31255316734314E-08;100 nA
0;308,622308220804;-1,04522705078125E-08;0,000112915039062494;8;600;8,97115468978881E-08;-8,31255316734314E-08;100 nA
-0,050048828125;309,12279621954;-1,1260986328125E-08;-0,049835205078125;8;601;8,97115468978881E-08;-8,31255316734314E-08;100 nA
-0,10009765625;309,623284218276;-7,177734375E-09;-0,0997314453125;8;602;8,97115468978881E-08;-8,31255316734314E-08;100 nA
-0,150146484375;310,123772217013;-4,595947265625E-09;-0,149627685546875;8;603;8,97115468978881E-08;-8,31255316734314E-08;100 nA
-0,2001953125;310,624260215749;-4,547119140625E-09;-0,199493408203125;8;604;8,97115468978881E-08;-8,31255316734314E-08;100 nA
-0,250244140625;311,124748214486;-4,8248291015625E-09;-0,249420166015625;8;605;8,97115468978881E-08;-8,31255316734314E-08;100 nA
-0,30029296875;311,625236213222;-4,962158203125E-09;-0,29925537109375;8;606;8,97115468978881E-08;-8,31255316734314E-08;100 nA
-0,350341796875;312,125724211958;-5,1361083984375E-09;-0,349212646484375;8;607;8,97115468978881E-08;-8,31255316734314E-08;100 nA
-0,400390625;312,626212210695;-5,0933837890625E-09;-0,399139404296875;8;608;8,97115468978881E-08;-8,31255316734314E-08;100 nA
-0,450439453125;313,126700209431;-4,8248291015625E-09;-0,448944091796875;8;609;8,97115468978881E-08;-8,31255316734314E-08;100 nA
-0,50048828125;313,627188208167;-4,8614501953125E-09;-0,498870849609375;8;610;8,97115468978881E-08;-8,31255316734314E-08;100 nA
-0,550537109375;314,127676206904;-4,779052734375E-09;-0,54876708984375;8;611;8,97115468978881E-08;-8,31255316734314E-08;100 nA
-0,6005859375;314,62816420564;-4,6478271484375E-09;-0,598663330078125;8;612;8,97115468978881E-08;-8,31255316734314E-08;100 nA
-0,650634765625;315,128652204377;-4,50439453125E-09;-0,648590087890625;8;613;8,97115468978881E-08;-8,31255316734314E-08;100 nA
-0,70068359375;315,629140203113;-4,449462890625E-09;-0,6986083984375;8;614;8,97115468978881E-08;-8,31255316734314E-08;100 nA
-0,750732421875;316,129628201849;-4,437255859375E-09;-0,7486572265625;8;615;8,97115468978881E-08;-8,31255316734314E-08;100 nA
-0,80078125;316,630116200586;-4,376220703125E-09;-0,79833984375;8;616;8,97115468978881E-08;-8,31255316734314E-08;100 nA
-0,850830078125;317,130604199322;-4,3487548828125E-09;-0,848388671875;8;617;8,97115468978881E-08;-8,31255316734314E-08;100 nA
-0,90087890625;317,631092198059;-4,3914794921875E-09;-0,8990478515625;8;618;8,97115468978881E-08;-8,31255316734314E-08;100 nA
-0,950927734375;318,131580196795;-4,4525146484375E-09;-0,94818115234375;8;619;8,97115468978881E-08;-8,31255316734314E-08;100 nA
-1,0009765625;318,632068195531;-4,6417236328125E-09;-0,99884033203125;8;620;8,97115468978881E-08;-8,31255316734314E-08;100 nA
-0,950927734375;319,132556194268;-2,716064453125E-09;-0,94879150390625;8;621;8,97115468978881E-08;-8,31255316734314E-08;100 nA
-0,90087890625;319,633044193004;-1,7364501953125E-09;-0,8984375;8;622;8,97115468978881E-08;-8,31255316734314E-08;100 nA
-0,850830078125;320,133532191741;-1,0711669921875E-09;-0,848388671875;8;623;8,97115468978881E-08;-8,31255316734314E-08;100 nA
-0,80078125;320,634020190477;-6,28662109375E-10;-0,79833984375;8;624;8,97115468978881E-08;-8,31255316734314E-08;100 nA
-0,750732421875;321,134508189213;-1,89208984375E-10;-0,748626708984375;8;625;8,97115468978881E-08;-8,31255316734314E-08;100 nA
-0,70068359375;321,63499618795;1,068115234375E-10;-0,6986083984375;8;626;8,97115468978881E-08;-8,31255316734314E-08;100 nA
-0,650634765625;322,135484186686;4,791259765625E-10;-0,648590087890625;8;627;8,97115468978881E-08;-8,31255316734314E-08;100 nA
-0,6005859375;322,635972185422;7,9345703125E-10;-0,598602294921875;8;628;8,97115468978881E-08;-8,31255316734314E-08;100 nA
-0,550537109375;323,136460184159;1,0955810546875E-09;-0,54876708984375;8;629;8,97115468978881E-08;-8,31255316734314E-08;100 nA
-0,50048828125;323,636948182895;1,3885498046875E-09;-0,498870849609375;8;630;8,97115468978881E-08;-8,31255316734314E-08;100 nA
-0,450439453125;324,137436181632;1,763916015625E-09;-0,448944091796875;8;631;8,97115468978881E-08;-8,31255316734314E-08;100 nA
-0,400390625;324,637924180368;2,166748046875E-09;-0,399078369140625;8;632;8,97115468978881E-08;-8,31255316734314E-08;100 nA
-0,350341796875;325,138412179104;2,667236328125E-09;-0,349151611328125;8;633;8,97115468978881E-08;-8,31255316734314E-08;100 nA
-0,30029296875;325,638900177841;3,155517578125E-09;-0,299163818359375;8;634;8,97115468978881E-08;-8,31255316734314E-08;100 nA
-0,250244140625;326,139388176577;4,2510986328125E-09;-0,24932861328125;8;635;8,97115468978881E-08;-8,31255316734314E-08;100 nA
-0,2001953125;326,639876175314;5,029296875E-09;-0,199432373046875;8;636;8,97115468978881E-08;-8,31255316734314E-08;100 nA
-0,150146484375;327,14036417405;4,8736572265625E-09;-0,149505615234375;8;637;8,97115468978881E-08;-8,31255316734314E-08;100 nA
-0,10009765625;327,640852172786;4,5196533203125E-09;-0,099639892578125;8;638;8,97115468978881E-08;-8,31255316734314E-08;100 nA
-0,050048828125;328,141340171523;4,1778564453125E-09;-0,0497283935546875;8;639;8,97115468978881E-08;-8,31255316734314E-08;100 nA
0;328,641828170259;3,96728515625E-09;7,93457031249972E-05;8;640;8,97115468978881E-08;-8,31255316734314E-08;100 nA
0,050048828125;329,142316168996;3,9947509765625E-09;0,050079345703125;9;641;8,98551195859909E-08;-8,13660025596619E-08;100 nA
0,10009765625;329,642804167732;4,296875E-09;0,10009765625;9;642;8,98551195859909E-08;-8,13660025596619E-08;100 nA
0,150146484375;330,143292166468;4,742431640625E-09;0,150054931640625;9;643;8,98551195859909E-08;-8,13660025596619E-08;100 nA
0,2001953125;330,643780165205;5,322265625E-09;0,20001220703125;9;644;8,98551195859909E-08;-8,13660025596619E-08;100 nA
0,250244140625;331,144268163941;6,103515625E-09;0,25006103515625;9;645;8,98551195859909E-08;-8,13660025596619E-08;100 nA
0,30029296875;331,644756162677;6,732177734375E-09;0,30010986328125;9;646;8,98551195859909E-08;-8,13660025596619E-08;100 nA
0,350341796875;332,145244161414;7,2906494140625E-09;0,35015869140625;9;647;8,98551195859909E-08;-8,13660025596619E-08;100 nA
0,400390625;332,64573216015;7,7056884765625E-09;0,400146484375;9;648;8,98551195859909E-08;-8,13660025596619E-08;100 nA
0,450439453125;333,146220158887;7,8399658203125E-09;0,45013427734375;9;649;8,98551195859909E-08;-8,13660025596619E-08;100 nA
0,50048828125;333,646708157623;7,659912109375E-09;0,500152587890625;9;650;8,98551195859909E-08;-8,13660025596619E-08;100 nA
0,550537109375;334,147196156359;7,3944091796875E-09;0,55010986328125;9;651;8,98551195859909E-08;-8,13660025596619E-08;100 nA
0,6005859375;334,647684155096;7,135009765625E-09;0,600067138671875;9;652;8,98551195859909E-08;-8,13660025596619E-08;100 nA
0,650634765625;335,148172153832;6,87255859375E-09;0,650054931640625;9;653;8,98551195859909E-08;-8,13660025596619E-08;100 nA
0,70068359375;335,648660152569;6,622314453125E-09;0,699920654296875;9;654;8,98551195859909E-08;-8,13660025596619E-08;100 nA
0,750732421875;336,149148151305;6,488037109375E-09;0,74981689453125;9;655;8,98551195859909E-08;-8,13660025596619E-08;100 nA
0,80078125;336,649636150041;6,3446044921875E-09;0,79986572265625;9;656;8,98551195859909E-08;-8,13660025596619E-08;100 nA
0,850830078125;337,150124148778;6,3018798828125E-09;0,84991455078125;9;657;8,98551195859909E-08;-8,13660025596619E-08;100 nA
0,90087890625;337,650612147514;6,34765625E-09;0,899658203125;9;658;8,98551195859909E-08;-8,13660025596619E-08;100 nA
0,950927734375;338,151100146251;6,5032958984375E-09;0,94940185546875;9;659;8,98551195859909E-08;-8,13660025596619E-08;100 nA
1,0009765625;338,651588144987;6,8267822265625E-09;0,99945068359375;9;660;8,98551195859909E-08;-8,13660025596619E-08;100 nA
0,950927734375;339,152076143723;4,0283203125E-09;0,94970703125;9;661;8,98551195859909E-08;-8,13660025596619E-08;100 nA
0,90087890625;339,65256414246;2,6763916015625E-09;0,89996337890625;9;662;8,98551195859909E-08;-8,13660025596619E-08;100 nA
0,850830078125;340,153052141196;1,8890380859375E-09;0,84991455078125;9;663;8,98551195859909E-08;-8,13660025596619E-08;100 nA
0,80078125;340,653540139932;1,2908935546875E-09;0,799560546875;9;664;8,98551195859909E-08;-8,13660025596619E-08;100 nA
0,750732421875;341,154028138669;8,4228515625E-10;0,749755859375;9;665;8,98551195859909E-08;-8,13660025596619E-08;100 nA
0,70068359375;341,654516137405;4,791259765625E-10;0,699920654296875;9;666;8,98551195859909E-08;-8,13660025596619E-08;100 nA
0,650634765625;342,155004136142;1,220703125E-10;0,650054931640625;9;667;8,98551195859909E-08;-8,13660025596619E-08;100 nA
0,6005859375;342,655492134878;-2,74658203125E-10;0,60009765625;9;668;8,98551195859909E-08;-8,13660025596619E-08;100 nA
0,550537109375;343,155980133614;-6,16455078125E-10;0,550079345703125;9;669;8,98551195859909E-08;-8,13660025596619E-08;100 nA
0,50048828125;343,656468132351;-1,07421875E-09;0,50006103515625;9;670;8,98551195859909E-08;-8,13660025596619E-08;100 nA
0,450439453125;344,156956131087;-1,55029296875E-09;0,450103759765625;9;671;8,98551195859909E-08;-8,13660025596619E-08;100 nA
0,400390625;344,657444129824;-2,2430419921875E-09;0,40008544921875;9;672;8,98551195859909E-08;-8,13660025596619E-08;100 nA
0,350341796875;345,15793212856;-3,02734375E-09;0,350067138671875;9;673;8,98551195859909E-08;-8,13660025596619E-08;100 nA
0,30029296875;345,658420127296;-3,9215087890625E-09;0,300018310546875;9;674;8,98551195859909E-08;-8,13660025596619E-08;100 nA
0,250244140625;346,158908126033;-4,8797607421875E-09;0,250030517578125;9;675;8,98551195859909E-08;-8,13660025596619E-08;100 nA
0,2001953125;346,659396124769;-5,718994140625E-09;0,200042724609375;9;676;8,98551195859909E-08;-8,13660025596619E-08;100 nA
0,150146484375;347,159884123506;-6,7626953125E-09;0,150054931640625;9;677;8,98551195859909E-08;-8,13660025596619E-08;100 nA
0,10009765625;347,660372122242;-7,7392578125E-09;0,100006103515625;9;678;8,98551195859909E-08;-8,13660025596619E-08;100 nA
0,050048828125;348,160860120978;-8,9111328125E-09;0,050079345703125;9;679;8,98551195859909E-08;-8,13660025596619E-08;100 nA
0;348,661348119715;-1,036376953125E-08;0,0001068115234375;9;680;8,98551195859909E-08;-8,13660025596619E-08;100 nA
-0,050048828125;349,161836118451;-1,0986328125E-08;-0,04986572265625;9;681;8,98551195859909E-08;-8,13660025596619E-08;100 nA
-0,10009765625;349,662324117188;-6,9610595703125E-09;-0,099700927734375;9;682;8,98551195859909E-08;-8,13660025596619E-08;100 nA
-0,150146484375;350,162812115924;-4,522705078125E-09;-0,149627685546875;9;683;8,98551195859909E-08;-8,13660025596619E-08;100 nA
-0,2001953125;350,66330011466;-4,5257568359375E-09;-0,199462890625;9;684;8,98551195859909E-08;-8,13660025596619E-08;100 nA
-0,250244140625;351,163788113397;-4,815673828125E-09;-0,249359130859375;9;685;8,98551195859909E-08;-8,13660025596619E-08;100 nA
-0,30029296875;351,664276112133;-5,0933837890625E-09;-0,299285888671875;9;686;8,98551195859909E-08;-8,13660025596619E-08;100 nA
-0,350341796875;352,164764110869;-5,157470703125E-09;-0,349212646484375;9;687;8,98551195859909E-08;-8,13660025596619E-08;100 nA
-0,400390625;352,665252109606;-5,0384521484375E-09;-0,399078369140625;9;688;8,98551195859909E-08;-8,13660025596619E-08;100 nA
-0,450439453125;353,165740108342;-4,82177734375E-09;-0,449005126953125;9;689;8,98551195859909E-08;-8,13660025596619E-08;100 nA
-0,50048828125;353,666228107079;-4,7454833984375E-09;-0,498870849609375;9;690;8,98551195859909E-08;-8,13660025596619E-08;100 nA
-0,550537109375;354,166716105815;-4,6142578125E-09;-0,54876708984375;9;691;8,98551195859909E-08;-8,13660025596619E-08;100 nA
-0,6005859375;354,667204104551;-4,4921875E-09;-0,598663330078125;9;692;8,98551195859909E-08;-8,13660025596619E-08;100 nA
-0,650634765625;355,167692103288;-4,4036865234375E-09;-0,648590087890625;9;693;8,98551195859909E-08;-8,13660025596619E-08;100 nA
-0,70068359375;355,668180102024;-4,3060302734375E-09;-0,6986083984375;9;694;8,98551195859909E-08;-8,13660025596619E-08;100 nA
-0,750732421875;356,168668100761;-4,26025390625E-09;-0,748565673828125;9;695;8,98551195859909E-08;-8,13660025596619E-08;100 nA
-0,80078125;356,669156099497;-4,2266845703125E-09;-0,79833984375;9;696;8,98551195859909E-08;-8,13660025596619E-08;100 nA
-0,850830078125;357,169644098233;-4,0618896484375E-09;-0,84869384765625;9;697;8,98551195859909E-08;-8,13660025596619E-08;100 nA
-0,90087890625;357,67013209697;-4,156494140625E-09;-0,8984375;9;698;8,98551195859909E-08;-8,13660025596619E-08;100 nA
-0,950927734375;358,170620095706;-4,2755126953125E-09;-0,94879150390625;9;699;8,98551195859909E-08;-8,13660025596619E-08;100 nA
-1,0009765625;358,671108094443;-4,4677734375E-09;-0,99884033203125;9;700;8,98551195859909E-08;-8,13660025596619E-08;100 nA
-0,950927734375;359,171596093179;-2,4993896484375E-09;-0,9490966796875;9;701;8,98551195859909E-08;-8,13660025596619E-08;100 nA
-0,90087890625;359,672084091915;-1,5533447265625E-09;-0,89874267578125;9;702;8,98551195859909E-08;-8,13660025596619E-08;100 nA
-0,850830078125;360,172572090652;-8,36181640625E-10;-0,848388671875;9;703;8,98551195859909E-08;-8,13660025596619E-08;100 nA
-0,80078125;360,673060089388;-5,218505859375E-10;-0,79864501953125;9;704;8,98551195859909E-08;-8,13660025596619E-08;100 nA
-0,750732421875;361,173548088124;-1,46484375E-10;-0,74859619140625;9;705;8,98551195859909E-08;-8,13660025596619E-08;100 nA
-0,70068359375;361,674036086861;1,708984375E-10;-0,698516845703125;9;706;8,98551195859909E-08;-8,13660025596619E-08;100 nA
-0,650634765625;362,174524085597;5,67626953125E-10;-0,648590087890625;9;707;8,98551195859909E-08;-8,13660025596619E-08;100 nA
-0,6005859375;362,675012084334;8,148193359375E-10;-0,5986328125;9;708;8,98551195859909E-08;-8,13660025596619E-08;100 nA
-0,550537109375;363,17550008307;1,2542724609375E-09;-0,548675537109375;9;709;8,98551195859909E-08;-8,13660025596619E-08;100 nA
-0,50048828125;363,675988081806;1,556396484375E-09;-0,498779296875;9;710;8,98551195859909E-08;-8,13660025596619E-08;100 nA
-0,450439453125;364,176476080543;1,7822265625E-09;-0,4488525390625;9;711;8,98551195859909E-08;-8,13660025596619E-08;100 nA
-0,400390625;364,676964079279;2,1514892578125E-09;-0,39910888671875;9;712;8,98551195859909E-08;-8,13660025596619E-08;100 nA
-0,350341796875;365,177452078016;2,4169921875E-09;-0,349212646484375;9;713;8,98551195859909E-08;-8,13660025596619E-08;100 nA
-0,30029296875;365,677940076752;3,143310546875E-09;-0,299224853515625;9;714;8,98551195859909E-08;-8,13660025596619E-08;100 nA
-0,250244140625;366,178428075488;4,1259765625E-09;-0,249359130859375;9;715;8,98551195859909E-08;-8,13660025596619E-08;100 nA
-0,2001953125;366,678916074225;4,8919677734375E-09;-0,199432373046875;9;716;8,98551195859909E-08;-8,13660025596619E-08;100 nA
-0,150146484375;367,179404072961;4,6844482421875E-09;-0,14959716796875;9;717;8,98551195859909E-08;-8,13660025596619E-08;100 nA
-0,10009765625;367,679892071698;4,2816162109375E-09;-0,0997314453125;9;718;8,98551195859909E-08;-8,13660025596619E-08;100 nA
-0,050048828125;368,180380070434;4,034423828125E-09;-0,049835205078125;9;719;8,98551195859909E-08;-8,13660025596619E-08;100 nA
0;368,68086806917;3,8055419921875E-09;0,000119018554687503;9;720;8,98551195859909E-08;-8,13660025596619E-08;100 nA
0,050048828125;369,181356067907;3,8543701171875E-09;0,050079345703125;10;721;8,80008935928345E-08;-7,98982009291649E-08;100 nA
0,10009765625;369,681844066643;4,144287109375E-09;0,0999755859375;10;722;8,80008935928345E-08;-7,98982009291649E-08;100 nA
0,150146484375;370,182332065379;4,5989990234375E-09;0,150054931640625;10;723;8,80008935928345E-08;-7,98982009291649E-08;100 nA
0,2001953125;370,682820064116;5,194091796875E-09;0,20001220703125;10;724;8,80008935928345E-08;-7,98982009291649E-08;100 nA
0,250244140625;371,183308062852;5,938720703125E-09;0,25;10;725;8,80008935928345E-08;-7,98982009291649E-08;100 nA
0,30029296875;371,683796061589;6,549072265625E-09;0,300018310546875;10;726;8,80008935928345E-08;-7,98982009291649E-08;100 nA
0,350341796875;372,184284060325;6,9854736328125E-09;0,35009765625;10;727;8,80008935928345E-08;-7,98982009291649E-08;100 nA
0,400390625;372,684772059061;7,3486328125E-09;0,400054931640625;10;728;8,80008935928345E-08;-7,98982009291649E-08;100 nA
0,450439453125;373,185260057798;7,51953125E-09;0,450042724609375;10;729;8,80008935928345E-08;-7,98982009291649E-08;100 nA
0,50048828125;373,685748056534;7,4798583984375E-09;0,500030517578125;10;730;8,80008935928345E-08;-7,98982009291649E-08;100 nA
0,550537109375;374,186236055271;7,1380615234375E-09;0,550048828125;10;731;8,80008935928345E-08;-7,98982009291649E-08;100 nA
0,6005859375;374,686724054007;6,854248046875E-09;0,5999755859375;10;732;8,80008935928345E-08;-7,98982009291649E-08;100 nA
0,650634765625;375,187212052743;6,640625E-09;0,649932861328125;10;733;8,80008935928345E-08;-7,98982009291649E-08;100 nA
0,70068359375;375,68770005148;6,4422607421875E-09;0,6998291015625;10;734;8,80008935928345E-08;-7,98982009291649E-08;100 nA
0,750732421875;376,188188050216;6,33544921875E-09;0,749755859375;10;735;8,80008935928345E-08;-7,98982009291649E-08;100 nA
0,80078125;376,688676048953;6,18896484375E-09;0,799560546875;10;736;8,80008935928345E-08;-7,98982009291649E-08;100 nA
0,850830078125;377,189164047689;6,2225341796875E-09;0,849609375;10;737;8,80008935928345E-08;-7,98982009291649E-08;100 nA
0,90087890625;377,689652046425;6,298828125E-09;0,89996337890625;10;738;8,80008935928345E-08;-7,98982009291649E-08;100 nA
0,950927734375;378,190140045162;6,494140625E-09;0,94970703125;10;739;8,80008935928345E-08;-7,98982009291649E-08;100 nA
1,0009765625;378,690628043898;6,82373046875E-09;0,99945068359375;10;740;8,80008935928345E-08;-7,98982009291649E-08;100 nA
0,950927734375;379,191116042634;4,034423828125E-09;0,94970703125;10;741;8,80008935928345E-08;-7,98982009291649E-08;100 nA
0,90087890625;379,691604041371;2,8045654296875E-09;0,899658203125;10;742;8,80008935928345E-08;-7,98982009291649E-08;100 nA
0,850830078125;380,192092040107;1,9683837890625E-09;0,849609375;10;743;8,80008935928345E-08;-7,98982009291649E-08;100 nA
0,80078125;380,692580038844;1,3763427734375E-09;0,8001708984375;10;744;8,80008935928345E-08;-7,98982009291649E-08;100 nA
0,750732421875;381,19306803758;9,21630859375E-10;0,74993896484375;10;745;8,80008935928345E-08;-7,98982009291649E-08;100 nA
0,70068359375;381,693556036316;6,53076171875E-10;0,699951171875;10;746;8,80008935928345E-08;-7,98982009291649E-08;100 nA
0,650634765625;382,194044035053;2,838134765625E-10;0,650054931640625;10;747;8,80008935928345E-08;-7,98982009291649E-08;100 nA
0,6005859375;382,694532033789;-1,15966796875E-10;0,600189208984375;10;748;8,80008935928345E-08;-7,98982009291649E-08;100 nA
0,550537109375;383,195020032526;-4,730224609375E-10;0,55010986328125;10;749;8,80008935928345E-08;-7,98982009291649E-08;100 nA
0,50048828125;383,695508031262;-8,4228515625E-10;0,50006103515625;10;750;8,80008935928345E-08;-7,98982009291649E-08;100 nA
0,450439453125;384,195996029998;-1,37939453125E-09;0,450164794921875;10;751;8,80008935928345E-08;-7,98982009291649E-08;100 nA
0,400390625;384,696484028735;-2,056884765625E-09;0,400177001953125;10;752;8,80008935928345E-08;-7,98982009291649E-08;100 nA
0,350341796875;385,196972027471;-2,9327392578125E-09;0,350128173828125;10;753;8,80008935928345E-08;-7,98982009291649E-08;100 nA
0,30029296875;385,697460026208;-3,69873046875E-09;0,300048828125;10;754;8,80008935928345E-08;-7,98982009291649E-08;100 nA
0,250244140625;386,197948024944;-4,6630859375E-09;0,2501220703125;10;755;8,80008935928345E-08;-7,98982009291649E-08;100 nA
0,2001953125;386,69843602368;-5,6304931640625E-09;0,200103759765625;10;756;8,80008935928345E-08;-7,98982009291649E-08;100 nA
0,150146484375;387,198924022417;-6,585693359375E-09;0,150115966796875;10;757;8,80008935928345E-08;-7,98982009291649E-08;100 nA
0,10009765625;387,699412021153;-7,6263427734375E-09;0,100067138671875;10;758;8,80008935928345E-08;-7,98982009291649E-08;100 nA
0,050048828125;388,199900019889;-8,7310791015625E-09;0,050079345703125;10;759;8,80008935928345E-08;-7,98982009291649E-08;100 nA
0;388,700388018626;-1,01165771484375E-08;0,000112915039062494;10;760;8,80008935928345E-08;-7,98982009291649E-08;100 nA
-0,050048828125;389,200876017362;-1,055908203125E-08;-0,049835205078125;10;761;8,80008935928345E-08;-7,98982009291649E-08;100 nA
-0,10009765625;389,701364016099;-6,5704345703125E-09;-0,099639892578125;10;762;8,80008935928345E-08;-7,98982009291649E-08;100 nA
-0,150146484375;390,201852014835;-4,327392578125E-09;-0,149627685546875;10;763;8,80008935928345E-08;-7,98982009291649E-08;100 nA
-0,2001953125;390,702340013571;-4,4158935546875E-09;-0,199432373046875;10;764;8,80008935928345E-08;-7,98982009291649E-08;100 nA
-0,250244140625;391,202828012308;-4,79736328125E-09;-0,249359130859375;10;765;8,80008935928345E-08;-7,98982009291649E-08;100 nA
-0,30029296875;391,703316011044;-5,0689697265625E-09;-0,29931640625;10;766;8,80008935928345E-08;-7,98982009291649E-08;100 nA
-0,350341796875;392,203804009781;-5,0445556640625E-09;-0,34918212890625;10;767;8,80008935928345E-08;-7,98982009291649E-08;100 nA
-0,400390625;392,704292008517;-5,0384521484375E-09;-0,3990478515625;10;768;8,80008935928345E-08;-7,98982009291649E-08;100 nA
-0,450439453125;393,204780007253;-4,925537109375E-09;-0,449005126953125;10;769;8,80008935928345E-08;-7,98982009291649E-08;100 nA
-0,50048828125;393,70526800599;-4,7943115234375E-09;-0,498870849609375;10;770;8,80008935928345E-08;-7,98982009291649E-08;100 nA
-0,550537109375;394,205756004726;-4,718017578125E-09;-0,54876708984375;10;771;8,80008935928345E-08;-7,98982009291649E-08;100 nA
-0,6005859375;394,706244003463;-4,65087890625E-09;-0,598663330078125;10;772;8,80008935928345E-08;-7,98982009291649E-08;100 nA
-0,650634765625;395,206732002199;-4,4189453125E-09;-0,648590087890625;10;773;8,80008935928345E-08;-7,98982009291649E-08;100 nA
-0,70068359375;395,707220000935;-4,3426513671875E-09;-0,698516845703125;10;774;8,80008935928345E-08;-7,98982009291649E-08;100 nA
-0,750732421875;396,207707999672;-4,23583984375E-09;-0,748565673828125;10;775;8,80008935928345E-08;-7,98982009291649E-08;100 nA
-0,80078125;396,708195998408;-4,1595458984375E-09;-0,7989501953125;10;776;8,80008935928345E-08;-7,98982009291649E-08;100 nA
-0,850830078125;397,208683997144;-4,0924072265625E-09;-0,8489990234375;10;777;8,80008935928345E-08;-7,98982009291649E-08;100 nA
-0,90087890625;397,709171995881;-4,150390625E-09;-0,8990478515625;10;778;8,80008935928345E-08;-7,98982009291649E-08;100 nA
-0,950927734375;398,209659994617;-4,2572021484375E-09;-0,94940185546875;10;779;8,80008935928345E-08;-7,98982009291649E-08;100 nA
-1,0009765625;398,710147993354;-4,510498046875E-09;-0,9991455078125;10;780;8,80008935928345E-08;-7,98982009291649E-08;100 nA
-0,950927734375;399,21063599209;-2,5390625E-09;-0,94879150390625;10;781;8,80008935928345E-08;-7,98982009291649E-08;100 nA
-0,90087890625;399,711123990826;-1,5716552734375E-09;-0,8990478515625;10;782;8,80008935928345E-08;-7,98982009291649E-08;100 nA
-0,850830078125;400,211611989563;-9,429931640625E-10;-0,84869384765625;10;783;8,80008935928345E-08;-7,98982009291649E-08;100 nA
-0,80078125;400,712099988299;-4,913330078125E-10;-0,7989501953125;10;784;8,80008935928345E-08;-7,98982009291649E-08;100 nA
-0,750732421875;401,212587987036;-1,64794921875E-10;-0,748565673828125;10;785;8,80008935928345E-08;-7,98982009291649E-08;100 nA
-0,70068359375;401,713075985772;1,983642578125E-10;-0,698516845703125;10;786;8,80008935928345E-08;-7,98982009291649E-08;100 nA
-0,650634765625;402,213563984508;5,2490234375E-10;-0,648590087890625;10;787;8,80008935928345E-08;-7,98982009291649E-08;100 nA
-0,6005859375;402,714051983245;8,026123046875E-10;-0,5986328125;10;788;8,80008935928345E-08;-7,98982009291649E-08;100 nA
-0,550537109375;403,214539981981;1,0040283203125E-09;-0,548736572265625;10;789;8,80008935928345E-08;-7,98982009291649E-08;100 nA
-0,50048828125;403,715027980718;1,373291015625E-09;-0,4989013671875;10;790;8,80008935928345E-08;-7,98982009291649E-08;100 nA
-0,450439453125;404,215515979454;1,7425537109375E-09;-0,44891357421875;10;791;8,80008935928345E-08;-7,98982009291649E-08;100 nA
-0,400390625;404,71600397819;2,032470703125E-09;-0,399078369140625;10;792;8,80008935928345E-08;-7,98982009291649E-08;100 nA
-0,350341796875;405,216491976927;2,4658203125E-09;-0,3492431640625;10;793;8,80008935928345E-08;-7,98982009291649E-08;100 nA
-0,30029296875;405,716979975663;3,131103515625E-09;-0,299224853515625;10;794;8,80008935928345E-08;-7,98982009291649E-08;100 nA
-0,250244140625;406,217467974399;4,0313720703125E-09;-0,249359130859375;10;795;8,80008935928345E-08;-7,98982009291649E-08;100 nA
-0,2001953125;406,717955973136;4,8553466796875E-09;-0,19952392578125;10;796;8,80008935928345E-08;-7,98982009291649E-08;100 nA
-0,150146484375;407,218443971872;4,644775390625E-09;-0,149627685546875;10;797;8,80008935928345E-08;-7,98982009291649E-08;100 nA
-0,10009765625;407,718931970609;4,28466796875E-09;-0,0997314453125;10;798;8,80008935928345E-08;-7,98982009291649E-08;100 nA
-0,050048828125;408,219419969345;3,9459228515625E-09;-0,049835205078125;10;799;8,80008935928345E-08;-7,98982009291649E-08;100 nA
0;408,719907968081;3,69873046875E-09;0,000100708007812506;10;800;8,80008935928345E-08;-7,98982009291649E-08;100 nA
