Potential applied (V);Time (s);WE(1).Current (A);WE(1).Potential (V);Scan;Index;Q+;Q-;Current range
0,050048828125;7,36142498141419;1,4129638671875E-09;0,050048828125;1;1;1,06479004025459E-07;-1,48840583860874E-07;100 nA
0,10009765625;7,86191298015058;2,2003173828125E-09;0,100128173828125;1;2;1,06479004025459E-07;-1,48840583860874E-07;100 nA
0,150146484375;8,36240097888697;3,851318359375E-09;0,15008544921875;1;3;1,06479004025459E-07;-1,48840583860874E-07;100 nA
0,2001953125;8,86288897762336;3,5675048828125E-09;0,20001220703125;1;4;1,06479004025459E-07;-1,48840583860874E-07;100 nA
0,250244140625;9,36337697635975;4,2572021484375E-09;0,25;1;5;1,06479004025459E-07;-1,48840583860874E-07;100 nA
0,30029296875;9,86386497509613;4,91943359375E-09;0,300079345703125;1;6;1,06479004025459E-07;-1,48840583860874E-07;100 nA
0,350341796875;10,3643529738325;5,4229736328125E-09;0,350067138671875;1;7;1,06479004025459E-07;-1,48840583860874E-07;100 nA
0,400390625;10,8648409725689;6,2347412109375E-09;0,400054931640625;1;8;1,06479004025459E-07;-1,48840583860874E-07;100 nA
0,450439453125;11,3653289713053;6,634521484375E-09;0,450103759765625;1;9;1,06479004025459E-07;-1,48840583860874E-07;100 nA
0,50048828125;11,8658169700417;6,7291259765625E-09;0,50006103515625;1;10;1,06479004025459E-07;-1,48840583860874E-07;100 nA
0,550537109375;12,3663049687781;7,7301025390625E-09;0,550079345703125;1;11;1,06479004025459E-07;-1,48840583860874E-07;100 nA
0,6005859375;12,8667929675145;8,0322265625E-09;0,60009765625;1;12;1,06479004025459E-07;-1,48840583860874E-07;100 nA
0,650634765625;13,3672809662509;8,2550048828125E-09;0,64996337890625;1;13;1,06479004025459E-07;-1,48840583860874E-07;100 nA
0,70068359375;13,8677689649872;8,41064453125E-09;0,699859619140625;1;14;1,06479004025459E-07;-1,48840583860874E-07;100 nA
0,750732421875;14,3682569637236;8,5723876953125E-09;0,74981689453125;1;15;1,06479004025459E-07;-1,48840583860874E-07;100 nA
0,80078125;14,86874496246;8,7615966796875E-09;0,79986572265625;1;16;1,06479004025459E-07;-1,48840583860874E-07;100 nA
0,850830078125;15,3692329611964;8,77685546875E-09;0,849609375;1;17;1,06479004025459E-07;-1,48840583860874E-07;100 nA
0,90087890625;15,8697209599328;8,8409423828125E-09;0,899658203125;1;18;1,06479004025459E-07;-1,48840583860874E-07;100 nA
0,950927734375;16,3702089586692;9,1827392578125E-09;0,94940185546875;1;19;1,06479004025459E-07;-1,48840583860874E-07;100 nA
1,0009765625;16,8706969574056;9,2926025390625E-09;0,999755859375;1;20;1,06479004025459E-07;-1,48840583860874E-07;100 nA
0,950927734375;17,371184956142;6,1065673828125E-09;0,94940185546875;1;21;1,06479004025459E-07;-1,48840583860874E-07;100 nA
0,90087890625;17,8716729548784;4,3365478515625E-09;0,899658203125;1;22;1,06479004025459E-07;-1,48840583860874E-07;100 nA
0,850830078125;18,3721609536148;3,0029296875E-09;0,84991455078125;1;23;1,06479004025459E-07;-1,48840583860874E-07;100 nA
0,80078125;18,8726489523511;2,1820068359375E-09;0,799560546875;1;24;1,06479004025459E-07;-1,48840583860874E-07;100 nA
0,750732421875;19,3731369510875;1,3427734375E-09;0,7498779296875;1;25;1,06479004025459E-07;-1,48840583860874E-07;100 nA
0,70068359375;19,8736249498239;7,171630859375E-10;0,699951171875;1;26;1,06479004025459E-07;-1,48840583860874E-07;100 nA
0,650634765625;20,3741129485603;1,03759765625E-10;0,650054931640625;1;27;1,06479004025459E-07;-1,48840583860874E-07;100 nA
0,6005859375;20,8746009472967;-4,791259765625E-10;0,600128173828125;1;28;1,06479004025459E-07;-1,48840583860874E-07;100 nA
0,550537109375;21,3750889460331;-1,1260986328125E-09;0,5501708984375;1;29;1,06479004025459E-07;-1,48840583860874E-07;100 nA
0,50048828125;21,8755769447695;-1,727294921875E-09;0,500091552734375;1;30;1,06479004025459E-07;-1,48840583860874E-07;100 nA
0,450439453125;22,3760649435059;-2,33154296875E-09;0,450103759765625;1;31;1,06479004025459E-07;-1,48840583860874E-07;100 nA
0,400390625;22,8765529422423;-2,978515625E-09;0,40020751953125;1;32;1,06479004025459E-07;-1,48840583860874E-07;100 nA
0,350341796875;23,3770409409786;-3,82080078125E-09;0,350128173828125;1;33;1,06479004025459E-07;-1,48840583860874E-07;100 nA
0,30029296875;23,877528939715;-4,6112060546875E-09;0,300079345703125;1;34;1,06479004025459E-07;-1,48840583860874E-07;100 nA
0,250244140625;24,3780169384514;-5,322265625E-09;0,2501220703125;1;35;1,06479004025459E-07;-1,48840583860874E-07;100 nA
0,2001953125;24,8785049371878;-5,7830810546875E-09;0,20013427734375;1;36;1,06479004025459E-07;-1,48840583860874E-07;100 nA
0,150146484375;25,3789929359242;-6,72607421875E-09;0,15008544921875;1;37;1,06479004025459E-07;-1,48840583860874E-07;100 nA
0,10009765625;25,8794809346606;-7,427978515625E-09;0,100067138671875;1;38;1,06479004025459E-07;-1,48840583860874E-07;100 nA
0,050048828125;26,379968933397;-8,10546875E-09;0,05010986328125;1;39;1,06479004025459E-07;-1,48840583860874E-07;100 nA
0;26,8804569321334;-9,4207763671875E-09;0,0001220703125;1;40;1,06479004025459E-07;-1,48840583860874E-07;100 nA
-0,050048828125;27,3809449308698;-1,24542236328125E-08;-0,0498046875;1;41;1,06479004025459E-07;-1,48840583860874E-07;100 nA
-0,10009765625;27,8814329296061;-1,6314697265625E-08;-0,09967041015625;1;42;1,06479004025459E-07;-1,48840583860874E-07;100 nA
-0,150146484375;28,3819209283425;-1,776123046875E-08;-0,1495361328125;1;43;1,06479004025459E-07;-1,48840583860874E-07;100 nA
-0,2001953125;28,8824089270789;-1,48895263671875E-08;-0,199432373046875;1;44;1,06479004025459E-07;-1,48840583860874E-07;100 nA
-0,250244140625;29,3828969258153;-9,100341796875E-09;-0,249359130859375;1;45;1,06479004025459E-07;-1,48840583860874E-07;100 nA
-0,30029296875;29,8833849245517;-8,67919921875E-09;-0,29931640625;1;46;1,06479004025459E-07;-1,48840583860874E-07;100 nA
-0,350341796875;30,3838729232881;-8,7799072265625E-09;-0,34918212890625;1;47;1,06479004025459E-07;-1,48840583860874E-07;100 nA
-0,400390625;30,8843609220245;-8,9508056640625E-09;-0,399169921875;1;48;1,06479004025459E-07;-1,48840583860874E-07;100 nA
-0,450439453125;31,3848489207609;-8,856201171875E-09;-0,448944091796875;1;49;1,06479004025459E-07;-1,48840583860874E-07;100 nA
-0,50048828125;31,8853369194973;-8,92333984375E-09;-0,49884033203125;1;50;1,06479004025459E-07;-1,48840583860874E-07;100 nA
-0,550537109375;32,3858249182337;-9,1888427734375E-09;-0,5487060546875;1;51;1,06479004025459E-07;-1,48840583860874E-07;100 nA
-0,6005859375;32,88631291697;-9,19189453125E-09;-0,598663330078125;1;52;1,06479004025459E-07;-1,48840583860874E-07;100 nA
-0,650634765625;33,3868009157064;-9,4573974609375E-09;-0,6485595703125;1;53;1,06479004025459E-07;-1,48840583860874E-07;100 nA
-0,70068359375;33,8872889144428;-9,5916748046875E-09;-0,698577880859375;1;54;1,06479004025459E-07;-1,48840583860874E-07;100 nA
-0,750732421875;34,3877769131792;-9,814453125E-09;-0,74859619140625;1;55;1,06479004025459E-07;-1,48840583860874E-07;100 nA
-0,80078125;34,8882649119156;-1,0009765625E-08;-0,7989501953125;1;56;1,06479004025459E-07;-1,48840583860874E-07;100 nA
-0,850830078125;35,388752910652;-1,0101318359375E-08;-0,848388671875;1;57;1,06479004025459E-07;-1,48840583860874E-07;100 nA
-0,90087890625;35,8892409093884;-1,0479736328125E-08;-0,89813232421875;1;58;1,06479004025459E-07;-1,48840583860874E-07;100 nA
-0,950927734375;36,3897289081248;-1,08062744140625E-08;-0,94818115234375;1;59;1,06479004025459E-07;-1,48840583860874E-07;100 nA
-1,0009765625;36,8902169068612;-1,11602783203125E-08;-0,99853515625;1;60;1,06479004025459E-07;-1,48840583860874E-07;100 nA
-0,950927734375;37,3907049055975;-7,51953125E-09;-0,94879150390625;1;61;1,06479004025459E-07;-1,48840583860874E-07;100 nA
-0,90087890625;37,8911929043339;-5,462646484375E-09;-0,89874267578125;1;62;1,06479004025459E-07;-1,48840583860874E-07;100 nA
-0,850830078125;38,3916809030703;-4,0008544921875E-09;-0,848388671875;1;63;1,06479004025459E-07;-1,48840583860874E-07;100 nA
-0,80078125;38,8921689018067;-2,7984619140625E-09;-0,7989501953125;1;64;1,06479004025459E-07;-1,48840583860874E-07;100 nA
-0,750732421875;39,3926569005431;-1,7822265625E-09;-0,74853515625;1;65;1,06479004025459E-07;-1,48840583860874E-07;100 nA
-0,70068359375;39,8931448992795;-1,0772705078125E-09;-0,698486328125;1;66;1,06479004025459E-07;-1,48840583860874E-07;100 nA
-0,650634765625;40,3936328980159;-3,7841796875E-10;-0,6485595703125;1;67;1,06479004025459E-07;-1,48840583860874E-07;100 nA
-0,6005859375;40,8941208967523;3,387451171875E-10;-0,5986328125;1;68;1,06479004025459E-07;-1,48840583860874E-07;100 nA
-0,550537109375;41,3946088954887;1,1016845703125E-09;-0,5487060546875;1;69;1,06479004025459E-07;-1,48840583860874E-07;100 nA
-0,50048828125;41,895096894225;1,6815185546875E-09;-0,498779296875;1;70;1,06479004025459E-07;-1,48840583860874E-07;100 nA
-0,450439453125;42,3955848929614;2,3895263671875E-09;-0,448944091796875;1;71;1,06479004025459E-07;-1,48840583860874E-07;100 nA
-0,400390625;42,8960728916978;3,3294677734375E-09;-0,399078369140625;1;72;1,06479004025459E-07;-1,48840583860874E-07;100 nA
-0,350341796875;43,3965608904342;4,2266845703125E-09;-0,349212646484375;1;73;1,06479004025459E-07;-1,48840583860874E-07;100 nA
-0,30029296875;43,8970488891706;5,6243896484375E-09;-0,299285888671875;1;74;1,06479004025459E-07;-1,48840583860874E-07;100 nA
-0,250244140625;44,397536887907;6,26220703125E-09;-0,249359130859375;1;75;1,06479004025459E-07;-1,48840583860874E-07;100 nA
-0,2001953125;44,8980248866434;6,6436767578125E-09;-0,199462890625;1;76;1,06479004025459E-07;-1,48840583860874E-07;100 nA
-0,150146484375;45,3985128853798;6,982421875E-09;-0,149627685546875;1;77;1,06479004025459E-07;-1,48840583860874E-07;100 nA
-0,10009765625;45,8990008841162;7,4127197265625E-09;-0,09967041015625;1;78;1,06479004025459E-07;-1,48840583860874E-07;100 nA
-0,050048828125;46,3994888828526;8,1573486328125E-09;-0,04986572265625;1;79;1,06479004025459E-07;-1,48840583860874E-07;100 nA
0;46,8999768815889;9,722900390625E-09;0,000128173828124994;1;80;1,06479004025459E-07;-1,48840583860874E-07;100 nA
0,050048828125;47,4004648803253;1,06597900390625E-08;0,050048828125;2;81;1,40084177255631E-07;-1,46442614495754E-07;100 nA
0,10009765625;47,9009528790617;8,2672119140625E-09;0,10003662109375;2;82;1,40084177255631E-07;-1,46442614495754E-07;100 nA
0,150146484375;48,4014408777981;7,611083984375E-09;0,150054931640625;2;83;1,40084177255631E-07;-1,46442614495754E-07;100 nA
0,2001953125;48,9019288765345;8,02001953125E-09;0,20001220703125;2;84;1,40084177255631E-07;-1,46442614495754E-07;100 nA
0,250244140625;49,4024168752709;8,4503173828125E-09;0,250030517578125;2;85;1,40084177255631E-07;-1,46442614495754E-07;100 nA
0,30029296875;49,9029048740073;8,8104248046875E-09;0,30010986328125;2;86;1,40084177255631E-07;-1,46442614495754E-07;100 nA
0,350341796875;50,4033928727437;9,1339111328125E-09;0,350067138671875;2;87;1,40084177255631E-07;-1,46442614495754E-07;100 nA
0,400390625;50,9038808714801;9,4757080078125E-09;0,400115966796875;2;88;1,40084177255631E-07;-1,46442614495754E-07;100 nA
0,450439453125;51,4043688702164;9,8114013671875E-09;0,45013427734375;2;89;1,40084177255631E-07;-1,46442614495754E-07;100 nA
0,50048828125;51,9048568689528;1,00341796875E-08;0,50006103515625;2;90;1,40084177255631E-07;-1,46442614495754E-07;100 nA
0,550537109375;52,4053448676892;1,024169921875E-08;0,5501708984375;2;91;1,40084177255631E-07;-1,46442614495754E-07;100 nA
0,6005859375;52,9058328664256;1,036376953125E-08;0,600128173828125;2;92;1,40084177255631E-07;-1,46442614495754E-07;100 nA
0,650634765625;53,406320865162;1,03515625E-08;0,6500244140625;2;93;1,40084177255631E-07;-1,46442614495754E-07;100 nA
0,70068359375;53,9068088638984;1,04766845703125E-08;0,699920654296875;2;94;1,40084177255631E-07;-1,46442614495754E-07;100 nA
0,750732421875;54,4072968626348;1,02874755859375E-08;0,74993896484375;2;95;1,40084177255631E-07;-1,46442614495754E-07;100 nA
0,80078125;54,9077848613712;1,01318359375E-08;0,80047607421875;2;96;1,40084177255631E-07;-1,46442614495754E-07;100 nA
0,850830078125;55,4082728601076;1,00738525390625E-08;0,8502197265625;2;97;1,40084177255631E-07;-1,46442614495754E-07;100 nA
0,90087890625;55,9087608588439;1,0015869140625E-08;0,89996337890625;2;98;1,40084177255631E-07;-1,46442614495754E-07;100 nA
0,950927734375;56,4092488575803;1,004638671875E-08;0,94940185546875;2;99;1,40084177255631E-07;-1,46442614495754E-07;100 nA
1,0009765625;56,9097368563167;1,01806640625E-08;0,999755859375;2;100;1,40084177255631E-07;-1,46442614495754E-07;100 nA
0,950927734375;57,4102248550531;6,73828125E-09;0,9490966796875;2;101;1,40084177255631E-07;-1,46442614495754E-07;100 nA
0,90087890625;57,9107128537895;4,7607421875E-09;0,89996337890625;2;102;1,40084177255631E-07;-1,46442614495754E-07;100 nA
0,850830078125;58,4112008525259;3,2440185546875E-09;0,8502197265625;2;103;1,40084177255631E-07;-1,46442614495754E-07;100 nA
0,80078125;58,9116888512623;2,5634765625E-09;0,799560546875;2;104;1,40084177255631E-07;-1,46442614495754E-07;100 nA
0,750732421875;59,4121768499987;1,57470703125E-09;0,749755859375;2;105;1,40084177255631E-07;-1,46442614495754E-07;100 nA
0,70068359375;59,9126648487351;1,0284423828125E-09;0,699920654296875;2;106;1,40084177255631E-07;-1,46442614495754E-07;100 nA
0,650634765625;60,4131528474715;1,861572265625E-10;0,650054931640625;2;107;1,40084177255631E-07;-1,46442614495754E-07;100 nA
0,6005859375;60,9136408462078;-4,180908203125E-10;0,600067138671875;2;108;1,40084177255631E-07;-1,46442614495754E-07;100 nA
0,550537109375;61,4141288449442;-1,043701171875E-09;0,550048828125;2;109;1,40084177255631E-07;-1,46442614495754E-07;100 nA
0,50048828125;61,9146168436806;-1,6876220703125E-09;0,500030517578125;2;110;1,40084177255631E-07;-1,46442614495754E-07;100 nA
0,450439453125;62,415104842417;-2,392578125E-09;0,45001220703125;2;111;1,40084177255631E-07;-1,46442614495754E-07;100 nA
0,400390625;62,9155928411534;-3,0487060546875E-09;0,40008544921875;2;112;1,40084177255631E-07;-1,46442614495754E-07;100 nA
0,350341796875;63,4160808398898;-3,4576416015625E-09;0,350067138671875;2;113;1,40084177255631E-07;-1,46442614495754E-07;100 nA
0,30029296875;63,9165688386262;-4,583740234375E-09;0,300079345703125;2;114;1,40084177255631E-07;-1,46442614495754E-07;100 nA
0,250244140625;64,4170568373626;-5,322265625E-09;0,25006103515625;2;115;1,40084177255631E-07;-1,46442614495754E-07;100 nA
0,2001953125;64,917544836099;-5,9326171875E-09;0,200103759765625;2;116;1,40084177255631E-07;-1,46442614495754E-07;100 nA
0,150146484375;65,4180328348353;-6,536865234375E-09;0,15008544921875;2;117;1,40084177255631E-07;-1,46442614495754E-07;100 nA
0,10009765625;65,9185208335717;-7,21435546875E-09;0,10009765625;2;118;1,40084177255631E-07;-1,46442614495754E-07;100 nA
0,050048828125;66,4190088323081;-8,0596923828125E-09;0,050140380859375;2;119;1,40084177255631E-07;-1,46442614495754E-07;100 nA
0;66,9194968310445;-9,6221923828125E-09;0,000143432617187494;2;120;1,40084177255631E-07;-1,46442614495754E-07;100 nA
-0,050048828125;67,4199848297809;-1,25946044921875E-08;-0,0497222900390625;2;121;1,40084177255631E-07;-1,46442614495754E-07;100 nA
-0,10009765625;67,9204728285173;-1,6632080078125E-08;-0,099609375;2;122;1,40084177255631E-07;-1,46442614495754E-07;100 nA
-0,150146484375;68,4209608272537;-1,8463134765625E-08;-0,149627685546875;2;123;1,40084177255631E-07;-1,46442614495754E-07;100 nA
-0,2001953125;68,9214488259901;-1,62933349609375E-08;-0,199371337890625;2;124;1,40084177255631E-07;-1,46442614495754E-07;100 nA
-0,250244140625;69,4219368247265;-9,417724609375E-09;-0,249298095703125;2;125;1,40084177255631E-07;-1,46442614495754E-07;100 nA
-0,30029296875;69,9224248234628;-8,5784912109375E-09;-0,29925537109375;2;126;1,40084177255631E-07;-1,46442614495754E-07;100 nA
-0,350341796875;70,4229128221992;-8,6151123046875E-09;-0,349212646484375;2;127;1,40084177255631E-07;-1,46442614495754E-07;100 nA
-0,400390625;70,9234008209356;-8,642578125E-09;-0,3990478515625;2;128;1,40084177255631E-07;-1,46442614495754E-07;100 nA
-0,450439453125;71,423888819672;-8,612060546875E-09;-0,448883056640625;2;129;1,40084177255631E-07;-1,46442614495754E-07;100 nA
-0,50048828125;71,9243768184084;-8,6334228515625E-09;-0,49884033203125;2;130;1,40084177255631E-07;-1,46442614495754E-07;100 nA
-0,550537109375;72,4248648171448;-8,7432861328125E-09;-0,548797607421875;2;131;1,40084177255631E-07;-1,46442614495754E-07;100 nA
-0,6005859375;72,9253528158812;-8,795166015625E-09;-0,598663330078125;2;132;1,40084177255631E-07;-1,46442614495754E-07;100 nA
-0,650634765625;73,4258408146176;-8,9385986328125E-09;-0,64862060546875;2;133;1,40084177255631E-07;-1,46442614495754E-07;100 nA
-0,70068359375;73,926328813354;-9,08203125E-09;-0,6986083984375;2;134;1,40084177255631E-07;-1,46442614495754E-07;100 nA
-0,750732421875;74,4268168120904;-9,2803955078125E-09;-0,74853515625;2;135;1,40084177255631E-07;-1,46442614495754E-07;100 nA
-0,80078125;74,9273048108267;-9,539794921875E-09;-0,7989501953125;2;136;1,40084177255631E-07;-1,46442614495754E-07;100 nA
-0,850830078125;75,4277928095631;-9,75341796875E-09;-0,848388671875;2;137;1,40084177255631E-07;-1,46442614495754E-07;100 nA
-0,90087890625;75,9282808082995;-9,9609375E-09;-0,8990478515625;2;138;1,40084177255631E-07;-1,46442614495754E-07;100 nA
-0,950927734375;76,4287688070359;-1,0308837890625E-08;-0,94879150390625;2;139;1,40084177255631E-07;-1,46442614495754E-07;100 nA
-1,0009765625;76,9292568057723;-1,08123779296875E-08;-0,9991455078125;2;140;1,40084177255631E-07;-1,46442614495754E-07;100 nA
-0,950927734375;77,4297448045087;-7,2021484375E-09;-0,948486328125;2;141;1,40084177255631E-07;-1,46442614495754E-07;100 nA
-0,90087890625;77,9302328032451;-5,2032470703125E-09;-0,89874267578125;2;142;1,40084177255631E-07;-1,46442614495754E-07;100 nA
-0,850830078125;78,4307208019815;-3,759765625E-09;-0,84869384765625;2;143;1,40084177255631E-07;-1,46442614495754E-07;100 nA
-0,80078125;78,9312088007179;-2,6763916015625E-09;-0,79864501953125;2;144;1,40084177255631E-07;-1,46442614495754E-07;100 nA
-0,750732421875;79,4316967994542;-1,72119140625E-09;-0,74859619140625;2;145;1,40084177255631E-07;-1,46442614495754E-07;100 nA
-0,70068359375;79,9321847981906;-9,033203125E-10;-0,698638916015625;2;146;1,40084177255631E-07;-1,46442614495754E-07;100 nA
-0,650634765625;80,432672796927;-1,15966796875E-10;-0,6485595703125;2;147;1,40084177255631E-07;-1,46442614495754E-07;100 nA
-0,6005859375;80,9331607956634;5,401611328125E-10;-0,598663330078125;2;148;1,40084177255631E-07;-1,46442614495754E-07;100 nA
-0,550537109375;81,4336487943998;1,2359619140625E-09;-0,548736572265625;2;149;1,40084177255631E-07;-1,46442614495754E-07;100 nA
-0,50048828125;81,9341367931362;1,89208984375E-09;-0,49884033203125;2;150;1,40084177255631E-07;-1,46442614495754E-07;100 nA
-0,450439453125;82,4346247918726;2,691650390625E-09;-0,448974609375;2;151;1,40084177255631E-07;-1,46442614495754E-07;100 nA
-0,400390625;82,935112790609;3,6529541015625E-09;-0,39898681640625;2;152;1,40084177255631E-07;-1,46442614495754E-07;100 nA
-0,350341796875;83,4356007893454;4,6905517578125E-09;-0,349151611328125;2;153;1,40084177255631E-07;-1,46442614495754E-07;100 nA
-0,30029296875;83,9360887880817;5,87158203125E-09;-0,2991943359375;2;154;1,40084177255631E-07;-1,46442614495754E-07;100 nA
-0,250244140625;84,4365767868181;6,4605712890625E-09;-0,24932861328125;2;155;1,40084177255631E-07;-1,46442614495754E-07;100 nA
-0,2001953125;84,9370647855545;6,8695068359375E-09;-0,199432373046875;2;156;1,40084177255631E-07;-1,46442614495754E-07;100 nA
-0,150146484375;85,4375527842909;7,2174072265625E-09;-0,14959716796875;2;157;1,40084177255631E-07;-1,46442614495754E-07;100 nA
-0,10009765625;85,9380407830273;7,5927734375E-09;-0,099639892578125;2;158;1,40084177255631E-07;-1,46442614495754E-07;100 nA
-0,050048828125;86,4385287817637;8,38623046875E-09;-0,04986572265625;2;159;1,40084177255631E-07;-1,46442614495754E-07;100 nA
0;86,9390167805001;1,025390625E-08;0,000103759765625003;2;160;1,40084177255631E-07;-1,46442614495754E-07;100 nA
0,050048828125;87,4395047792365;1,09222412109375E-08;0,050018310546875;3;161;1,4117319136858E-07;-1,4526654034853E-07;100 nA
0,10009765625;87,9399927779729;8,4686279296875E-09;0,10003662109375;3;162;1,4117319136858E-07;-1,4526654034853E-07;100 nA
0,150146484375;88,4404807767093;7,8521728515625E-09;0,150054931640625;3;163;1,4117319136858E-07;-1,4526654034853E-07;100 nA
0,2001953125;88,9409687754456;8,135986328125E-09;0,199981689453125;3;164;1,4117319136858E-07;-1,4526654034853E-07;100 nA
0,250244140625;89,441456774182;8,575439453125E-09;0,250030517578125;3;165;1,4117319136858E-07;-1,4526654034853E-07;100 nA
0,30029296875;89,9419447729184;8,8409423828125E-09;0,300048828125;3;166;1,4117319136858E-07;-1,4526654034853E-07;100 nA
0,350341796875;90,4424327716548;9,039306640625E-09;0,350067138671875;3;167;1,4117319136858E-07;-1,4526654034853E-07;100 nA
0,400390625;90,9429207703912;9,429931640625E-09;0,400054931640625;3;168;1,4117319136858E-07;-1,4526654034853E-07;100 nA
0,450439453125;91,4434087691276;9,7381591796875E-09;0,450042724609375;3;169;1,4117319136858E-07;-1,4526654034853E-07;100 nA
0,50048828125;91,943896767864;1,0003662109375E-08;0,500030517578125;3;170;1,4117319136858E-07;-1,4526654034853E-07;100 nA
0,550537109375;92,4443847666004;1,029052734375E-08;0,550018310546875;3;171;1,4117319136858E-07;-1,4526654034853E-07;100 nA
0,6005859375;92,9448727653368;1,04248046875E-08;0,600067138671875;3;172;1,4117319136858E-07;-1,4526654034853E-07;100 nA
0,650634765625;93,4453607640731;1,0406494140625E-08;0,6500244140625;3;173;1,4117319136858E-07;-1,4526654034853E-07;100 nA
0,70068359375;93,9458487628095;1,04156494140625E-08;0,69989013671875;3;174;1,4117319136858E-07;-1,4526654034853E-07;100 nA
0,750732421875;94,4463367615459;1,0321044921875E-08;0,749755859375;3;175;1,4117319136858E-07;-1,4526654034853E-07;100 nA
0,80078125;94,9468247602823;1,021728515625E-08;0,799560546875;3;176;1,4117319136858E-07;-1,4526654034853E-07;100 nA
0,850830078125;95,4473127590187;1,01470947265625E-08;0,849609375;3;177;1,4117319136858E-07;-1,4526654034853E-07;100 nA
0,90087890625;95,9478007577551;1,011962890625E-08;0,89996337890625;3;178;1,4117319136858E-07;-1,4526654034853E-07;100 nA
0,950927734375;96,4482887564915;1,01287841796875E-08;0,94970703125;3;179;1,4117319136858E-07;-1,4526654034853E-07;100 nA
1,0009765625;96,9487767552279;1,0272216796875E-08;0,9991455078125;3;180;1,4117319136858E-07;-1,4526654034853E-07;100 nA
0,950927734375;97,4492647539643;6,8939208984375E-09;0,94940185546875;3;181;1,4117319136858E-07;-1,4526654034853E-07;100 nA
0,90087890625;97,9497527527006;4,876708984375E-09;0,89935302734375;3;182;1,4117319136858E-07;-1,4526654034853E-07;100 nA
0,850830078125;98,450240751437;3,533935546875E-09;0,8502197265625;3;183;1,4117319136858E-07;-1,4526654034853E-07;100 nA
0,80078125;98,9507287501734;2,5482177734375E-09;0,79986572265625;3;184;1,4117319136858E-07;-1,4526654034853E-07;100 nA
0,750732421875;99,4512167489098;1,7303466796875E-09;0,74993896484375;3;185;1,4117319136858E-07;-1,4526654034853E-07;100 nA
0,70068359375;99,9517047476462;1,01318359375E-09;0,699920654296875;3;186;1,4117319136858E-07;-1,4526654034853E-07;100 nA
0,650634765625;100,452192746383;3,7841796875E-10;0,650054931640625;3;187;1,4117319136858E-07;-1,4526654034853E-07;100 nA
0,6005859375;100,952680745119;-3,143310546875E-10;0,600067138671875;3;188;1,4117319136858E-07;-1,4526654034853E-07;100 nA
0,550537109375;101,453168743855;-9,368896484375E-10;0,550048828125;3;189;1,4117319136858E-07;-1,4526654034853E-07;100 nA
0,50048828125;101,953656742592;-1,57470703125E-09;0,500030517578125;3;190;1,4117319136858E-07;-1,4526654034853E-07;100 nA
0,450439453125;102,454144741328;-2,2430419921875E-09;0,450042724609375;3;191;1,4117319136858E-07;-1,4526654034853E-07;100 nA
0,400390625;102,954632740065;-3,0303955078125E-09;0,400115966796875;3;192;1,4117319136858E-07;-1,4526654034853E-07;100 nA
0,350341796875;103,455120738801;-3,729248046875E-09;0,35009765625;3;193;1,4117319136858E-07;-1,4526654034853E-07;100 nA
0,30029296875;103,955608737537;-4,6295166015625E-09;0,29998779296875;3;194;1,4117319136858E-07;-1,4526654034853E-07;100 nA
0,250244140625;104,456096736274;-5,426025390625E-09;0,25006103515625;3;195;1,4117319136858E-07;-1,4526654034853E-07;100 nA
0,2001953125;104,95658473501;-6,097412109375E-09;0,199981689453125;3;196;1,4117319136858E-07;-1,4526654034853E-07;100 nA
0,150146484375;105,457072733746;-6,67724609375E-09;0,150054931640625;3;197;1,4117319136858E-07;-1,4526654034853E-07;100 nA
0,10009765625;105,957560732483;-7,3211669921875E-09;0,100006103515625;3;198;1,4117319136858E-07;-1,4526654034853E-07;100 nA
0,050048828125;106,458048731219;-8,099365234375E-09;0,050079345703125;3;199;1,4117319136858E-07;-1,4526654034853E-07;100 nA
0;106,958536729956;-9,6466064453125E-09;0,000119018554687503;3;200;1,4117319136858E-07;-1,4526654034853E-07;100 nA
-0,050048828125;107,459024728692;-1,265869140625E-08;-0,049835205078125;3;201;1,4117319136858E-07;-1,4526654034853E-07;100 nA
-0,10009765625;107,959512727428;-1,66748046875E-08;-0,099639892578125;3;202;1,4117319136858E-07;-1,4526654034853E-07;100 nA
-0,150146484375;108,460000726165;-1,8310546875E-08;-0,1495361328125;3;203;1,4117319136858E-07;-1,4526654034853E-07;100 nA
-0,2001953125;108,960488724901;-1,56097412109375E-08;-0,19940185546875;3;204;1,4117319136858E-07;-1,4526654034853E-07;100 nA
-0,250244140625;109,460976723638;-9,1766357421875E-09;-0,249298095703125;3;205;1,4117319136858E-07;-1,4526654034853E-07;100 nA
-0,30029296875;109,961464722374;-8,4869384765625E-09;-0,299224853515625;3;206;1,4117319136858E-07;-1,4526654034853E-07;100 nA
-0,350341796875;110,46195272111;-8,50830078125E-09;-0,349151611328125;3;207;1,4117319136858E-07;-1,4526654034853E-07;100 nA
-0,400390625;110,962440719847;-8,3770751953125E-09;-0,3990478515625;3;208;1,4117319136858E-07;-1,4526654034853E-07;100 nA
-0,450439453125;111,462928718583;-8,343505859375E-09;-0,448883056640625;3;209;1,4117319136858E-07;-1,4526654034853E-07;100 nA
-0,50048828125;111,96341671732;-8,453369140625E-09;-0,498870849609375;3;210;1,4117319136858E-07;-1,4526654034853E-07;100 nA
-0,550537109375;112,463904716056;-8,5357666015625E-09;-0,5487060546875;3;211;1,4117319136858E-07;-1,4526654034853E-07;100 nA
-0,6005859375;112,964392714792;-8,642578125E-09;-0,598602294921875;3;212;1,4117319136858E-07;-1,4526654034853E-07;100 nA
-0,650634765625;113,464880713529;-8,7615966796875E-09;-0,648590087890625;3;213;1,4117319136858E-07;-1,4526654034853E-07;100 nA
-0,70068359375;113,965368712265;-8,9202880859375E-09;-0,698638916015625;3;214;1,4117319136858E-07;-1,4526654034853E-07;100 nA
-0,750732421875;114,465856711001;-9,0850830078125E-09;-0,74859619140625;3;215;1,4117319136858E-07;-1,4526654034853E-07;100 nA
-0,80078125;114,966344709738;-9,2987060546875E-09;-0,7989501953125;3;216;1,4117319136858E-07;-1,4526654034853E-07;100 nA
-0,850830078125;115,466832708474;-9,48486328125E-09;-0,84869384765625;3;217;1,4117319136858E-07;-1,4526654034853E-07;100 nA
-0,90087890625;115,967320707211;-9,75341796875E-09;-0,8984375;3;218;1,4117319136858E-07;-1,4526654034853E-07;100 nA
-0,950927734375;116,467808705947;-1,01531982421875E-08;-0,94818115234375;3;219;1,4117319136858E-07;-1,4526654034853E-07;100 nA
-1,0009765625;116,968296704683;-1,087646484375E-08;-0,99853515625;3;220;1,4117319136858E-07;-1,4526654034853E-07;100 nA
-0,950927734375;117,46878470342;-7,232666015625E-09;-0,948486328125;3;221;1,4117319136858E-07;-1,4526654034853E-07;100 nA
-0,90087890625;117,969272702156;-5,3558349609375E-09;-0,89874267578125;3;222;1,4117319136858E-07;-1,4526654034853E-07;100 nA
-0,850830078125;118,469760700893;-3,8482666015625E-09;-0,8489990234375;3;223;1,4117319136858E-07;-1,4526654034853E-07;100 nA
-0,80078125;118,970248699629;-2,7008056640625E-09;-0,79864501953125;3;224;1,4117319136858E-07;-1,4526654034853E-07;100 nA
-0,750732421875;119,470736698365;-1,94091796875E-09;-0,74859619140625;3;225;1,4117319136858E-07;-1,4526654034853E-07;100 nA
-0,70068359375;119,971224697102;-1,06201171875E-09;-0,6986083984375;3;226;1,4117319136858E-07;-1,4526654034853E-07;100 nA
-0,650634765625;120,471712695838;-2,716064453125E-10;-0,64862060546875;3;227;1,4117319136858E-07;-1,4526654034853E-07;100 nA
-0,6005859375;120,972200694575;3,84521484375E-10;-0,5986328125;3;228;1,4117319136858E-07;-1,4526654034853E-07;100 nA
-0,550537109375;121,472688693311;1,275634765625E-09;-0,548736572265625;3;229;1,4117319136858E-07;-1,4526654034853E-07;100 nA
-0,50048828125;121,973176692047;1,9256591796875E-09;-0,498870849609375;3;230;1,4117319136858E-07;-1,4526654034853E-07;100 nA
-0,450439453125;122,473664690784;2,67333984375E-09;-0,44891357421875;3;231;1,4117319136858E-07;-1,4526654034853E-07;100 nA
-0,400390625;122,97415268952;3,5888671875E-09;-0,399078369140625;3;232;1,4117319136858E-07;-1,4526654034853E-07;100 nA
-0,350341796875;123,474640688257;4,638671875E-09;-0,34912109375;3;233;1,4117319136858E-07;-1,4526654034853E-07;100 nA
-0,30029296875;123,975128686993;5,841064453125E-09;-0,299224853515625;3;234;1,4117319136858E-07;-1,4526654034853E-07;100 nA
-0,250244140625;124,475616685729;6,5155029296875E-09;-0,24932861328125;3;235;1,4117319136858E-07;-1,4526654034853E-07;100 nA
-0,2001953125;124,976104684466;6,9305419921875E-09;-0,199432373046875;3;236;1,4117319136858E-07;-1,4526654034853E-07;100 nA
-0,150146484375;125,476592683202;7,4066162109375E-09;-0,149505615234375;3;237;1,4117319136858E-07;-1,4526654034853E-07;100 nA
-0,10009765625;125,977080681938;7,745361328125E-09;-0,099639892578125;3;238;1,4117319136858E-07;-1,4526654034853E-07;100 nA
-0,050048828125;126,477568680675;8,4930419921875E-09;-0,0498046875;3;239;1,4117319136858E-07;-1,4526654034853E-07;100 nA
0;126,978056679411;9,9273681640625E-09;0,0001373291015625;3;240;1,4117319136858E-07;-1,4526654034853E-07;100 nA
0,050048828125;127,478544678148;1,065673828125E-08;0,05010986328125;4;241;1,40029191970825E-07;-1,43183209002018E-07;100 nA
0,10009765625;127,979032676884;8,477783203125E-09;0,100067138671875;4;242;1,40029191970825E-07;-1,43183209002018E-07;100 nA
0,150146484375;128,47952067562;7,80029296875E-09;0,150054931640625;4;243;1,40029191970825E-07;-1,43183209002018E-07;100 nA
0,2001953125;128,980008674357;8,2061767578125E-09;0,2000732421875;4;244;1,40029191970825E-07;-1,43183209002018E-07;100 nA
0,250244140625;129,480496673093;8,5357666015625E-09;0,250030517578125;4;245;1,40029191970825E-07;-1,43183209002018E-07;100 nA
0,30029296875;129,98098467183;8,8897705078125E-09;0,300048828125;4;246;1,40029191970825E-07;-1,43183209002018E-07;100 nA
0,350341796875;130,481472670566;9,1888427734375E-09;0,350067138671875;4;247;1,40029191970825E-07;-1,43183209002018E-07;100 nA
0,400390625;130,981960669302;9,5123291015625E-09;0,400054931640625;4;248;1,40029191970825E-07;-1,43183209002018E-07;100 nA
0,450439453125;131,482448668039;9,7320556640625E-09;0,450103759765625;4;249;1,40029191970825E-07;-1,43183209002018E-07;100 nA
0,50048828125;131,982936666775;1,00341796875E-08;0,50006103515625;4;250;1,40029191970825E-07;-1,43183209002018E-07;100 nA
0,550537109375;132,483424665512;1,02294921875E-08;0,550018310546875;4;251;1,40029191970825E-07;-1,43183209002018E-07;100 nA
0,6005859375;132,983912664248;1,025390625E-08;0,600067138671875;4;252;1,40029191970825E-07;-1,43183209002018E-07;100 nA
0,650634765625;133,484400662984;1,0247802734375E-08;0,64996337890625;4;253;1,40029191970825E-07;-1,43183209002018E-07;100 nA
0,70068359375;133,984888661721;1,0223388671875E-08;0,69989013671875;4;254;1,40029191970825E-07;-1,43183209002018E-07;100 nA
0,750732421875;134,485376660457;1,01409912109375E-08;0,74981689453125;4;255;1,40029191970825E-07;-1,43183209002018E-07;100 nA
0,80078125;134,985864659193;9,9578857421875E-09;0,79986572265625;4;256;1,40029191970825E-07;-1,43183209002018E-07;100 nA
0,850830078125;135,48635265793;9,991455078125E-09;0,8502197265625;4;257;1,40029191970825E-07;-1,43183209002018E-07;100 nA
0,90087890625;135,986840656666;9,94873046875E-09;0,89935302734375;4;258;1,40029191970825E-07;-1,43183209002018E-07;100 nA
0,950927734375;136,487328655403;1,0003662109375E-08;0,9490966796875;4;259;1,40029191970825E-07;-1,43183209002018E-07;100 nA
1,0009765625;136,987816654139;1,0113525390625E-08;0,9991455078125;4;260;1,40029191970825E-07;-1,43183209002018E-07;100 nA
0,950927734375;137,488304652875;6,7840576171875E-09;0,94970703125;4;261;1,40029191970825E-07;-1,43183209002018E-07;100 nA
0,90087890625;137,988792651612;4,8675537109375E-09;0,89996337890625;4;262;1,40029191970825E-07;-1,43183209002018E-07;100 nA
0,850830078125;138,489280650348;3,564453125E-09;0,84991455078125;4;263;1,40029191970825E-07;-1,43183209002018E-07;100 nA
0,80078125;138,989768649085;2,52685546875E-09;0,79986572265625;4;264;1,40029191970825E-07;-1,43183209002018E-07;100 nA
0,750732421875;139,490256647821;1,800537109375E-09;0,7498779296875;4;265;1,40029191970825E-07;-1,43183209002018E-07;100 nA
0,70068359375;139,990744646557;1,07421875E-09;0,699951171875;4;266;1,40029191970825E-07;-1,43183209002018E-07;100 nA
0,650634765625;140,491232645294;4,21142578125E-10;0,65008544921875;4;267;1,40029191970825E-07;-1,43183209002018E-07;100 nA
0,6005859375;140,99172064403;-2,13623046875E-10;0,600128173828125;4;268;1,40029191970825E-07;-1,43183209002018E-07;100 nA
0,550537109375;141,492208642767;-7,4462890625E-10;0,550079345703125;4;269;1,40029191970825E-07;-1,43183209002018E-07;100 nA
0,50048828125;141,992696641503;-1,2939453125E-09;0,500152587890625;4;270;1,40029191970825E-07;-1,43183209002018E-07;100 nA
0,450439453125;142,493184640239;-2,178955078125E-09;0,450164794921875;4;271;1,40029191970825E-07;-1,43183209002018E-07;100 nA
0,400390625;142,993672638976;-3,0517578125E-09;0,400146484375;4;272;1,40029191970825E-07;-1,43183209002018E-07;100 nA
0,350341796875;143,494160637712;-3,50341796875E-09;0,350128173828125;4;273;1,40029191970825E-07;-1,43183209002018E-07;100 nA
0,30029296875;143,994648636448;-4,400634765625E-09;0,300140380859375;4;274;1,40029191970825E-07;-1,43183209002018E-07;100 nA
0,250244140625;144,495136635185;-5,2764892578125E-09;0,2501220703125;4;275;1,40029191970825E-07;-1,43183209002018E-07;100 nA
0,2001953125;144,995624633921;-5,9173583984375E-09;0,200042724609375;4;276;1,40029191970825E-07;-1,43183209002018E-07;100 nA
0,150146484375;145,496112632658;-6,536865234375E-09;0,150054931640625;4;277;1,40029191970825E-07;-1,43183209002018E-07;100 nA
0,10009765625;145,996600631394;-7,1868896484375E-09;0,100067138671875;4;278;1,40029191970825E-07;-1,43183209002018E-07;100 nA
0,050048828125;146,49708863013;-8,0322265625E-09;0,050140380859375;4;279;1,40029191970825E-07;-1,43183209002018E-07;100 nA
0;146,997576628867;-9,576416015625E-09;0,0001373291015625;4;280;1,40029191970825E-07;-1,43183209002018E-07;100 nA
-0,050048828125;147,498064627603;-1,25640869140625E-08;-0,0498046875;4;281;1,40029191970825E-07;-1,43183209002018E-07;100 nA
-0,10009765625;147,99855262634;-1,654052734375E-08;-0,099609375;4;282;1,40029191970825E-07;-1,43183209002018E-07;100 nA
-0,150146484375;148,499040625076;-1,812744140625E-08;-0,1495361328125;4;283;1,40029191970825E-07;-1,43183209002018E-07;100 nA
-0,2001953125;148,999528623812;-1,488037109375E-08;-0,199432373046875;4;284;1,40029191970825E-07;-1,43183209002018E-07;100 nA
-0,250244140625;149,500016622549;-8,978271484375E-09;-0,249359130859375;4;285;1,40029191970825E-07;-1,43183209002018E-07;100 nA
-0,30029296875;150,000504621285;-8,642578125E-09;-0,299224853515625;4;286;1,40029191970825E-07;-1,43183209002018E-07;100 nA
-0,350341796875;150,500992620022;-8,892822265625E-09;-0,34918212890625;4;287;1,40029191970825E-07;-1,43183209002018E-07;100 nA
-0,400390625;151,001480618758;-8,575439453125E-09;-0,399139404296875;4;288;1,40029191970825E-07;-1,43183209002018E-07;100 nA
-0,450439453125;151,501968617494;-8,5723876953125E-09;-0,44891357421875;4;289;1,40029191970825E-07;-1,43183209002018E-07;100 nA
-0,50048828125;152,002456616231;-8,5662841796875E-09;-0,498870849609375;4;290;1,40029191970825E-07;-1,43183209002018E-07;100 nA
-0,550537109375;152,502944614967;-8,6639404296875E-09;-0,54876708984375;4;291;1,40029191970825E-07;-1,43183209002018E-07;100 nA
-0,6005859375;153,003432613703;-8,7890625E-09;-0,598602294921875;4;292;1,40029191970825E-07;-1,43183209002018E-07;100 nA
-0,650634765625;153,50392061244;-8,807373046875E-09;-0,648590087890625;4;293;1,40029191970825E-07;-1,43183209002018E-07;100 nA
-0,70068359375;154,004408611176;-8,941650390625E-09;-0,698577880859375;4;294;1,40029191970825E-07;-1,43183209002018E-07;100 nA
-0,750732421875;154,504896609913;-9,09423828125E-09;-0,748565673828125;4;295;1,40029191970825E-07;-1,43183209002018E-07;100 nA
-0,80078125;155,005384608649;-9,2742919921875E-09;-0,79925537109375;4;296;1,40029191970825E-07;-1,43183209002018E-07;100 nA
-0,850830078125;155,505872607385;-9,36279296875E-09;-0,84869384765625;4;297;1,40029191970825E-07;-1,43183209002018E-07;100 nA
-0,90087890625;156,006360606122;-9,6343994140625E-09;-0,89935302734375;4;298;1,40029191970825E-07;-1,43183209002018E-07;100 nA
-0,950927734375;156,506848604858;-1,002197265625E-08;-0,94879150390625;4;299;1,40029191970825E-07;-1,43183209002018E-07;100 nA
-1,0009765625;157,007336603595;-1,0479736328125E-08;-0,9991455078125;4;300;1,40029191970825E-07;-1,43183209002018E-07;100 nA
-0,950927734375;157,507824602331;-7,12890625E-09;-0,94879150390625;4;301;1,40029191970825E-07;-1,43183209002018E-07;100 nA
-0,90087890625;158,008312601067;-5,0567626953125E-09;-0,89874267578125;4;302;1,40029191970825E-07;-1,43183209002018E-07;100 nA
-0,850830078125;158,508800599804;-3,55224609375E-09;-0,8489990234375;4;303;1,40029191970825E-07;-1,43183209002018E-07;100 nA
-0,80078125;159,00928859854;-2,4688720703125E-09;-0,7989501953125;4;304;1,40029191970825E-07;-1,43183209002018E-07;100 nA
-0,750732421875;159,509776597277;-1,556396484375E-09;-0,748504638671875;4;305;1,40029191970825E-07;-1,43183209002018E-07;100 nA
-0,70068359375;160,010264596013;-8,4228515625E-10;-0,698577880859375;4;306;1,40029191970825E-07;-1,43183209002018E-07;100 nA
-0,650634765625;160,510752594749;-1,5869140625E-10;-0,648590087890625;4;307;1,40029191970825E-07;-1,43183209002018E-07;100 nA
-0,6005859375;161,011240593486;5,706787109375E-10;-0,598602294921875;4;308;1,40029191970825E-07;-1,43183209002018E-07;100 nA
-0,550537109375;161,511728592222;1,2908935546875E-09;-0,54876708984375;4;309;1,40029191970825E-07;-1,43183209002018E-07;100 nA
-0,50048828125;162,012216590958;1,8829345703125E-09;-0,49884033203125;4;310;1,40029191970825E-07;-1,43183209002018E-07;100 nA
-0,450439453125;162,512704589695;2,655029296875E-09;-0,448974609375;4;311;1,40029191970825E-07;-1,43183209002018E-07;100 nA
-0,400390625;163,013192588431;3,546142578125E-09;-0,399078369140625;4;312;1,40029191970825E-07;-1,43183209002018E-07;100 nA
-0,350341796875;163,513680587168;4,4769287109375E-09;-0,3492431640625;4;313;1,40029191970825E-07;-1,43183209002018E-07;100 nA
-0,30029296875;164,014168585904;5,792236328125E-09;-0,29925537109375;4;314;1,40029191970825E-07;-1,43183209002018E-07;100 nA
-0,250244140625;164,51465658464;6,451416015625E-09;-0,249359130859375;4;315;1,40029191970825E-07;-1,43183209002018E-07;100 nA
-0,2001953125;165,015144583377;6,9122314453125E-09;-0,199432373046875;4;316;1,40029191970825E-07;-1,43183209002018E-07;100 nA
-0,150146484375;165,515632582113;7,2540283203125E-09;-0,14959716796875;4;317;1,40029191970825E-07;-1,43183209002018E-07;100 nA
-0,10009765625;166,01612058085;7,6019287109375E-09;-0,099700927734375;4;318;1,40029191970825E-07;-1,43183209002018E-07;100 nA
-0,050048828125;166,516608579586;8,3953857421875E-09;-0,0498046875;4;319;1,40029191970825E-07;-1,43183209002018E-07;100 nA
0;167,017096578322;9,771728515625E-09;0,000112915039062494;4;320;1,40029191970825E-07;-1,43183209002018E-07;100 nA
0,050048828125;167,517584577059;1,03729248046875E-08;0,050048828125;5;321;1,38782858848572E-07;-1,41797885298729E-07;100 nA
0,10009765625;168,018072575795;8,038330078125E-09;0,100006103515625;5;322;1,38782858848572E-07;-1,41797885298729E-07;100 nA
0,150146484375;168,518560574532;7,647705078125E-09;0,149993896484375;5;323;1,38782858848572E-07;-1,41797885298729E-07;100 nA
0,2001953125;169,019048573268;8,001708984375E-09;0,20001220703125;5;324;1,38782858848572E-07;-1,41797885298729E-07;100 nA
0,250244140625;169,519536572004;8,31298828125E-09;0,24993896484375;5;325;1,38782858848572E-07;-1,41797885298729E-07;100 nA
0,30029296875;170,020024570741;8,6151123046875E-09;0,30010986328125;5;326;1,38782858848572E-07;-1,41797885298729E-07;100 nA
0,350341796875;170,520512569477;8,978271484375E-09;0,350067138671875;5;327;1,38782858848572E-07;-1,41797885298729E-07;100 nA
0,400390625;171,021000568213;9,375E-09;0,4000244140625;5;328;1,38782858848572E-07;-1,41797885298729E-07;100 nA
0,450439453125;171,52148856695;9,5947265625E-09;0,45001220703125;5;329;1,38782858848572E-07;-1,41797885298729E-07;100 nA
0,50048828125;172,021976565686;9,8663330078125E-09;0,50006103515625;5;330;1,38782858848572E-07;-1,41797885298729E-07;100 nA
0,550537109375;172,522464564423;1,01409912109375E-08;0,550018310546875;5;331;1,38782858848572E-07;-1,41797885298729E-07;100 nA
0,6005859375;173,022952563159;1,029052734375E-08;0,60003662109375;5;332;1,38782858848572E-07;-1,41797885298729E-07;100 nA
0,650634765625;173,523440561895;1,03118896484375E-08;0,649993896484375;5;333;1,38782858848572E-07;-1,41797885298729E-07;100 nA
0,70068359375;174,023928560632;1,02142333984375E-08;0,69989013671875;5;334;1,38782858848572E-07;-1,41797885298729E-07;100 nA
0,750732421875;174,524416559368;1,016845703125E-08;0,74981689453125;5;335;1,38782858848572E-07;-1,41797885298729E-07;100 nA
0,80078125;175,024904558105;1,0162353515625E-08;0,79986572265625;5;336;1,38782858848572E-07;-1,41797885298729E-07;100 nA
0,850830078125;175,525392556841;1,0064697265625E-08;0,849609375;5;337;1,38782858848572E-07;-1,41797885298729E-07;100 nA
0,90087890625;176,025880555577;1,00738525390625E-08;0,8990478515625;5;338;1,38782858848572E-07;-1,41797885298729E-07;100 nA
0,950927734375;176,526368554314;1,00799560546875E-08;0,95001220703125;5;339;1,38782858848572E-07;-1,41797885298729E-07;100 nA
1,0009765625;177,02685655305;1,0198974609375E-08;0,999755859375;5;340;1,38782858848572E-07;-1,41797885298729E-07;100 nA
0,950927734375;177,527344551787;6,787109375E-09;0,9490966796875;5;341;1,38782858848572E-07;-1,41797885298729E-07;100 nA
0,90087890625;178,027832550523;4,8370361328125E-09;0,89996337890625;5;342;1,38782858848572E-07;-1,41797885298729E-07;100 nA
0,850830078125;178,528320549259;3,52783203125E-09;0,84991455078125;5;343;1,38782858848572E-07;-1,41797885298729E-07;100 nA
0,80078125;179,028808547996;2,6031494140625E-09;0,79986572265625;5;344;1,38782858848572E-07;-1,41797885298729E-07;100 nA
0,750732421875;179,529296546732;1,84326171875E-09;0,7498779296875;5;345;1,38782858848572E-07;-1,41797885298729E-07;100 nA
0,70068359375;180,029784545468;1,1474609375E-09;0,70001220703125;5;346;1,38782858848572E-07;-1,41797885298729E-07;100 nA
0,650634765625;180,530272544205;3,997802734375E-10;0,65008544921875;5;347;1,38782858848572E-07;-1,41797885298729E-07;100 nA
0,6005859375;181,030760542941;-2,288818359375E-10;0,60009765625;5;348;1,38782858848572E-07;-1,41797885298729E-07;100 nA
0,550537109375;181,531248541678;-8,209228515625E-10;0,550079345703125;5;349;1,38782858848572E-07;-1,41797885298729E-07;100 nA
0,50048828125;182,031736540414;-1,4312744140625E-09;0,500091552734375;5;350;1,38782858848572E-07;-1,41797885298729E-07;100 nA
0,450439453125;182,53222453915;-2,1453857421875E-09;0,4500732421875;5;351;1,38782858848572E-07;-1,41797885298729E-07;100 nA
0,400390625;183,032712537887;-2,880859375E-09;0,400146484375;5;352;1,38782858848572E-07;-1,41797885298729E-07;100 nA
0,350341796875;183,533200536623;-3,607177734375E-09;0,350067138671875;5;353;1,38782858848572E-07;-1,41797885298729E-07;100 nA
0,30029296875;184,03368853536;-4,4158935546875E-09;0,30010986328125;5;354;1,38782858848572E-07;-1,41797885298729E-07;100 nA
0,250244140625;184,534176534096;-5,2520751953125E-09;0,2501220703125;5;355;1,38782858848572E-07;-1,41797885298729E-07;100 nA
0,2001953125;185,034664532832;-5,94482421875E-09;0,2000732421875;5;356;1,38782858848572E-07;-1,41797885298729E-07;100 nA
0,150146484375;185,535152531569;-6,6009521484375E-09;0,15008544921875;5;357;1,38782858848572E-07;-1,41797885298729E-07;100 nA
0,10009765625;186,035640530305;-7,09228515625E-09;0,100067138671875;5;358;1,38782858848572E-07;-1,41797885298729E-07;100 nA
0,050048828125;186,536128529042;-8,0047607421875E-09;0,05010986328125;5;359;1,38782858848572E-07;-1,41797885298729E-07;100 nA
0;187,036616527778;-9,28955078125E-09;0,000109863281249997;5;360;1,38782858848572E-07;-1,41797885298729E-07;100 nA
-0,050048828125;187,537104526514;-1,27593994140625E-08;-0,049835205078125;5;361;1,38782858848572E-07;-1,41797885298729E-07;100 nA
-0,10009765625;188,037592525251;-1,65313720703125E-08;-0,0997314453125;5;362;1,38782858848572E-07;-1,41797885298729E-07;100 nA
-0,150146484375;188,538080523987;-1,7913818359375E-08;-0,1495361328125;5;363;1,38782858848572E-07;-1,41797885298729E-07;100 nA
-0,2001953125;189,038568522723;-1,42547607421875E-08;-0,199493408203125;5;364;1,38782858848572E-07;-1,41797885298729E-07;100 nA
-0,250244140625;189,53905652146;-8,9508056640625E-09;-0,249359130859375;5;365;1,38782858848572E-07;-1,41797885298729E-07;100 nA
-0,30029296875;190,039544520196;-8,6273193359375E-09;-0,29925537109375;5;366;1,38782858848572E-07;-1,41797885298729E-07;100 nA
-0,350341796875;190,540032518933;-8,53271484375E-09;-0,3492431640625;5;367;1,38782858848572E-07;-1,41797885298729E-07;100 nA
-0,400390625;191,040520517669;-8,4320068359375E-09;-0,399078369140625;5;368;1,38782858848572E-07;-1,41797885298729E-07;100 nA
-0,450439453125;191,541008516405;-8,441162109375E-09;-0,449005126953125;5;369;1,38782858848572E-07;-1,41797885298729E-07;100 nA
-0,50048828125;192,041496515142;-8,4503173828125E-09;-0,498870849609375;5;370;1,38782858848572E-07;-1,41797885298729E-07;100 nA
-0,550537109375;192,541984513878;-8,5601806640625E-09;-0,5487060546875;5;371;1,38782858848572E-07;-1,41797885298729E-07;100 nA
-0,6005859375;193,042472512615;-8,6212158203125E-09;-0,598663330078125;5;372;1,38782858848572E-07;-1,41797885298729E-07;100 nA
-0,650634765625;193,542960511351;-8,7127685546875E-09;-0,648529052734375;5;373;1,38782858848572E-07;-1,41797885298729E-07;100 nA
-0,70068359375;194,043448510087;-8,7890625E-09;-0,698516845703125;5;374;1,38782858848572E-07;-1,41797885298729E-07;100 nA
-0,750732421875;194,543936508824;-8,9874267578125E-09;-0,74853515625;5;375;1,38782858848572E-07;-1,41797885298729E-07;100 nA
-0,80078125;195,04442450756;-9,2376708984375E-09;-0,79864501953125;5;376;1,38782858848572E-07;-1,41797885298729E-07;100 nA
-0,850830078125;195,544912506297;-9,4085693359375E-09;-0,848388671875;5;377;1,38782858848572E-07;-1,41797885298729E-07;100 nA
-0,90087890625;196,045400505033;-9,5916748046875E-09;-0,89874267578125;5;378;1,38782858848572E-07;-1,41797885298729E-07;100 nA
-0,950927734375;196,545888503769;-9,8297119140625E-09;-0,948486328125;5;379;1,38782858848572E-07;-1,41797885298729E-07;100 nA
-1,0009765625;197,046376502506;-1,024169921875E-08;-0,99945068359375;5;380;1,38782858848572E-07;-1,41797885298729E-07;100 nA
-0,950927734375;197,546864501242;-6,8939208984375E-09;-0,9490966796875;5;381;1,38782858848572E-07;-1,41797885298729E-07;100 nA
-0,90087890625;198,047352499979;-4,9835205078125E-09;-0,89874267578125;5;382;1,38782858848572E-07;-1,41797885298729E-07;100 nA
-0,850830078125;198,547840498715;-3,5736083984375E-09;-0,84869384765625;5;383;1,38782858848572E-07;-1,41797885298729E-07;100 nA
-0,80078125;199,048328497451;-2,60009765625E-09;-0,79833984375;5;384;1,38782858848572E-07;-1,41797885298729E-07;100 nA
-0,750732421875;199,548816496188;-1,708984375E-09;-0,74859619140625;5;385;1,38782858848572E-07;-1,41797885298729E-07;100 nA
-0,70068359375;200,049304494924;-8,97216796875E-10;-0,6986083984375;5;386;1,38782858848572E-07;-1,41797885298729E-07;100 nA
-0,650634765625;200,54979249366;-7,32421875E-11;-0,648590087890625;5;387;1,38782858848572E-07;-1,41797885298729E-07;100 nA
-0,6005859375;201,050280492397;5,126953125E-10;-0,5986328125;5;388;1,38782858848572E-07;-1,41797885298729E-07;100 nA
-0,550537109375;201,550768491133;1,220703125E-09;-0,548736572265625;5;389;1,38782858848572E-07;-1,41797885298729E-07;100 nA
-0,50048828125;202,05125648987;1,9378662109375E-09;-0,498931884765625;5;390;1,38782858848572E-07;-1,41797885298729E-07;100 nA
-0,450439453125;202,551744488606;2,6031494140625E-09;-0,448974609375;5;391;1,38782858848572E-07;-1,41797885298729E-07;100 nA
-0,400390625;203,052232487342;3,3935546875E-09;-0,39910888671875;5;392;1,38782858848572E-07;-1,41797885298729E-07;100 nA
-0,350341796875;203,552720486079;4,4921875E-09;-0,349212646484375;5;393;1,38782858848572E-07;-1,41797885298729E-07;100 nA
-0,30029296875;204,053208484815;5,7281494140625E-09;-0,29925537109375;5;394;1,38782858848572E-07;-1,41797885298729E-07;100 nA
-0,250244140625;204,553696483552;6,378173828125E-09;-0,2493896484375;5;395;1,38782858848572E-07;-1,41797885298729E-07;100 nA
-0,2001953125;205,054184482288;6,732177734375E-09;-0,199493408203125;5;396;1,38782858848572E-07;-1,41797885298729E-07;100 nA
-0,150146484375;205,554672481024;7,1533203125E-09;-0,149627685546875;5;397;1,38782858848572E-07;-1,41797885298729E-07;100 nA
-0,10009765625;206,055160479761;7,489013671875E-09;-0,0997314453125;5;398;1,38782858848572E-07;-1,41797885298729E-07;100 nA
-0,050048828125;206,555648478497;8,2916259765625E-09;-0,049835205078125;5;399;1,38782858848572E-07;-1,41797885298729E-07;100 nA
0;207,056136477234;9,7076416015625E-09;0,0001220703125;5;400;1,38782858848572E-07;-1,41797885298729E-07;100 nA
0,050048828125;207,55662447597;1,025390625E-08;0,050048828125;6;401;1,39293000102043E-07;-1,41070857644081E-07;100 nA
0,10009765625;208,057112474706;7,9559326171875E-09;0,10003662109375;6;402;1,39293000102043E-07;-1,41070857644081E-07;100 nA
0,150146484375;208,557600473443;7,684326171875E-09;0,1500244140625;6;403;1,39293000102043E-07;-1,41070857644081E-07;100 nA
0,2001953125;209,058088472179;8,0474853515625E-09;0,200042724609375;6;404;1,39293000102043E-07;-1,41070857644081E-07;100 nA
0,250244140625;209,558576470915;8,5479736328125E-09;0,250152587890625;6;405;1,39293000102043E-07;-1,41070857644081E-07;100 nA
0,30029296875;210,059064469652;8,9447021484375E-09;0,30010986328125;6;406;1,39293000102043E-07;-1,41070857644081E-07;100 nA
0,350341796875;210,559552468388;9,197998046875E-09;0,35009765625;6;407;1,39293000102043E-07;-1,41070857644081E-07;100 nA
0,400390625;211,060040467125;9,3658447265625E-09;0,400146484375;6;408;1,39293000102043E-07;-1,41070857644081E-07;100 nA
0,450439453125;211,560528465861;9,7564697265625E-09;0,450164794921875;6;409;1,39293000102043E-07;-1,41070857644081E-07;100 nA
0,50048828125;212,061016464597;1,00555419921875E-08;0,500091552734375;6;410;1,39293000102043E-07;-1,41070857644081E-07;100 nA
0,550537109375;212,561504463334;1,0211181640625E-08;0,550140380859375;6;411;1,39293000102043E-07;-1,41070857644081E-07;100 nA
0,6005859375;213,06199246207;1,04644775390625E-08;0,600250244140625;6;412;1,39293000102043E-07;-1,41070857644081E-07;100 nA
0,650634765625;213,562480460807;1,02996826171875E-08;0,650054931640625;6;413;1,39293000102043E-07;-1,41070857644081E-07;100 nA
0,70068359375;214,062968459543;1,0211181640625E-08;0,699920654296875;6;414;1,39293000102043E-07;-1,41070857644081E-07;100 nA
0,750732421875;214,563456458279;1,00982666015625E-08;0,7498779296875;6;415;1,39293000102043E-07;-1,41070857644081E-07;100 nA
0,80078125;215,063944457016;1,00341796875E-08;0,799560546875;6;416;1,39293000102043E-07;-1,41070857644081E-07;100 nA
0,850830078125;215,564432455752;1,0009765625E-08;0,849609375;6;417;1,39293000102043E-07;-1,41070857644081E-07;100 nA
0,90087890625;216,064920454489;9,967041015625E-09;0,899658203125;6;418;1,39293000102043E-07;-1,41070857644081E-07;100 nA
0,950927734375;216,565408453225;9,97314453125E-09;0,94970703125;6;419;1,39293000102043E-07;-1,41070857644081E-07;100 nA
1,0009765625;217,065896451961;1,00677490234375E-08;0,99945068359375;6;420;1,39293000102043E-07;-1,41070857644081E-07;100 nA
0,950927734375;217,566384450698;6,671142578125E-09;0,94970703125;6;421;1,39293000102043E-07;-1,41070857644081E-07;100 nA
0,90087890625;218,066872449434;4,742431640625E-09;0,9002685546875;6;422;1,39293000102043E-07;-1,41070857644081E-07;100 nA
0,850830078125;218,56736044817;3,369140625E-09;0,84991455078125;6;423;1,39293000102043E-07;-1,41070857644081E-07;100 nA
0,80078125;219,067848446907;2,4322509765625E-09;0,8001708984375;6;424;1,39293000102043E-07;-1,41070857644081E-07;100 nA
0,750732421875;219,568336445643;1,513671875E-09;0,749786376953125;6;425;1,39293000102043E-07;-1,41070857644081E-07;100 nA
0,70068359375;220,06882444438;7,75146484375E-10;0,699920654296875;6;426;1,39293000102043E-07;-1,41070857644081E-07;100 nA
0,650634765625;220,569312443116;2,960205078125E-10;0,649993896484375;6;427;1,39293000102043E-07;-1,41070857644081E-07;100 nA
0,6005859375;221,069800441852;-3,692626953125E-10;0,600067138671875;6;428;1,39293000102043E-07;-1,41070857644081E-07;100 nA
0,550537109375;221,570288440589;-1,0040283203125E-09;0,550048828125;6;429;1,39293000102043E-07;-1,41070857644081E-07;100 nA
0,50048828125;222,070776439325;-1,416015625E-09;0,50006103515625;6;430;1,39293000102043E-07;-1,41070857644081E-07;100 nA
0,450439453125;222,571264438062;-2,1453857421875E-09;0,450042724609375;6;431;1,39293000102043E-07;-1,41070857644081E-07;100 nA
0,400390625;223,071752436798;-2,825927734375E-09;0,400146484375;6;432;1,39293000102043E-07;-1,41070857644081E-07;100 nA
0,350341796875;223,572240435534;-3,6468505859375E-09;0,350128173828125;6;433;1,39293000102043E-07;-1,41070857644081E-07;100 nA
0,30029296875;224,072728434271;-4,3060302734375E-09;0,300079345703125;6;434;1,39293000102043E-07;-1,41070857644081E-07;100 nA
0,250244140625;224,573216433007;-5,2093505859375E-09;0,2501220703125;6;435;1,39293000102043E-07;-1,41070857644081E-07;100 nA
0,2001953125;225,073704431744;-5,9295654296875E-09;0,200164794921875;6;436;1,39293000102043E-07;-1,41070857644081E-07;100 nA
0,150146484375;225,57419243048;-6,5185546875E-09;0,150115966796875;6;437;1,39293000102043E-07;-1,41070857644081E-07;100 nA
0,10009765625;226,074680429216;-7,1563720703125E-09;0,100067138671875;6;438;1,39293000102043E-07;-1,41070857644081E-07;100 nA
0,050048828125;226,575168427953;-7,977294921875E-09;0,050079345703125;6;439;1,39293000102043E-07;-1,41070857644081E-07;100 nA
0;227,075656426689;-9,4024658203125E-09;0,000119018554687503;6;440;1,39293000102043E-07;-1,41070857644081E-07;100 nA
-0,050048828125;227,576144425425;-1,22283935546875E-08;-0,049713134765625;6;441;1,39293000102043E-07;-1,41070857644081E-07;100 nA
-0,10009765625;228,076632424162;-1,6217041015625E-08;-0,099639892578125;6;442;1,39293000102043E-07;-1,41070857644081E-07;100 nA
-0,150146484375;228,577120422898;-1,761474609375E-08;-0,149505615234375;6;443;1,39293000102043E-07;-1,41070857644081E-07;100 nA
-0,2001953125;229,077608421635;-1,33514404296875E-08;-0,199462890625;6;444;1,39293000102043E-07;-1,41070857644081E-07;100 nA
-0,250244140625;229,578096420371;-8,6517333984375E-09;-0,249298095703125;6;445;1,39293000102043E-07;-1,41070857644081E-07;100 nA
-0,30029296875;230,078584419107;-8,380126953125E-09;-0,299285888671875;6;446;1,39293000102043E-07;-1,41070857644081E-07;100 nA
-0,350341796875;230,579072417844;-8,416748046875E-09;-0,34918212890625;6;447;1,39293000102043E-07;-1,41070857644081E-07;100 nA
-0,400390625;231,07956041658;-8,3404541015625E-09;-0,3990478515625;6;448;1,39293000102043E-07;-1,41070857644081E-07;100 nA
-0,450439453125;231,580048415317;-8,3404541015625E-09;-0,448974609375;6;449;1,39293000102043E-07;-1,41070857644081E-07;100 nA
-0,50048828125;232,080536414053;-8,3587646484375E-09;-0,498809814453125;6;450;1,39293000102043E-07;-1,41070857644081E-07;100 nA
-0,550537109375;232,581024412789;-8,502197265625E-09;-0,548675537109375;6;451;1,39293000102043E-07;-1,41070857644081E-07;100 nA
-0,6005859375;233,081512411526;-8,6151123046875E-09;-0,59857177734375;6;452;1,39293000102043E-07;-1,41070857644081E-07;100 nA
-0,650634765625;233,582000410262;-8,782958984375E-09;-0,648590087890625;6;453;1,39293000102043E-07;-1,41070857644081E-07;100 nA
-0,70068359375;234,082488408999;-8,929443359375E-09;-0,698577880859375;6;454;1,39293000102043E-07;-1,41070857644081E-07;100 nA
-0,750732421875;234,582976407735;-9,0362548828125E-09;-0,74853515625;6;455;1,39293000102043E-07;-1,41070857644081E-07;100 nA
-0,80078125;235,083464406471;-9,3780517578125E-09;-0,79864501953125;6;456;1,39293000102043E-07;-1,41070857644081E-07;100 nA
-0,850830078125;235,583952405208;-9,5489501953125E-09;-0,84869384765625;6;457;1,39293000102043E-07;-1,41070857644081E-07;100 nA
-0,90087890625;236,084440403944;-9,9578857421875E-09;-0,89874267578125;6;458;1,39293000102043E-07;-1,41070857644081E-07;100 nA
-0,950927734375;236,58492840268;-1,0028076171875E-08;-0,9490966796875;6;459;1,39293000102043E-07;-1,41070857644081E-07;100 nA
-1,0009765625;237,085416401417;-1,04766845703125E-08;-0,99853515625;6;460;1,39293000102043E-07;-1,41070857644081E-07;100 nA
-0,950927734375;237,585904400153;-6,9854736328125E-09;-0,94879150390625;6;461;1,39293000102043E-07;-1,41070857644081E-07;100 nA
-0,90087890625;238,08639239889;-5,120849609375E-09;-0,89874267578125;6;462;1,39293000102043E-07;-1,41070857644081E-07;100 nA
-0,850830078125;238,586880397626;-3,564453125E-09;-0,8489990234375;6;463;1,39293000102043E-07;-1,41070857644081E-07;100 nA
-0,80078125;239,087368396362;-2,5177001953125E-09;-0,79864501953125;6;464;1,39293000102043E-07;-1,41070857644081E-07;100 nA
-0,750732421875;239,587856395099;-1,7120361328125E-09;-0,7486572265625;6;465;1,39293000102043E-07;-1,41070857644081E-07;100 nA
-0,70068359375;240,088344393835;-8,026123046875E-10;-0,698577880859375;6;466;1,39293000102043E-07;-1,41070857644081E-07;100 nA
-0,650634765625;240,588832392572;-1,007080078125E-10;-0,6485595703125;6;467;1,39293000102043E-07;-1,41070857644081E-07;100 nA
-0,6005859375;241,089320391308;6,622314453125E-10;-0,598602294921875;6;468;1,39293000102043E-07;-1,41070857644081E-07;100 nA
-0,550537109375;241,589808390044;1,2359619140625E-09;-0,548736572265625;6;469;1,39293000102043E-07;-1,41070857644081E-07;100 nA
-0,50048828125;242,090296388781;1,934814453125E-09;-0,49884033203125;6;470;1,39293000102043E-07;-1,41070857644081E-07;100 nA
-0,450439453125;242,590784387517;2,667236328125E-09;-0,448944091796875;6;471;1,39293000102043E-07;-1,41070857644081E-07;100 nA
-0,400390625;243,091272386254;3,5003662109375E-09;-0,3990478515625;6;472;1,39293000102043E-07;-1,41070857644081E-07;100 nA
-0,350341796875;243,59176038499;4,6234130859375E-09;-0,349090576171875;6;473;1,39293000102043E-07;-1,41070857644081E-07;100 nA
-0,30029296875;244,092248383726;5,926513671875E-09;-0,299224853515625;6;474;1,39293000102043E-07;-1,41070857644081E-07;100 nA
-0,250244140625;244,592736382463;6,6162109375E-09;-0,24932861328125;6;475;1,39293000102043E-07;-1,41070857644081E-07;100 nA
-0,2001953125;245,093224381199;6,9549560546875E-09;-0,199432373046875;6;476;1,39293000102043E-07;-1,41070857644081E-07;100 nA
-0,150146484375;245,593712379935;7,379150390625E-09;-0,149566650390625;6;477;1,39293000102043E-07;-1,41070857644081E-07;100 nA
-0,10009765625;246,094200378672;7,6812744140625E-09;-0,0997314453125;6;478;1,39293000102043E-07;-1,41070857644081E-07;100 nA
-0,050048828125;246,594688377408;8,4228515625E-09;-0,04974365234375;6;479;1,39293000102043E-07;-1,41070857644081E-07;100 nA
0;247,095176376145;9,7625732421875E-09;0,000131225585937506;6;480;1,39293000102043E-07;-1,41070857644081E-07;100 nA
0,050048828125;247,595664374881;1,00921630859375E-08;0,050079345703125;7;481;1,38527788221836E-07;-1,39874927699566E-07;100 nA
0,10009765625;248,096152373617;7,9345703125E-09;0,100067138671875;7;482;1,38527788221836E-07;-1,39874927699566E-07;100 nA
0,150146484375;248,596640372354;7,5958251953125E-09;0,150054931640625;7;483;1,38527788221836E-07;-1,39874927699566E-07;100 nA
0,2001953125;249,09712837109;8,038330078125E-09;0,200042724609375;7;484;1,38527788221836E-07;-1,39874927699566E-07;100 nA
0,250244140625;249,597616369827;8,4014892578125E-09;0,250030517578125;7;485;1,38527788221836E-07;-1,39874927699566E-07;100 nA
0,30029296875;250,098104368563;8,6883544921875E-09;0,300079345703125;7;486;1,38527788221836E-07;-1,39874927699566E-07;100 nA
0,350341796875;250,598592367299;9,033203125E-09;0,350067138671875;7;487;1,38527788221836E-07;-1,39874927699566E-07;100 nA
0,400390625;251,099080366036;9,283447265625E-09;0,4000244140625;7;488;1,38527788221836E-07;-1,39874927699566E-07;100 nA
0,450439453125;251,599568364772;9,6771240234375E-09;0,45001220703125;7;489;1,38527788221836E-07;-1,39874927699566E-07;100 nA
0,50048828125;252,100056363509;9,8968505859375E-09;0,500030517578125;7;490;1,38527788221836E-07;-1,39874927699566E-07;100 nA
0,550537109375;252,600544362245;1,0089111328125E-08;0,550048828125;7;491;1,38527788221836E-07;-1,39874927699566E-07;100 nA
0,6005859375;253,101032360981;1,0137939453125E-08;0,600006103515625;7;492;1,38527788221836E-07;-1,39874927699566E-07;100 nA
0,650634765625;253,601520359718;1,0137939453125E-08;0,649993896484375;7;493;1,38527788221836E-07;-1,39874927699566E-07;100 nA
0,70068359375;254,102008358454;1,01104736328125E-08;0,69989013671875;7;494;1,38527788221836E-07;-1,39874927699566E-07;100 nA
0,750732421875;254,60249635719;9,9609375E-09;0,74981689453125;7;495;1,38527788221836E-07;-1,39874927699566E-07;100 nA
0,80078125;255,102984355927;9,8968505859375E-09;0,79925537109375;7;496;1,38527788221836E-07;-1,39874927699566E-07;100 nA
0,850830078125;255,603472354663;9,8724365234375E-09;0,8502197265625;7;497;1,38527788221836E-07;-1,39874927699566E-07;100 nA
0,90087890625;256,1039603534;9,869384765625E-09;0,89935302734375;7;498;1,38527788221836E-07;-1,39874927699566E-07;100 nA
0,950927734375;256,604448352136;9,918212890625E-09;0,94970703125;7;499;1,38527788221836E-07;-1,39874927699566E-07;100 nA
1,0009765625;257,104936350872;1,00067138671875E-08;1,00006103515625;7;500;1,38527788221836E-07;-1,39874927699566E-07;100 nA
0,950927734375;257,605424349609;6,732177734375E-09;0,94970703125;7;501;1,38527788221836E-07;-1,39874927699566E-07;100 nA
0,90087890625;258,105912348345;4,840087890625E-09;0,89996337890625;7;502;1,38527788221836E-07;-1,39874927699566E-07;100 nA
0,850830078125;258,606400347082;3,521728515625E-09;0,84991455078125;7;503;1,38527788221836E-07;-1,39874927699566E-07;100 nA
0,80078125;259,106888345818;2,57568359375E-09;0,8001708984375;7;504;1,38527788221836E-07;-1,39874927699566E-07;100 nA
0,750732421875;259,607376344554;1,74560546875E-09;0,74981689453125;7;505;1,38527788221836E-07;-1,39874927699566E-07;100 nA
0,70068359375;260,107864343291;1,0528564453125E-09;0,699920654296875;7;506;1,38527788221836E-07;-1,39874927699566E-07;100 nA
0,650634765625;260,608352342027;3,875732421875E-10;0,650054931640625;7;507;1,38527788221836E-07;-1,39874927699566E-07;100 nA
0,6005859375;261,108840340764;-2,044677734375E-10;0,600067138671875;7;508;1,38527788221836E-07;-1,39874927699566E-07;100 nA
0,550537109375;261,6093283395;-7,75146484375E-10;0,55010986328125;7;509;1,38527788221836E-07;-1,39874927699566E-07;100 nA
0,50048828125;262,109816338236;-1,35498046875E-09;0,500091552734375;7;510;1,38527788221836E-07;-1,39874927699566E-07;100 nA
0,450439453125;262,610304336973;-2,008056640625E-09;0,450103759765625;7;511;1,38527788221836E-07;-1,39874927699566E-07;100 nA
0,400390625;263,110792335709;-2,7984619140625E-09;0,400115966796875;7;512;1,38527788221836E-07;-1,39874927699566E-07;100 nA
0,350341796875;263,611280334446;-3,5919189453125E-09;0,350189208984375;7;513;1,38527788221836E-07;-1,39874927699566E-07;100 nA
0,30029296875;264,111768333182;-4,2694091796875E-09;0,30010986328125;7;514;1,38527788221836E-07;-1,39874927699566E-07;100 nA
0,250244140625;264,612256331918;-5,18798828125E-09;0,2501220703125;7;515;1,38527788221836E-07;-1,39874927699566E-07;100 nA
0,2001953125;265,112744330655;-5,87158203125E-09;0,200103759765625;7;516;1,38527788221836E-07;-1,39874927699566E-07;100 nA
0,150146484375;265,613232329391;-6,53076171875E-09;0,15008544921875;7;517;1,38527788221836E-07;-1,39874927699566E-07;100 nA
0,10009765625;266,113720328127;-7,0465087890625E-09;0,100128173828125;7;518;1,38527788221836E-07;-1,39874927699566E-07;100 nA
0,050048828125;266,614208326864;-8,0291748046875E-09;0,050079345703125;7;519;1,38527788221836E-07;-1,39874927699566E-07;100 nA
0;267,1146963256;-9,4940185546875E-09;0,000128173828124994;7;520;1,38527788221836E-07;-1,39874927699566E-07;100 nA
-0,050048828125;267,615184324337;-1,23748779296875E-08;-0,0498046875;7;521;1,38527788221836E-07;-1,39874927699566E-07;100 nA
-0,10009765625;268,115672323073;-1,6082763671875E-08;-0,09967041015625;7;522;1,38527788221836E-07;-1,39874927699566E-07;100 nA
-0,150146484375;268,616160321809;-1,7303466796875E-08;-0,149566650390625;7;523;1,38527788221836E-07;-1,39874927699566E-07;100 nA
-0,2001953125;269,116648320546;-1,28143310546875E-08;-0,199432373046875;7;524;1,38527788221836E-07;-1,39874927699566E-07;100 nA
-0,250244140625;269,617136319282;-8,6517333984375E-09;-0,24932861328125;7;525;1,38527788221836E-07;-1,39874927699566E-07;100 nA
-0,30029296875;270,117624318019;-8,441162109375E-09;-0,29925537109375;7;526;1,38527788221836E-07;-1,39874927699566E-07;100 nA
-0,350341796875;270,618112316755;-8,477783203125E-09;-0,34918212890625;7;527;1,38527788221836E-07;-1,39874927699566E-07;100 nA
-0,400390625;271,118600315491;-8,367919921875E-09;-0,3990478515625;7;528;1,38527788221836E-07;-1,39874927699566E-07;100 nA
-0,450439453125;271,619088314228;-8,3648681640625E-09;-0,448944091796875;7;529;1,38527788221836E-07;-1,39874927699566E-07;100 nA
-0,50048828125;272,119576312964;-8,4991455078125E-09;-0,498870849609375;7;530;1,38527788221836E-07;-1,39874927699566E-07;100 nA
-0,550537109375;272,620064311701;-8,648681640625E-09;-0,548828125;7;531;1,38527788221836E-07;-1,39874927699566E-07;100 nA
-0,6005859375;273,120552310437;-8,7249755859375E-09;-0,5986328125;7;532;1,38527788221836E-07;-1,39874927699566E-07;100 nA
-0,650634765625;273,621040309173;-8,8226318359375E-09;-0,648651123046875;7;533;1,38527788221836E-07;-1,39874927699566E-07;100 nA
-0,70068359375;274,12152830791;-8,917236328125E-09;-0,698577880859375;7;534;1,38527788221836E-07;-1,39874927699566E-07;100 nA
-0,750732421875;274,622016306646;-9,0850830078125E-09;-0,748626708984375;7;535;1,38527788221836E-07;-1,39874927699566E-07;100 nA
-0,80078125;275,122504305382;-9,24072265625E-09;-0,79833984375;7;536;1,38527788221836E-07;-1,39874927699566E-07;100 nA
-0,850830078125;275,622992304119;-9,442138671875E-09;-0,84869384765625;7;537;1,38527788221836E-07;-1,39874927699566E-07;100 nA
-0,90087890625;276,123480302855;-9,7320556640625E-09;-0,8990478515625;7;538;1,38527788221836E-07;-1,39874927699566E-07;100 nA
-0,950927734375;276,623968301592;-9,8907470703125E-09;-0,9490966796875;7;539;1,38527788221836E-07;-1,39874927699566E-07;100 nA
-1,0009765625;277,124456300328;-1,029052734375E-08;-0,99884033203125;7;540;1,38527788221836E-07;-1,39874927699566E-07;100 nA
-0,950927734375;277,624944299064;-6,951904296875E-09;-0,9490966796875;7;541;1,38527788221836E-07;-1,39874927699566E-07;100 nA
-0,90087890625;278,125432297801;-4,9163818359375E-09;-0,8990478515625;7;542;1,38527788221836E-07;-1,39874927699566E-07;100 nA
-0,850830078125;278,625920296537;-3,2501220703125E-09;-0,84869384765625;7;543;1,38527788221836E-07;-1,39874927699566E-07;100 nA
-0,80078125;279,126408295274;-2,471923828125E-09;-0,79864501953125;7;544;1,38527788221836E-07;-1,39874927699566E-07;100 nA
-0,750732421875;279,62689629401;-1,7425537109375E-09;-0,748565673828125;7;545;1,38527788221836E-07;-1,39874927699566E-07;100 nA
-0,70068359375;280,127384292746;-7,843017578125E-10;-0,698486328125;7;546;1,38527788221836E-07;-1,39874927699566E-07;100 nA
-0,650634765625;280,627872291483;-2,44140625E-11;-0,6485595703125;7;547;1,38527788221836E-07;-1,39874927699566E-07;100 nA
-0,6005859375;281,128360290219;5,2490234375E-10;-0,598663330078125;7;548;1,38527788221836E-07;-1,39874927699566E-07;100 nA
-0,550537109375;281,628848288956;1,2176513671875E-09;-0,548736572265625;7;549;1,38527788221836E-07;-1,39874927699566E-07;100 nA
-0,50048828125;282,129336287692;2,0355224609375E-09;-0,498809814453125;7;550;1,38527788221836E-07;-1,39874927699566E-07;100 nA
-0,450439453125;282,629824286428;2,7862548828125E-09;-0,448974609375;7;551;1,38527788221836E-07;-1,39874927699566E-07;100 nA
-0,400390625;283,130312285165;3,5797119140625E-09;-0,399017333984375;7;552;1,38527788221836E-07;-1,39874927699566E-07;100 nA
-0,350341796875;283,630800283901;4,5623779296875E-09;-0,349212646484375;7;553;1,38527788221836E-07;-1,39874927699566E-07;100 nA
-0,30029296875;284,131288282637;5,8380126953125E-09;-0,29925537109375;7;554;1,38527788221836E-07;-1,39874927699566E-07;100 nA
-0,250244140625;284,631776281374;6,640625E-09;-0,249298095703125;7;555;1,38527788221836E-07;-1,39874927699566E-07;100 nA
-0,2001953125;285,13226428011;7,0404052734375E-09;-0,199462890625;7;556;1,38527788221836E-07;-1,39874927699566E-07;100 nA
-0,150146484375;285,632752278847;7,366943359375E-09;-0,14959716796875;7;557;1,38527788221836E-07;-1,39874927699566E-07;100 nA
-0,10009765625;286,133240277583;7,672119140625E-09;-0,099700927734375;7;558;1,38527788221836E-07;-1,39874927699566E-07;100 nA
-0,050048828125;286,633728276319;8,49609375E-09;-0,049896240234375;7;559;1,38527788221836E-07;-1,39874927699566E-07;100 nA
0;287,134216275056;9,527587890625E-09;0,0001373291015625;7;560;1,38527788221836E-07;-1,39874927699566E-07;100 nA
0,050048828125;287,634704273792;9,6923828125E-09;0,05010986328125;8;561;1,37912258505821E-07;-1,39798559248447E-07;100 nA
0,10009765625;288,135192272529;7,708740234375E-09;0,100006103515625;8;562;1,37912258505821E-07;-1,39798559248447E-07;100 nA
0,150146484375;288,635680271265;7,611083984375E-09;0,150054931640625;8;563;1,37912258505821E-07;-1,39798559248447E-07;100 nA
0,2001953125;289,136168270001;7,916259765625E-09;0,200042724609375;8;564;1,37912258505821E-07;-1,39798559248447E-07;100 nA
0,250244140625;289,636656268738;8,380126953125E-09;0,250030517578125;8;565;1,37912258505821E-07;-1,39798559248447E-07;100 nA
0,30029296875;290,137144267474;8,673095703125E-09;0,300048828125;8;566;1,37912258505821E-07;-1,39798559248447E-07;100 nA
0,350341796875;290,637632266211;9,0087890625E-09;0,350067138671875;8;567;1,37912258505821E-07;-1,39798559248447E-07;100 nA
0,400390625;291,138120264947;9,2498779296875E-09;0,400054931640625;8;568;1,37912258505821E-07;-1,39798559248447E-07;100 nA
0,450439453125;291,638608263683;9,4818115234375E-09;0,449981689453125;8;569;1,37912258505821E-07;-1,39798559248447E-07;100 nA
0,50048828125;292,13909626242;9,87548828125E-09;0,50006103515625;8;570;1,37912258505821E-07;-1,39798559248447E-07;100 nA
0,550537109375;292,639584261156;1,00799560546875E-08;0,550048828125;8;571;1,37912258505821E-07;-1,39798559248447E-07;100 nA
0,6005859375;293,140072259892;1,016845703125E-08;0,60003662109375;8;572;1,37912258505821E-07;-1,39798559248447E-07;100 nA
0,650634765625;293,640560258629;1,01531982421875E-08;0,649993896484375;8;573;1,37912258505821E-07;-1,39798559248447E-07;100 nA
0,70068359375;294,141048257365;1,00799560546875E-08;0,699920654296875;8;574;1,37912258505821E-07;-1,39798559248447E-07;100 nA
0,750732421875;294,641536256102;9,9395751953125E-09;0,74981689453125;8;575;1,37912258505821E-07;-1,39798559248447E-07;100 nA
0,80078125;295,142024254838;9,92431640625E-09;0,799560546875;8;576;1,37912258505821E-07;-1,39798559248447E-07;100 nA
0,850830078125;295,642512253574;9,8846435546875E-09;0,8502197265625;8;577;1,37912258505821E-07;-1,39798559248447E-07;100 nA
0,90087890625;296,143000252311;9,9365234375E-09;0,89996337890625;8;578;1,37912258505821E-07;-1,39798559248447E-07;100 nA
0,950927734375;296,643488251047;9,9578857421875E-09;0,95001220703125;8;579;1,37912258505821E-07;-1,39798559248447E-07;100 nA
1,0009765625;297,143976249784;1,01043701171875E-08;1,00006103515625;8;580;1,37912258505821E-07;-1,39798559248447E-07;100 nA
0,950927734375;297,64446424852;6,75048828125E-09;0,94970703125;8;581;1,37912258505821E-07;-1,39798559248447E-07;100 nA
0,90087890625;298,144952247256;4,8065185546875E-09;0,899658203125;8;582;1,37912258505821E-07;-1,39798559248447E-07;100 nA
0,850830078125;298,645440245993;3,5003662109375E-09;0,849609375;8;583;1,37912258505821E-07;-1,39798559248447E-07;100 nA
0,80078125;299,145928244729;2,532958984375E-09;0,799560546875;8;584;1,37912258505821E-07;-1,39798559248447E-07;100 nA
0,750732421875;299,646416243466;1,7822265625E-09;0,749847412109375;8;585;1,37912258505821E-07;-1,39798559248447E-07;100 nA
0,70068359375;300,146904242202;1,18408203125E-09;0,699981689453125;8;586;1,37912258505821E-07;-1,39798559248447E-07;100 nA
0,650634765625;300,647392240938;5,55419921875E-10;0,65008544921875;8;587;1,37912258505821E-07;-1,39798559248447E-07;100 nA
0,6005859375;301,147880239675;-2,777099609375E-10;0,60009765625;8;588;1,37912258505821E-07;-1,39798559248447E-07;100 nA
0,550537109375;301,648368238411;-9,3994140625E-10;0,550140380859375;8;589;1,37912258505821E-07;-1,39798559248447E-07;100 nA
0,50048828125;302,148856237147;-1,409912109375E-09;0,500091552734375;8;590;1,37912258505821E-07;-1,39798559248447E-07;100 nA
0,450439453125;302,649344235884;-2,2979736328125E-09;0,450103759765625;8;591;1,37912258505821E-07;-1,39798559248447E-07;100 nA
0,400390625;303,14983223462;-2,850341796875E-09;0,400115966796875;8;592;1,37912258505821E-07;-1,39798559248447E-07;100 nA
0,350341796875;303,650320233357;-3,607177734375E-09;0,350128173828125;8;593;1,37912258505821E-07;-1,39798559248447E-07;100 nA
0,30029296875;304,150808232093;-4,388427734375E-09;0,300140380859375;8;594;1,37912258505821E-07;-1,39798559248447E-07;100 nA
0,250244140625;304,651296230829;-5,1910400390625E-09;0,250091552734375;8;595;1,37912258505821E-07;-1,39798559248447E-07;100 nA
0,2001953125;305,151784229566;-5,89599609375E-09;0,200103759765625;8;596;1,37912258505821E-07;-1,39798559248447E-07;100 nA
0,150146484375;305,652272228302;-6,5155029296875E-09;0,15008544921875;8;597;1,37912258505821E-07;-1,39798559248447E-07;100 nA
0,10009765625;306,152760227039;-7,1502685546875E-09;0,100067138671875;8;598;1,37912258505821E-07;-1,39798559248447E-07;100 nA
0,050048828125;306,653248225775;-7,9925537109375E-09;0,050079345703125;8;599;1,37912258505821E-07;-1,39798559248447E-07;100 nA
0;307,153736224511;-9,4268798828125E-09;0,000112915039062494;8;600;1,37912258505821E-07;-1,39798559248447E-07;100 nA
-0,050048828125;307,654224223248;-1,2359619140625E-08;-0,0498046875;8;601;1,37912258505821E-07;-1,39798559248447E-07;100 nA
-0,10009765625;308,154712221984;-1,61773681640625E-08;-0,099700927734375;8;602;1,37912258505821E-07;-1,39798559248447E-07;100 nA
-0,150146484375;308,655200220721;-1,7352294921875E-08;-0,149566650390625;8;603;1,37912258505821E-07;-1,39798559248447E-07;100 nA
-0,2001953125;309,155688219457;-1,24267578125E-08;-0,199493408203125;8;604;1,37912258505821E-07;-1,39798559248447E-07;100 nA
-0,250244140625;309,656176218193;-8,7371826171875E-09;-0,249359130859375;8;605;1,37912258505821E-07;-1,39798559248447E-07;100 nA
-0,30029296875;310,15666421693;-8,5174560546875E-09;-0,299285888671875;8;606;1,37912258505821E-07;-1,39798559248447E-07;100 nA
-0,350341796875;310,657152215666;-8,5479736328125E-09;-0,349212646484375;8;607;1,37912258505821E-07;-1,39798559248447E-07;100 nA
-0,400390625;311,157640214402;-8,4381103515625E-09;-0,39910888671875;8;608;1,37912258505821E-07;-1,39798559248447E-07;100 nA
-0,450439453125;311,658128213139;-8,4869384765625E-09;-0,448974609375;8;609;1,37912258505821E-07;-1,39798559248447E-07;100 nA
-0,50048828125;312,158616211875;-8,4442138671875E-09;-0,498779296875;8;610;1,37912258505821E-07;-1,39798559248447E-07;100 nA
-0,550537109375;312,659104210612;-8,538818359375E-09;-0,548736572265625;8;611;1,37912258505821E-07;-1,39798559248447E-07;100 nA
-0,6005859375;313,159592209348;-8,6395263671875E-09;-0,598663330078125;8;612;1,37912258505821E-07;-1,39798559248447E-07;100 nA
-0,650634765625;313,660080208084;-8,7249755859375E-09;-0,6485595703125;8;613;1,37912258505821E-07;-1,39798559248447E-07;100 nA
-0,70068359375;314,160568206821;-9,033203125E-09;-0,698516845703125;8;614;1,37912258505821E-07;-1,39798559248447E-07;100 nA
-0,750732421875;314,661056205557;-8,880615234375E-09;-0,748504638671875;8;615;1,37912258505821E-07;-1,39798559248447E-07;100 nA
-0,80078125;315,161544204294;-9,1033935546875E-09;-0,79864501953125;8;616;1,37912258505821E-07;-1,39798559248447E-07;100 nA
-0,850830078125;315,66203220303;-9,234619140625E-09;-0,848388671875;8;617;1,37912258505821E-07;-1,39798559248447E-07;100 nA
-0,90087890625;316,162520201766;-9,503173828125E-09;-0,89813232421875;8;618;1,37912258505821E-07;-1,39798559248447E-07;100 nA
-0,950927734375;316,663008200503;-9,832763671875E-09;-0,948486328125;8;619;1,37912258505821E-07;-1,39798559248447E-07;100 nA
-1,0009765625;317,163496199239;-1,0205078125E-08;-0,99884033203125;8;620;1,37912258505821E-07;-1,39798559248447E-07;100 nA
-0,950927734375;317,663984197976;-6,87255859375E-09;-0,94879150390625;8;621;1,37912258505821E-07;-1,39798559248447E-07;100 nA
-0,90087890625;318,164472196712;-4,9346923828125E-09;-0,8990478515625;8;622;1,37912258505821E-07;-1,39798559248447E-07;100 nA
-0,850830078125;318,664960195448;-3,4576416015625E-09;-0,84869384765625;8;623;1,37912258505821E-07;-1,39798559248447E-07;100 nA
-0,80078125;319,165448194185;-2,3773193359375E-09;-0,79833984375;8;624;1,37912258505821E-07;-1,39798559248447E-07;100 nA
-0,750732421875;319,665936192921;-1,5625E-09;-0,748565673828125;8;625;1,37912258505821E-07;-1,39798559248447E-07;100 nA
-0,70068359375;320,166424191657;-8,48388671875E-10;-0,698486328125;8;626;1,37912258505821E-07;-1,39798559248447E-07;100 nA
-0,650634765625;320,666912190394;-1,434326171875E-10;-0,64849853515625;8;627;1,37912258505821E-07;-1,39798559248447E-07;100 nA
-0,6005859375;321,16740018913;7,171630859375E-10;-0,598602294921875;8;628;1,37912258505821E-07;-1,39798559248447E-07;100 nA
-0,550537109375;321,667888187867;1,141357421875E-09;-0,5487060546875;8;629;1,37912258505821E-07;-1,39798559248447E-07;100 nA
-0,50048828125;322,168376186603;1,6754150390625E-09;-0,49884033203125;8;630;1,37912258505821E-07;-1,39798559248447E-07;100 nA
-0,450439453125;322,668864185339;2,83203125E-09;-0,448944091796875;8;631;1,37912258505821E-07;-1,39798559248447E-07;100 nA
-0,400390625;323,169352184076;3,5125732421875E-09;-0,399017333984375;8;632;1,37912258505821E-07;-1,39798559248447E-07;100 nA
-0,350341796875;323,669840182812;4,608154296875E-09;-0,3492431640625;8;633;1,37912258505821E-07;-1,39798559248447E-07;100 nA
-0,30029296875;324,170328181549;5,74951171875E-09;-0,29925537109375;8;634;1,37912258505821E-07;-1,39798559248447E-07;100 nA
-0,250244140625;324,670816180285;6,475830078125E-09;-0,2493896484375;8;635;1,37912258505821E-07;-1,39798559248447E-07;100 nA
-0,2001953125;325,171304179021;6,9976806640625E-09;-0,199493408203125;8;636;1,37912258505821E-07;-1,39798559248447E-07;100 nA
-0,150146484375;325,671792177758;7,2967529296875E-09;-0,14959716796875;8;637;1,37912258505821E-07;-1,39798559248447E-07;100 nA
-0,10009765625;326,172280176494;7,659912109375E-09;-0,099700927734375;8;638;1,37912258505821E-07;-1,39798559248447E-07;100 nA
-0,050048828125;326,672768175231;8,3770751953125E-09;-0,049896240234375;8;639;1,37912258505821E-07;-1,39798559248447E-07;100 nA
0;327,173256173967;9,5733642578125E-09;0,000115966796875006;8;640;1,37912258505821E-07;-1,39798559248447E-07;100 nA
0,050048828125;327,673744172703;9,7320556640625E-09;0,050048828125;9;641;1,37159265577793E-07;-1,39076113700867E-07;100 nA
0,10009765625;328,17423217144;7,6873779296875E-09;0,10003662109375;9;642;1,37159265577793E-07;-1,39076113700867E-07;100 nA
0,150146484375;328,674720170176;7,513427734375E-09;0,1500244140625;9;643;1,37159265577793E-07;-1,39076113700867E-07;100 nA
0,2001953125;329,175208168912;7,8399658203125E-09;0,200042724609375;9;644;1,37159265577793E-07;-1,39076113700867E-07;100 nA
0,250244140625;329,675696167649;8,19091796875E-09;0,25;9;645;1,37159265577793E-07;-1,39076113700867E-07;100 nA
0,30029296875;330,176184166385;8,575439453125E-09;0,29998779296875;9;646;1,37159265577793E-07;-1,39076113700867E-07;100 nA
0,350341796875;330,676672165122;8,9385986328125E-09;0,350006103515625;9;647;1,37159265577793E-07;-1,39076113700867E-07;100 nA
0,400390625;331,177160163858;9,24072265625E-09;0,4000244140625;9;648;1,37159265577793E-07;-1,39076113700867E-07;100 nA
0,450439453125;331,677648162594;9,5855712890625E-09;0,449981689453125;9;649;1,37159265577793E-07;-1,39076113700867E-07;100 nA
0,50048828125;332,178136161331;9,85107421875E-09;0,5;9;650;1,37159265577793E-07;-1,39076113700867E-07;100 nA
0,550537109375;332,678624160067;1,00982666015625E-08;0,550018310546875;9;651;1,37159265577793E-07;-1,39076113700867E-07;100 nA
0,6005859375;333,179112158804;1,01806640625E-08;0,60003662109375;9;652;1,37159265577793E-07;-1,39076113700867E-07;100 nA
0,650634765625;333,67960015754;1,0174560546875E-08;0,649993896484375;9;653;1,37159265577793E-07;-1,39076113700867E-07;100 nA
0,70068359375;334,180088156276;1,0101318359375E-08;0,69989013671875;9;654;1,37159265577793E-07;-1,39076113700867E-07;100 nA
0,750732421875;334,680576155013;9,991455078125E-09;0,74981689453125;9;655;1,37159265577793E-07;-1,39076113700867E-07;100 nA
0,80078125;335,181064153749;9,979248046875E-09;0,799560546875;9;656;1,37159265577793E-07;-1,39076113700867E-07;100 nA
0,850830078125;335,681552152486;9,869384765625E-09;0,849609375;9;657;1,37159265577793E-07;-1,39076113700867E-07;100 nA
0,90087890625;336,182040151222;9,87548828125E-09;0,89996337890625;9;658;1,37159265577793E-07;-1,39076113700867E-07;100 nA
0,950927734375;336,682528149958;9,89990234375E-09;0,9503173828125;9;659;1,37159265577793E-07;-1,39076113700867E-07;100 nA
1,0009765625;337,183016148695;1,01654052734375E-08;0,999755859375;9;660;1,37159265577793E-07;-1,39076113700867E-07;100 nA
0,950927734375;337,683504147431;6,732177734375E-09;0,94970703125;9;661;1,37159265577793E-07;-1,39076113700867E-07;100 nA
0,90087890625;338,183992146168;4,7943115234375E-09;0,899658203125;9;662;1,37159265577793E-07;-1,39076113700867E-07;100 nA
0,850830078125;338,684480144904;3,5430908203125E-09;0,849609375;9;663;1,37159265577793E-07;-1,39076113700867E-07;100 nA
0,80078125;339,18496814364;2,5970458984375E-09;0,79986572265625;9;664;1,37159265577793E-07;-1,39076113700867E-07;100 nA
0,750732421875;339,685456142377;1,74560546875E-09;0,7498779296875;9;665;1,37159265577793E-07;-1,39076113700867E-07;100 nA
0,70068359375;340,185944141113;1,031494140625E-09;0,69989013671875;9;666;1,37159265577793E-07;-1,39076113700867E-07;100 nA
0,650634765625;340,686432139849;3,90625E-10;0,650054931640625;9;667;1,37159265577793E-07;-1,39076113700867E-07;100 nA
0,6005859375;341,186920138586;-1,64794921875E-10;0,60009765625;9;668;1,37159265577793E-07;-1,39076113700867E-07;100 nA
0,550537109375;341,687408137322;-8,1787109375E-10;0,550140380859375;9;669;1,37159265577793E-07;-1,39076113700867E-07;100 nA
0,50048828125;342,187896136059;-1,495361328125E-09;0,500091552734375;9;670;1,37159265577793E-07;-1,39076113700867E-07;100 nA
0,450439453125;342,688384134795;-2,1484375E-09;0,4500732421875;9;671;1,37159265577793E-07;-1,39076113700867E-07;100 nA
0,400390625;343,188872133531;-2,81982421875E-09;0,400115966796875;9;672;1,37159265577793E-07;-1,39076113700867E-07;100 nA
0,350341796875;343,689360132268;-3,5980224609375E-09;0,350128173828125;9;673;1,37159265577793E-07;-1,39076113700867E-07;100 nA
0,30029296875;344,189848131004;-4,3670654296875E-09;0,30010986328125;9;674;1,37159265577793E-07;-1,39076113700867E-07;100 nA
0,250244140625;344,690336129741;-5,1971435546875E-09;0,25006103515625;9;675;1,37159265577793E-07;-1,39076113700867E-07;100 nA
0,2001953125;345,190824128477;-5,889892578125E-09;0,200042724609375;9;676;1,37159265577793E-07;-1,39076113700867E-07;100 nA
0,150146484375;345,691312127213;-6,53076171875E-09;0,150054931640625;9;677;1,37159265577793E-07;-1,39076113700867E-07;100 nA
0,10009765625;346,19180012595;-7,220458984375E-09;0,10003662109375;9;678;1,37159265577793E-07;-1,39076113700867E-07;100 nA
0,050048828125;346,692288124686;-7,9925537109375E-09;0,05010986328125;9;679;1,37159265577793E-07;-1,39076113700867E-07;100 nA
0;347,192776123423;-9,454345703125E-09;0,000103759765625003;9;680;1,37159265577793E-07;-1,39076113700867E-07;100 nA
-0,050048828125;347,693264122159;-1,24237060546875E-08;-0,0498046875;9;681;1,37159265577793E-07;-1,39076113700867E-07;100 nA
-0,10009765625;348,193752120895;-1,6156005859375E-08;-0,099761962890625;9;682;1,37159265577793E-07;-1,39076113700867E-07;100 nA
-0,150146484375;348,694240119632;-1,71722412109375E-08;-0,1495361328125;9;683;1,37159265577793E-07;-1,39076113700867E-07;100 nA
-0,2001953125;349,194728118368;-1,2139892578125E-08;-0,199462890625;9;684;1,37159265577793E-07;-1,39076113700867E-07;100 nA
-0,250244140625;349,695216117104;-8,673095703125E-09;-0,249359130859375;9;685;1,37159265577793E-07;-1,39076113700867E-07;100 nA
-0,30029296875;350,195704115841;-8,4320068359375E-09;-0,29925537109375;9;686;1,37159265577793E-07;-1,39076113700867E-07;100 nA
-0,350341796875;350,696192114577;-8,21533203125E-09;-0,349151611328125;9;687;1,37159265577793E-07;-1,39076113700867E-07;100 nA
-0,400390625;351,196680113314;-8,3740234375E-09;-0,399078369140625;9;688;1,37159265577793E-07;-1,39076113700867E-07;100 nA
-0,450439453125;351,69716811205;-8,33740234375E-09;-0,448974609375;9;689;1,37159265577793E-07;-1,39076113700867E-07;100 nA
-0,50048828125;352,197656110786;-8,38623046875E-09;-0,498748779296875;9;690;1,37159265577793E-07;-1,39076113700867E-07;100 nA
-0,550537109375;352,698144109523;-8,502197265625E-09;-0,548736572265625;9;691;1,37159265577793E-07;-1,39076113700867E-07;100 nA
-0,6005859375;353,198632108259;-8,551025390625E-09;-0,5986328125;9;692;1,37159265577793E-07;-1,39076113700867E-07;100 nA
-0,650634765625;353,699120106996;-8,6669921875E-09;-0,648529052734375;9;693;1,37159265577793E-07;-1,39076113700867E-07;100 nA
-0,70068359375;354,199608105732;-8,8165283203125E-09;-0,698516845703125;9;694;1,37159265577793E-07;-1,39076113700867E-07;100 nA
-0,750732421875;354,700096104468;-8,941650390625E-09;-0,748504638671875;9;695;1,37159265577793E-07;-1,39076113700867E-07;100 nA
-0,80078125;355,200584103205;-9,08203125E-09;-0,79864501953125;9;696;1,37159265577793E-07;-1,39076113700867E-07;100 nA
-0,850830078125;355,701072101941;-9,2132568359375E-09;-0,84869384765625;9;697;1,37159265577793E-07;-1,39076113700867E-07;100 nA
-0,90087890625;356,201560100678;-9,4329833984375E-09;-0,89935302734375;9;698;1,37159265577793E-07;-1,39076113700867E-07;100 nA
-0,950927734375;356,702048099414;-9,796142578125E-09;-0,948486328125;9;699;1,37159265577793E-07;-1,39076113700867E-07;100 nA
-1,0009765625;357,20253609815;-1,021728515625E-08;-0,99884033203125;9;700;1,37159265577793E-07;-1,39076113700867E-07;100 nA
-0,950927734375;357,703024096887;-6,82373046875E-09;-0,948486328125;9;701;1,37159265577793E-07;-1,39076113700867E-07;100 nA
-0,90087890625;358,203512095623;-4,9530029296875E-09;-0,8984375;9;702;1,37159265577793E-07;-1,39076113700867E-07;100 nA
-0,850830078125;358,704000094359;-3,5980224609375E-09;-0,848388671875;9;703;1,37159265577793E-07;-1,39076113700867E-07;100 nA
-0,80078125;359,204488093096;-2,569580078125E-09;-0,79864501953125;9;704;1,37159265577793E-07;-1,39076113700867E-07;100 nA
-0,750732421875;359,704976091832;-1,69677734375E-09;-0,748565673828125;9;705;1,37159265577793E-07;-1,39076113700867E-07;100 nA
-0,70068359375;360,205464090569;-9,09423828125E-10;-0,6986083984375;9;706;1,37159265577793E-07;-1,39076113700867E-07;100 nA
-0,650634765625;360,705952089305;-1,03759765625E-10;-0,6485595703125;9;707;1,37159265577793E-07;-1,39076113700867E-07;100 nA
-0,6005859375;361,206440088041;4,57763671875E-10;-0,598663330078125;9;708;1,37159265577793E-07;-1,39076113700867E-07;100 nA
-0,550537109375;361,706928086778;1,129150390625E-09;-0,54876708984375;9;709;1,37159265577793E-07;-1,39076113700867E-07;100 nA
-0,50048828125;362,207416085514;1,8707275390625E-09;-0,498870849609375;9;710;1,37159265577793E-07;-1,39076113700867E-07;100 nA
-0,450439453125;362,707904084251;2,545166015625E-09;-0,44891357421875;9;711;1,37159265577793E-07;-1,39076113700867E-07;100 nA
-0,400390625;363,208392082987;3,3782958984375E-09;-0,399139404296875;9;712;1,37159265577793E-07;-1,39076113700867E-07;100 nA
-0,350341796875;363,708880081723;4,33349609375E-09;-0,3492431640625;9;713;1,37159265577793E-07;-1,39076113700867E-07;100 nA
-0,30029296875;364,20936808046;5,6396484375E-09;-0,299285888671875;9;714;1,37159265577793E-07;-1,39076113700867E-07;100 nA
-0,250244140625;364,709856079196;6,5582275390625E-09;-0,249359130859375;9;715;1,37159265577793E-07;-1,39076113700867E-07;100 nA
-0,2001953125;365,210344077933;6,8756103515625E-09;-0,199493408203125;9;716;1,37159265577793E-07;-1,39076113700867E-07;100 nA
-0,150146484375;365,710832076669;7,2906494140625E-09;-0,149627685546875;9;717;1,37159265577793E-07;-1,39076113700867E-07;100 nA
-0,10009765625;366,211320075405;7,562255859375E-09;-0,099700927734375;9;718;1,37159265577793E-07;-1,39076113700867E-07;100 nA
-0,050048828125;366,711808074142;8,4991455078125E-09;-0,049835205078125;9;719;1,37159265577793E-07;-1,39076113700867E-07;100 nA
0;367,212296072878;9,5855712890625E-09;0,000125122070312497;9;720;1,37159265577793E-07;-1,39076113700867E-07;100 nA
0,050048828125;367,712784071614;9,7137451171875E-09;0,05010986328125;10;721;1,37449465692043E-07;-1,38596519827843E-07;100 nA
0,10009765625;368,213272070351;7,666015625E-09;0,10009765625;10;722;1,37449465692043E-07;-1,38596519827843E-07;100 nA
0,150146484375;368,713760069087;7,65380859375E-09;0,15008544921875;10;723;1,37449465692043E-07;-1,38596519827843E-07;100 nA
0,2001953125;369,214248067824;8,0413818359375E-09;0,200103759765625;10;724;1,37449465692043E-07;-1,38596519827843E-07;100 nA
0,250244140625;369,71473606656;8,5052490234375E-09;0,2501220703125;10;725;1,37449465692043E-07;-1,38596519827843E-07;100 nA
0,30029296875;370,215224065296;8,721923828125E-09;0,300079345703125;10;726;1,37449465692043E-07;-1,38596519827843E-07;100 nA
0,350341796875;370,715712064033;8,9202880859375E-09;0,350128173828125;10;727;1,37449465692043E-07;-1,38596519827843E-07;100 nA
0,400390625;371,216200062769;9,3780517578125E-09;0,400115966796875;10;728;1,37449465692043E-07;-1,38596519827843E-07;100 nA
0,450439453125;371,716688061506;1,004638671875E-08;0,4500732421875;10;729;1,37449465692043E-07;-1,38596519827843E-07;100 nA
0,50048828125;372,217176060242;9,9029541015625E-09;0,500091552734375;10;730;1,37449465692043E-07;-1,38596519827843E-07;100 nA
0,550537109375;372,717664058978;1,0015869140625E-08;0,550018310546875;10;731;1,37449465692043E-07;-1,38596519827843E-07;100 nA
0,6005859375;373,218152057715;1,0198974609375E-08;0,60003662109375;10;732;1,37449465692043E-07;-1,38596519827843E-07;100 nA
0,650634765625;373,718640056451;1,009521484375E-08;0,6500244140625;10;733;1,37449465692043E-07;-1,38596519827843E-07;100 nA
0,70068359375;374,219128055188;1,00372314453125E-08;0,69989013671875;10;734;1,37449465692043E-07;-1,38596519827843E-07;100 nA
0,750732421875;374,719616053924;9,9395751953125E-09;0,749847412109375;10;735;1,37449465692043E-07;-1,38596519827843E-07;100 nA
0,80078125;375,22010405266;9,8175048828125E-09;0,799560546875;10;736;1,37449465692043E-07;-1,38596519827843E-07;100 nA
0,850830078125;375,720592051397;9,808349609375E-09;0,84991455078125;10;737;1,37449465692043E-07;-1,38596519827843E-07;100 nA
0,90087890625;376,221080050133;9,7015380859375E-09;0,89996337890625;10;738;1,37449465692043E-07;-1,38596519827843E-07;100 nA
0,950927734375;376,721568048869;9,735107421875E-09;0,94879150390625;10;739;1,37449465692043E-07;-1,38596519827843E-07;100 nA
1,0009765625;377,222056047606;9,881591796875E-09;0,999755859375;10;740;1,37449465692043E-07;-1,38596519827843E-07;100 nA
0,950927734375;377,722544046342;6,536865234375E-09;0,94940185546875;10;741;1,37449465692043E-07;-1,38596519827843E-07;100 nA
0,90087890625;378,223032045079;4,6295166015625E-09;0,89996337890625;10;742;1,37449465692043E-07;-1,38596519827843E-07;100 nA
0,850830078125;378,723520043815;3,466796875E-09;0,84991455078125;10;743;1,37449465692043E-07;-1,38596519827843E-07;100 nA
0,80078125;379,224008042551;2,44140625E-09;0,799560546875;10;744;1,37449465692043E-07;-1,38596519827843E-07;100 nA
0,750732421875;379,724496041288;1,666259765625E-09;0,749847412109375;10;745;1,37449465692043E-07;-1,38596519827843E-07;100 nA
0,70068359375;380,224984040024;1,3092041015625E-09;0,699920654296875;10;746;1,37449465692043E-07;-1,38596519827843E-07;100 nA
0,650634765625;380,725472038761;3,47900390625E-10;0,6500244140625;10;747;1,37449465692043E-07;-1,38596519827843E-07;100 nA
0,6005859375;381,225960037497;-4,82177734375E-10;0,600128173828125;10;748;1,37449465692043E-07;-1,38596519827843E-07;100 nA
0,550537109375;381,726448036233;-1,15966796875E-09;0,55010986328125;10;749;1,37449465692043E-07;-1,38596519827843E-07;100 nA
0,50048828125;382,22693603497;-1,4129638671875E-09;0,5001220703125;10;750;1,37449465692043E-07;-1,38596519827843E-07;100 nA
0,450439453125;382,727424033706;-2,08740234375E-09;0,45013427734375;10;751;1,37449465692043E-07;-1,38596519827843E-07;100 nA
0,400390625;383,227912032443;-2,8045654296875E-09;0,40008544921875;10;752;1,37449465692043E-07;-1,38596519827843E-07;100 nA
0,350341796875;383,728400031179;-3,4820556640625E-09;0,3502197265625;10;753;1,37449465692043E-07;-1,38596519827843E-07;100 nA
0,30029296875;384,228888029915;-4,1900634765625E-09;0,300140380859375;10;754;1,37449465692043E-07;-1,38596519827843E-07;100 nA
0,250244140625;384,729376028652;-5,0994873046875E-09;0,2501220703125;10;755;1,37449465692043E-07;-1,38596519827843E-07;100 nA
0,2001953125;385,229864027388;-5,82275390625E-09;0,200164794921875;10;756;1,37449465692043E-07;-1,38596519827843E-07;100 nA
0,150146484375;385,730352026124;-6,43310546875E-09;0,150115966796875;10;757;1,37449465692043E-07;-1,38596519827843E-07;100 nA
0,10009765625;386,230840024861;-7,0953369140625E-09;0,10009765625;10;758;1,37449465692043E-07;-1,38596519827843E-07;100 nA
0,050048828125;386,731328023597;-7,904052734375E-09;0,05010986328125;10;759;1,37449465692043E-07;-1,38596519827843E-07;100 nA
0;387,231816022334;-9,356689453125E-09;0,0001220703125;10;760;1,37449465692043E-07;-1,38596519827843E-07;100 nA
-0,050048828125;387,73230402107;-1,21795654296875E-08;-0,0497283935546875;10;761;1,37449465692043E-07;-1,38596519827843E-07;100 nA
-0,10009765625;388,232792019806;-1,5972900390625E-08;-0,09967041015625;10;762;1,37449465692043E-07;-1,38596519827843E-07;100 nA
-0,150146484375;388,733280018543;-1,70166015625E-08;-0,149566650390625;10;763;1,37449465692043E-07;-1,38596519827843E-07;100 nA
-0,2001953125;389,233768017279;-1,1724853515625E-08;-0,19940185546875;10;764;1,37449465692043E-07;-1,38596519827843E-07;100 nA
-0,250244140625;389,734256016016;-8,477783203125E-09;-0,249359130859375;10;765;1,37449465692043E-07;-1,38596519827843E-07;100 nA
-0,30029296875;390,234744014752;-8,3892822265625E-09;-0,29925537109375;10;766;1,37449465692043E-07;-1,38596519827843E-07;100 nA
-0,350341796875;390,735232013488;-8,4075927734375E-09;-0,349151611328125;10;767;1,37449465692043E-07;-1,38596519827843E-07;100 nA
-0,400390625;391,235720012225;-8,3770751953125E-09;-0,3990478515625;10;768;1,37449465692043E-07;-1,38596519827843E-07;100 nA
-0,450439453125;391,736208010961;-8,4259033203125E-09;-0,448944091796875;10;769;1,37449465692043E-07;-1,38596519827843E-07;100 nA
-0,50048828125;392,236696009698;-8,5357666015625E-09;-0,49884033203125;10;770;1,37449465692043E-07;-1,38596519827843E-07;100 nA
-0,550537109375;392,737184008434;-8,624267578125E-09;-0,54876708984375;10;771;1,37449465692043E-07;-1,38596519827843E-07;100 nA
-0,6005859375;393,23767200717;-8,709716796875E-09;-0,5986328125;10;772;1,37449465692043E-07;-1,38596519827843E-07;100 nA
-0,650634765625;393,738160005907;-8,880615234375E-09;-0,648529052734375;10;773;1,37449465692043E-07;-1,38596519827843E-07;100 nA
-0,70068359375;394,238648004643;-8,87451171875E-09;-0,6986083984375;10;774;1,37449465692043E-07;-1,38596519827843E-07;100 nA
-0,750732421875;394,739136003379;-9,002685546875E-09;-0,748565673828125;10;775;1,37449465692043E-07;-1,38596519827843E-07;100 nA
-0,80078125;395,239624002116;-9,161376953125E-09;-0,79864501953125;10;776;1,37449465692043E-07;-1,38596519827843E-07;100 nA
-0,850830078125;395,740112000852;-9,33837890625E-09;-0,84869384765625;10;777;1,37449465692043E-07;-1,38596519827843E-07;100 nA
-0,90087890625;396,240599999589;-9,4482421875E-09;-0,8990478515625;10;778;1,37449465692043E-07;-1,38596519827843E-07;100 nA
-0,950927734375;396,741087998325;-9,87548828125E-09;-0,948486328125;10;779;1,37449465692043E-07;-1,38596519827843E-07;100 nA
-1,0009765625;397,241575997061;-1,01409912109375E-08;-0,9991455078125;10;780;1,37449465692043E-07;-1,38596519827843E-07;100 nA
-0,950927734375;397,742063995798;-6,817626953125E-09;-0,948486328125;10;781;1,37449465692043E-07;-1,38596519827843E-07;100 nA
-0,90087890625;398,242551994534;-4,8980712890625E-09;-0,8990478515625;10;782;1,37449465692043E-07;-1,38596519827843E-07;100 nA
-0,850830078125;398,743039993271;-3,5675048828125E-09;-0,84869384765625;10;783;1,37449465692043E-07;-1,38596519827843E-07;100 nA
-0,80078125;399,243527992007;-2,4383544921875E-09;-0,79925537109375;10;784;1,37449465692043E-07;-1,38596519827843E-07;100 nA
-0,750732421875;399,744015990743;-1,4892578125E-09;-0,74853515625;10;785;1,37449465692043E-07;-1,38596519827843E-07;100 nA
-0,70068359375;400,24450398948;-7,32421875E-10;-0,698516845703125;10;786;1,37449465692043E-07;-1,38596519827843E-07;100 nA
-0,650634765625;400,744991988216;-8,544921875E-11;-0,648529052734375;10;787;1,37449465692043E-07;-1,38596519827843E-07;100 nA
-0,6005859375;401,245479986953;5,401611328125E-10;-0,598663330078125;10;788;1,37449465692043E-07;-1,38596519827843E-07;100 nA
-0,550537109375;401,745967985689;1,33056640625E-09;-0,548736572265625;10;789;1,37449465692043E-07;-1,38596519827843E-07;100 nA
-0,50048828125;402,246455984425;2,142333984375E-09;-0,498809814453125;10;790;1,37449465692043E-07;-1,38596519827843E-07;100 nA
-0,450439453125;402,746943983162;2,587890625E-09;-0,448944091796875;10;791;1,37449465692043E-07;-1,38596519827843E-07;100 nA
-0,400390625;403,247431981898;3,41796875E-09;-0,399078369140625;10;792;1,37449465692043E-07;-1,38596519827843E-07;100 nA
-0,350341796875;403,747919980634;4,5135498046875E-09;-0,349151611328125;10;793;1,37449465692043E-07;-1,38596519827843E-07;100 nA
-0,30029296875;404,248407979371;5,731201171875E-09;-0,299224853515625;10;794;1,37449465692043E-07;-1,38596519827843E-07;100 nA
-0,250244140625;404,748895978107;6,5338134765625E-09;-0,249298095703125;10;795;1,37449465692043E-07;-1,38596519827843E-07;100 nA
-0,2001953125;405,249383976844;6,951904296875E-09;-0,199493408203125;10;796;1,37449465692043E-07;-1,38596519827843E-07;100 nA
-0,150146484375;405,74987197558;7,275390625E-09;-0,149566650390625;10;797;1,37449465692043E-07;-1,38596519827843E-07;100 nA
-0,10009765625;406,250359974316;7,6568603515625E-09;-0,09967041015625;10;798;1,37449465692043E-07;-1,38596519827843E-07;100 nA
-0,050048828125;406,750847973053;8,3404541015625E-09;-0,0498046875;10;799;1,37449465692043E-07;-1,38596519827843E-07;100 nA
0;407,251335971789;9,429931640625E-09;9,1552734375E-05;10;800;1,37449465692043E-07;-1,38596519827843E-07;100 nA
