Potential applied (V);Time (s);WE(1).Current (A);WE(1).Potential (V);Scan;Index;Q+;Q-;Current range
0,050048828125;7,35060298144151;9,002685546875E-10;0,050079345703125;1;1;6,88415765762329E-08;-8,57403874397278E-08;100 nA
0,10009765625;7,8510909801779;1,3580322265625E-09;0,100067138671875;1;2;6,88415765762329E-08;-8,57403874397278E-08;100 nA
0,150146484375;8,35157897891429;1,690673828125E-09;0,1500244140625;1;3;6,88415765762329E-08;-8,57403874397278E-08;100 nA
0,2001953125;8,85206697765068;2,1270751953125E-09;0,20001220703125;1;4;6,88415765762329E-08;-8,57403874397278E-08;100 nA
0,250244140625;9,35255497638707;2,838134765625E-09;0,250091552734375;1;5;6,88415765762329E-08;-8,57403874397278E-08;100 nA
0,30029296875;9,85304297512346;3,125E-09;0,300079345703125;1;6;6,88415765762329E-08;-8,57403874397278E-08;100 nA
0,350341796875;10,3535309738598;3,5369873046875E-09;0,35009765625;1;7;6,88415765762329E-08;-8,57403874397278E-08;100 nA
0,400390625;10,8540189725962;3,9764404296875E-09;0,400115966796875;1;8;6,88415765762329E-08;-8,57403874397278E-08;100 nA
0,450439453125;11,3545069713326;4,3792724609375E-09;0,4500732421875;1;9;6,88415765762329E-08;-8,57403874397278E-08;100 nA
0,50048828125;11,854994970069;4,6600341796875E-09;0,50006103515625;1;10;6,88415765762329E-08;-8,57403874397278E-08;100 nA
0,550537109375;12,3554829688054;4,9468994140625E-09;0,550048828125;1;11;6,88415765762329E-08;-8,57403874397278E-08;100 nA
0,6005859375;12,8559709675418;5,157470703125E-09;0,600006103515625;1;12;6,88415765762329E-08;-8,57403874397278E-08;100 nA
0,650634765625;13,3564589662782;5,2032470703125E-09;0,6500244140625;1;13;6,88415765762329E-08;-8,57403874397278E-08;100 nA
0,70068359375;13,8569469650146;5,18798828125E-09;0,69989013671875;1;14;6,88415765762329E-08;-8,57403874397278E-08;100 nA
0,750732421875;14,357434963751;5,2734375E-09;0,749755859375;1;15;6,88415765762329E-08;-8,57403874397278E-08;100 nA
0,80078125;14,8579229624874;5,316162109375E-09;0,799560546875;1;16;6,88415765762329E-08;-8,57403874397278E-08;100 nA
0,850830078125;15,3584109612237;5,2398681640625E-09;0,849609375;1;17;6,88415765762329E-08;-8,57403874397278E-08;100 nA
0,90087890625;15,8588989599601;5,2154541015625E-09;0,899658203125;1;18;6,88415765762329E-08;-8,57403874397278E-08;100 nA
0,950927734375;16,3593869586965;5,1788330078125E-09;0,94940185546875;1;19;6,88415765762329E-08;-8,57403874397278E-08;100 nA
1,0009765625;16,8598749574329;5,2978515625E-09;0,99945068359375;1;20;6,88415765762329E-08;-8,57403874397278E-08;100 nA
0,950927734375;17,3603629561693;3,1890869140625E-09;0,95001220703125;1;21;6,88415765762329E-08;-8,57403874397278E-08;100 nA
0,90087890625;17,8608509549057;2,11181640625E-09;0,899658203125;1;22;6,88415765762329E-08;-8,57403874397278E-08;100 nA
0,850830078125;18,3613389536421;1,483154296875E-09;0,8502197265625;1;23;6,88415765762329E-08;-8,57403874397278E-08;100 nA
0,80078125;18,8618269523785;9,796142578125E-10;0,79986572265625;1;24;6,88415765762329E-08;-8,57403874397278E-08;100 nA
0,750732421875;19,3623149511149;4,913330078125E-10;0,74981689453125;1;25;6,88415765762329E-08;-8,57403874397278E-08;100 nA
0,70068359375;19,8628029498512;2,86865234375E-10;0,69989013671875;1;26;6,88415765762329E-08;-8,57403874397278E-08;100 nA
0,650634765625;20,3632909485876;-9,1552734375E-12;0,64996337890625;1;27;6,88415765762329E-08;-8,57403874397278E-08;100 nA
0,6005859375;20,863778947324;-3,173828125E-10;0,600128173828125;1;28;6,88415765762329E-08;-8,57403874397278E-08;100 nA
0,550537109375;21,3642669460604;-6,8359375E-10;0,55010986328125;1;29;6,88415765762329E-08;-8,57403874397278E-08;100 nA
0,50048828125;21,8647549447968;-1,0589599609375E-09;0,500152587890625;1;30;6,88415765762329E-08;-8,57403874397278E-08;100 nA
0,450439453125;22,3652429435332;-1,5167236328125E-09;0,450164794921875;1;31;6,88415765762329E-08;-8,57403874397278E-08;100 nA
0,400390625;22,8657309422696;-1,971435546875E-09;0,400115966796875;1;32;6,88415765762329E-08;-8,57403874397278E-08;100 nA
0,350341796875;23,366218941006;-2,35595703125E-09;0,35015869140625;1;33;6,88415765762329E-08;-8,57403874397278E-08;100 nA
0,30029296875;23,8667069397424;-2,7679443359375E-09;0,30010986328125;1;34;6,88415765762329E-08;-8,57403874397278E-08;100 nA
0,250244140625;24,3671949384787;-3,3203125E-09;0,2501220703125;1;35;6,88415765762329E-08;-8,57403874397278E-08;100 nA
0,2001953125;24,8676829372151;-3,7200927734375E-09;0,200103759765625;1;36;6,88415765762329E-08;-8,57403874397278E-08;100 nA
0,150146484375;25,3681709359515;-4,0679931640625E-09;0,15008544921875;1;37;6,88415765762329E-08;-8,57403874397278E-08;100 nA
0,10009765625;25,8686589346879;-4,510498046875E-09;0,100067138671875;1;38;6,88415765762329E-08;-8,57403874397278E-08;100 nA
0,050048828125;26,3691469334243;-5,023193359375E-09;0,050262451171875;1;39;6,88415765762329E-08;-8,57403874397278E-08;100 nA
0;26,8696349321607;-6,1676025390625E-09;0,000134277343750003;1;40;6,88415765762329E-08;-8,57403874397278E-08;100 nA
-0,050048828125;27,3701229308971;-8,23974609375E-09;-0,04970703125;1;41;6,88415765762329E-08;-8,57403874397278E-08;100 nA
-0,10009765625;27,8706109296335;-1,065673828125E-08;-0,099639892578125;1;42;6,88415765762329E-08;-8,57403874397278E-08;100 nA
-0,150146484375;28,3710989283699;-1,19354248046875E-08;-0,14959716796875;1;43;6,88415765762329E-08;-8,57403874397278E-08;100 nA
-0,2001953125;28,8715869271063;-1,2103271484375E-08;-0,199432373046875;1;44;6,88415765762329E-08;-8,57403874397278E-08;100 nA
-0,250244140625;29,3720749258426;-9,5458984375E-09;-0,249298095703125;1;45;6,88415765762329E-08;-8,57403874397278E-08;100 nA
-0,30029296875;29,872562924579;-6,2164306640625E-09;-0,299224853515625;1;46;6,88415765762329E-08;-8,57403874397278E-08;100 nA
-0,350341796875;30,3730509233154;-5,8746337890625E-09;-0,349151611328125;1;47;6,88415765762329E-08;-8,57403874397278E-08;100 nA
-0,400390625;30,8735389220518;-5,853271484375E-09;-0,39898681640625;1;48;6,88415765762329E-08;-8,57403874397278E-08;100 nA
-0,450439453125;31,3740269207882;-5,6121826171875E-09;-0,448974609375;1;49;6,88415765762329E-08;-8,57403874397278E-08;100 nA
-0,50048828125;31,8745149195246;-5,3436279296875E-09;-0,498809814453125;1;50;6,88415765762329E-08;-8,57403874397278E-08;100 nA
-0,550537109375;32,375002918261;-5,1025390625E-09;-0,548797607421875;1;51;6,88415765762329E-08;-8,57403874397278E-08;100 nA
-0,6005859375;32,8754909169974;-4,962158203125E-09;-0,5986328125;1;52;6,88415765762329E-08;-8,57403874397278E-08;100 nA
-0,650634765625;33,3759789157338;-4,8095703125E-09;-0,648590087890625;1;53;6,88415765762329E-08;-8,57403874397278E-08;100 nA
-0,70068359375;33,8764669144701;-4,6966552734375E-09;-0,69854736328125;1;54;6,88415765762329E-08;-8,57403874397278E-08;100 nA
-0,750732421875;34,3769549132065;-4,5989990234375E-09;-0,748565673828125;1;55;6,88415765762329E-08;-8,57403874397278E-08;100 nA
-0,80078125;34,8774429119429;-4,5928955078125E-09;-0,79833984375;1;56;6,88415765762329E-08;-8,57403874397278E-08;100 nA
-0,850830078125;35,3779309106793;-4,5501708984375E-09;-0,848388671875;1;57;6,88415765762329E-08;-8,57403874397278E-08;100 nA
-0,90087890625;35,8784189094157;-4,5501708984375E-09;-0,8984375;1;58;6,88415765762329E-08;-8,57403874397278E-08;100 nA
-0,950927734375;36,3789069081521;-4,791259765625E-09;-0,948486328125;1;59;6,88415765762329E-08;-8,57403874397278E-08;100 nA
-1,0009765625;36,8793949068885;-4,77294921875E-09;-0,99884033203125;1;60;6,88415765762329E-08;-8,57403874397278E-08;100 nA
-0,950927734375;37,3798829056249;-2,7923583984375E-09;-0,948486328125;1;61;6,88415765762329E-08;-8,57403874397278E-08;100 nA
-0,90087890625;37,8803709043613;-1,1993408203125E-09;-0,8990478515625;1;62;6,88415765762329E-08;-8,57403874397278E-08;100 nA
-0,850830078125;38,3808589030976;-9,521484375E-10;-0,84869384765625;1;63;6,88415765762329E-08;-8,57403874397278E-08;100 nA
-0,80078125;38,881346901834;3,35693359375E-11;-0,7989501953125;1;64;6,88415765762329E-08;-8,57403874397278E-08;100 nA
-0,750732421875;39,3818349005704;-7,01904296875E-11;-0,748565673828125;1;65;6,88415765762329E-08;-8,57403874397278E-08;100 nA
-0,70068359375;39,8823228993068;3,662109375E-10;-0,6986083984375;1;66;6,88415765762329E-08;-8,57403874397278E-08;100 nA
-0,650634765625;40,3828108980432;4,974365234375E-10;-0,648590087890625;1;67;6,88415765762329E-08;-8,57403874397278E-08;100 nA
-0,6005859375;40,8832988967796;9,490966796875E-10;-0,598663330078125;1;68;6,88415765762329E-08;-8,57403874397278E-08;100 nA
-0,550537109375;41,383786895516;1,092529296875E-09;-0,548736572265625;1;69;6,88415765762329E-08;-8,57403874397278E-08;100 nA
-0,50048828125;41,8842748942524;1,5350341796875E-09;-0,498809814453125;1;70;6,88415765762329E-08;-8,57403874397278E-08;100 nA
-0,450439453125;42,3847628929888;2,0355224609375E-09;-0,448944091796875;1;71;6,88415765762329E-08;-8,57403874397278E-08;100 nA
-0,400390625;42,8852508917252;2,5604248046875E-09;-0,399078369140625;1;72;6,88415765762329E-08;-8,57403874397278E-08;100 nA
-0,350341796875;43,3857388904615;3,021240234375E-09;-0,34918212890625;1;73;6,88415765762329E-08;-8,57403874397278E-08;100 nA
-0,30029296875;43,8862268891979;4,193115234375E-09;-0,2991943359375;1;74;6,88415765762329E-08;-8,57403874397278E-08;100 nA
-0,250244140625;44,3867148879343;4,7119140625E-09;-0,2493896484375;1;75;6,88415765762329E-08;-8,57403874397278E-08;100 nA
-0,2001953125;44,8872028866707;4,925537109375E-09;-0,199432373046875;1;76;6,88415765762329E-08;-8,57403874397278E-08;100 nA
-0,150146484375;45,3876908854071;5,09033203125E-09;-0,149658203125;1;77;6,88415765762329E-08;-8,57403874397278E-08;100 nA
-0,10009765625;45,8881788841435;5,2001953125E-09;-0,0997314453125;1;78;6,88415765762329E-08;-8,57403874397278E-08;100 nA
-0,050048828125;46,3886668828799;5,6640625E-09;-0,0498046875;1;79;6,88415765762329E-08;-8,57403874397278E-08;100 nA
0;46,8891548816163;6,5216064453125E-09;0,000125122070312497;1;80;6,88415765762329E-08;-8,57403874397278E-08;100 nA
0,050048828125;47,3896428803527;6,92138671875E-09;0,050079345703125;2;81;8,78909230232239E-08;-8,83201137185096E-08;100 nA
0,10009765625;47,890130879089;5,57861328125E-09;0,10003662109375;2;82;8,78909230232239E-08;-8,83201137185096E-08;100 nA
0,150146484375;48,3906188778254;4,87060546875E-09;0,150054931640625;2;83;8,78909230232239E-08;-8,83201137185096E-08;100 nA
0,2001953125;48,8911068765618;4,8858642578125E-09;0,200042724609375;2;84;8,78909230232239E-08;-8,83201137185096E-08;100 nA
0,250244140625;49,3915948752982;5,0048828125E-09;0,250091552734375;2;85;8,78909230232239E-08;-8,83201137185096E-08;100 nA
0,30029296875;49,8920828740346;5,230712890625E-09;0,300018310546875;2;86;8,78909230232239E-08;-8,83201137185096E-08;100 nA
0,350341796875;50,392570872771;5,45654296875E-09;0,350128173828125;2;87;8,78909230232239E-08;-8,83201137185096E-08;100 nA
0,400390625;50,8930588715074;5,657958984375E-09;0,400115966796875;2;88;8,78909230232239E-08;-8,83201137185096E-08;100 nA
0,450439453125;51,3935468702438;5,877685546875E-09;0,45013427734375;2;89;8,78909230232239E-08;-8,83201137185096E-08;100 nA
0,50048828125;51,8940348689802;6,085205078125E-09;0,5001220703125;2;90;8,78909230232239E-08;-8,83201137185096E-08;100 nA
0,550537109375;52,3945228677165;6,353759765625E-09;0,55010986328125;2;91;8,78909230232239E-08;-8,83201137185096E-08;100 nA
0,6005859375;52,8950108664529;6,2347412109375E-09;0,60015869140625;2;92;8,78909230232239E-08;-8,83201137185096E-08;100 nA
0,650634765625;53,3954988651893;6,201171875E-09;0,650054931640625;2;93;8,78909230232239E-08;-8,83201137185096E-08;100 nA
0,70068359375;53,8959868639257;6,1279296875E-09;0,700042724609375;2;94;8,78909230232239E-08;-8,83201137185096E-08;100 nA
0,750732421875;54,3964748626621;5,8990478515625E-09;0,74981689453125;2;95;8,78909230232239E-08;-8,83201137185096E-08;100 nA
0,80078125;54,8969628613985;5,8258056640625E-09;0,79986572265625;2;96;8,78909230232239E-08;-8,83201137185096E-08;100 nA
0,850830078125;55,3974508601349;5,7586669921875E-09;0,849609375;2;97;8,78909230232239E-08;-8,83201137185096E-08;100 nA
0,90087890625;55,8979388588713;5,7220458984375E-09;0,89996337890625;2;98;8,78909230232239E-08;-8,83201137185096E-08;100 nA
0,950927734375;56,3984268576077;5,6915283203125E-09;0,9490966796875;2;99;8,78909230232239E-08;-8,83201137185096E-08;100 nA
1,0009765625;56,898914856344;5,780029296875E-09;0,99945068359375;2;100;8,78909230232239E-08;-8,83201137185096E-08;100 nA
0,950927734375;57,3994028550804;3,6041259765625E-09;0,94970703125;2;101;8,78909230232239E-08;-8,83201137185096E-08;100 nA
0,90087890625;57,8998908538168;2,3162841796875E-09;0,899658203125;2;102;8,78909230232239E-08;-8,83201137185096E-08;100 nA
0,850830078125;58,4003788525532;1,6082763671875E-09;0,84930419921875;2;103;8,78909230232239E-08;-8,83201137185096E-08;100 nA
0,80078125;58,9008668512896;1,123046875E-09;0,8001708984375;2;104;8,78909230232239E-08;-8,83201137185096E-08;100 nA
0,750732421875;59,401354850026;7,26318359375E-10;0,7498779296875;2;105;8,78909230232239E-08;-8,83201137185096E-08;100 nA
0,70068359375;59,9018428487624;3,96728515625E-10;0,699920654296875;2;106;8,78909230232239E-08;-8,83201137185096E-08;100 nA
0,650634765625;60,4023308474988;1,52587890625E-11;0,65008544921875;2;107;8,78909230232239E-08;-8,83201137185096E-08;100 nA
0,6005859375;60,9028188462352;-2,86865234375E-10;0,600067138671875;2;108;8,78909230232239E-08;-8,83201137185096E-08;100 nA
0,550537109375;61,4033068449716;-6,8359375E-10;0,55010986328125;2;109;8,78909230232239E-08;-8,83201137185096E-08;100 nA
0,50048828125;61,9037948437079;-1,123046875E-09;0,500091552734375;2;110;8,78909230232239E-08;-8,83201137185096E-08;100 nA
0,450439453125;62,4042828424443;-1,531982421875E-09;0,450103759765625;2;111;8,78909230232239E-08;-8,83201137185096E-08;100 nA
0,400390625;62,9047708411807;-2,0263671875E-09;0,400146484375;2;112;8,78909230232239E-08;-8,83201137185096E-08;100 nA
0,350341796875;63,4052588399171;-2,496337890625E-09;0,35015869140625;2;113;8,78909230232239E-08;-8,83201137185096E-08;100 nA
0,30029296875;63,9057468386535;-3,0120849609375E-09;0,300018310546875;2;114;8,78909230232239E-08;-8,83201137185096E-08;100 nA
0,250244140625;64,4062348373899;-3,60107421875E-09;0,2501220703125;2;115;8,78909230232239E-08;-8,83201137185096E-08;100 nA
0,2001953125;64,9067228361263;-3,9886474609375E-09;0,2000732421875;2;116;8,78909230232239E-08;-8,83201137185096E-08;100 nA
0,150146484375;65,4072108348627;-4,3670654296875E-09;0,150115966796875;2;117;8,78909230232239E-08;-8,83201137185096E-08;100 nA
0,10009765625;65,9076988335991;-4,7393798828125E-09;0,10009765625;2;118;8,78909230232239E-08;-8,83201137185096E-08;100 nA
0,050048828125;66,4081868323354;-5,328369140625E-09;0,0501708984375;2;119;8,78909230232239E-08;-8,83201137185096E-08;100 nA
0;66,9086748310718;-6,4971923828125E-09;0,000125122070312497;2;120;8,78909230232239E-08;-8,83201137185096E-08;100 nA
-0,050048828125;67,4091628298082;-8,6639404296875E-09;-0,049774169921875;2;121;8,78909230232239E-08;-8,83201137185096E-08;100 nA
-0,10009765625;67,9096508285446;-1,112060546875E-08;-0,099578857421875;2;122;8,78909230232239E-08;-8,83201137185096E-08;100 nA
-0,150146484375;68,410138827281;-1,25274658203125E-08;-0,14959716796875;2;123;8,78909230232239E-08;-8,83201137185096E-08;100 nA
-0,2001953125;68,9106268260174;-1,28753662109375E-08;-0,199462890625;2;124;8,78909230232239E-08;-8,83201137185096E-08;100 nA
-0,250244140625;69,4111148247538;-1,08551025390625E-08;-0,249359130859375;2;125;8,78909230232239E-08;-8,83201137185096E-08;100 nA
-0,30029296875;69,9116028234902;-6,878662109375E-09;-0,29931640625;2;126;8,78909230232239E-08;-8,83201137185096E-08;100 nA
-0,350341796875;70,4120908222266;-6,2896728515625E-09;-0,349212646484375;2;127;8,78909230232239E-08;-8,83201137185096E-08;100 nA
-0,400390625;70,9125788209629;-6,1920166015625E-09;-0,399078369140625;2;128;8,78909230232239E-08;-8,83201137185096E-08;100 nA
-0,450439453125;71,4130668196993;-5,84716796875E-09;-0,448944091796875;2;129;8,78909230232239E-08;-8,83201137185096E-08;100 nA
-0,50048828125;71,9135548184357;-5,389404296875E-09;-0,498870849609375;2;130;8,78909230232239E-08;-8,83201137185096E-08;100 nA
-0,550537109375;72,4140428171721;-5,0018310546875E-09;-0,548736572265625;2;131;8,78909230232239E-08;-8,83201137185096E-08;100 nA
-0,6005859375;72,9145308159085;-4,7576904296875E-09;-0,5986328125;2;132;8,78909230232239E-08;-8,83201137185096E-08;100 nA
-0,650634765625;73,4150188146449;-4,6630859375E-09;-0,648651123046875;2;133;8,78909230232239E-08;-8,83201137185096E-08;100 nA
-0,70068359375;73,9155068133813;-4,4891357421875E-09;-0,69854736328125;2;134;8,78909230232239E-08;-8,83201137185096E-08;100 nA
-0,750732421875;74,4159948121177;-4,4281005859375E-09;-0,74859619140625;2;135;8,78909230232239E-08;-8,83201137185096E-08;100 nA
-0,80078125;74,9164828108541;-4,3365478515625E-09;-0,79864501953125;2;136;8,78909230232239E-08;-8,83201137185096E-08;100 nA
-0,850830078125;75,4169708095905;-4,2938232421875E-09;-0,848388671875;2;137;8,78909230232239E-08;-8,83201137185096E-08;100 nA
-0,90087890625;75,9174588083268;-4,339599609375E-09;-0,89874267578125;2;138;8,78909230232239E-08;-8,83201137185096E-08;100 nA
-0,950927734375;76,4179468070632;-4,461669921875E-09;-0,9490966796875;2;139;8,78909230232239E-08;-8,83201137185096E-08;100 nA
-1,0009765625;76,9184348057996;-4,5318603515625E-09;-0,9991455078125;2;140;8,78909230232239E-08;-8,83201137185096E-08;100 nA
-0,950927734375;77,418922804536;-2,42919921875E-09;-0,94879150390625;2;141;8,78909230232239E-08;-8,83201137185096E-08;100 nA
-0,90087890625;77,9194108032724;-1,3763427734375E-09;-0,8984375;2;142;8,78909230232239E-08;-8,83201137185096E-08;100 nA
-0,850830078125;78,4198988020088;-7,50732421875E-10;-0,84869384765625;2;143;8,78909230232239E-08;-8,83201137185096E-08;100 nA
-0,80078125;78,9203868007452;-2,86865234375E-10;-0,79864501953125;2;144;8,78909230232239E-08;-8,83201137185096E-08;100 nA
-0,750732421875;79,4208747994816;8,544921875E-11;-0,74853515625;2;145;8,78909230232239E-08;-8,83201137185096E-08;100 nA
-0,70068359375;79,921362798218;3,84521484375E-10;-0,698516845703125;2;146;8,78909230232239E-08;-8,83201137185096E-08;100 nA
-0,650634765625;80,4218507969543;6,16455078125E-10;-0,648590087890625;2;147;8,78909230232239E-08;-8,83201137185096E-08;100 nA
-0,6005859375;80,9223387956907;1,0101318359375E-09;-0,598602294921875;2;148;8,78909230232239E-08;-8,83201137185096E-08;100 nA
-0,550537109375;81,4228267944271;1,416015625E-09;-0,548736572265625;2;149;8,78909230232239E-08;-8,83201137185096E-08;100 nA
-0,50048828125;81,9233147931635;1,8035888671875E-09;-0,498809814453125;2;150;8,78909230232239E-08;-8,83201137185096E-08;100 nA
-0,450439453125;82,4238027918999;2,11181640625E-09;-0,44891357421875;2;151;8,78909230232239E-08;-8,83201137185096E-08;100 nA
-0,400390625;82,9242907906363;2,6947021484375E-09;-0,399078369140625;2;152;8,78909230232239E-08;-8,83201137185096E-08;100 nA
-0,350341796875;83,4247787893727;3,558349609375E-09;-0,34918212890625;2;153;8,78909230232239E-08;-8,83201137185096E-08;100 nA
-0,30029296875;83,9252667881091;4,400634765625E-09;-0,299285888671875;2;154;8,78909230232239E-08;-8,83201137185096E-08;100 nA
-0,250244140625;84,4257547868455;4,8065185546875E-09;-0,249359130859375;2;155;8,78909230232239E-08;-8,83201137185096E-08;100 nA
-0,2001953125;84,9262427855818;5,0018310546875E-09;-0,19940185546875;2;156;8,78909230232239E-08;-8,83201137185096E-08;100 nA
-0,150146484375;85,4267307843182;5,1544189453125E-09;-0,149566650390625;2;157;8,78909230232239E-08;-8,83201137185096E-08;100 nA
-0,10009765625;85,9272187830546;5,279541015625E-09;-0,09967041015625;2;158;8,78909230232239E-08;-8,83201137185096E-08;100 nA
-0,050048828125;86,427706781791;5,67626953125E-09;-0,049835205078125;2;159;8,78909230232239E-08;-8,83201137185096E-08;100 nA
0;86,9281947805274;6,6558837890625E-09;0,000146484375000006;2;160;8,78909230232239E-08;-8,83201137185096E-08;100 nA
0,050048828125;87,4286827792638;7,0831298828125E-09;0,05010986328125;3;161;8,69164615869522E-08;-8,80574062466621E-08;100 nA
0,10009765625;87,9291707780002;5,82275390625E-09;0,10003662109375;3;162;8,69164615869522E-08;-8,80574062466621E-08;100 nA
0,150146484375;88,4296587767366;4,84619140625E-09;0,150054931640625;3;163;8,69164615869522E-08;-8,80574062466621E-08;100 nA
0,2001953125;88,930146775473;4,8736572265625E-09;0,200042724609375;3;164;8,69164615869522E-08;-8,80574062466621E-08;100 nA
0,250244140625;89,4306347742094;4,937744140625E-09;0,250030517578125;3;165;8,69164615869522E-08;-8,80574062466621E-08;100 nA
0,30029296875;89,9311227729457;5,06591796875E-09;0,29998779296875;3;166;8,69164615869522E-08;-8,80574062466621E-08;100 nA
0,350341796875;90,4316107716821;5,3009033203125E-09;0,350067138671875;3;167;8,69164615869522E-08;-8,80574062466621E-08;100 nA
0,400390625;90,9320987704185;5,5511474609375E-09;0,4000244140625;3;168;8,69164615869522E-08;-8,80574062466621E-08;100 nA
0,450439453125;91,4325867691549;5,7861328125E-09;0,450042724609375;3;169;8,69164615869522E-08;-8,80574062466621E-08;100 nA
0,50048828125;91,9330747678913;6,01806640625E-09;0,50006103515625;3;170;8,69164615869522E-08;-8,80574062466621E-08;100 nA
0,550537109375;92,4335627666277;6,195068359375E-09;0,55010986328125;3;171;8,69164615869522E-08;-8,80574062466621E-08;100 nA
0,6005859375;92,9340507653641;6,26220703125E-09;0,600067138671875;3;172;8,69164615869522E-08;-8,80574062466621E-08;100 nA
0,650634765625;93,4345387641005;6,2255859375E-09;0,649993896484375;3;173;8,69164615869522E-08;-8,80574062466621E-08;100 nA
0,70068359375;93,9350267628369;6,0943603515625E-09;0,699920654296875;3;174;8,69164615869522E-08;-8,80574062466621E-08;100 nA
0,750732421875;94,4355147615732;5,9722900390625E-09;0,749847412109375;3;175;8,69164615869522E-08;-8,80574062466621E-08;100 nA
0,80078125;94,9360027603096;5,908203125E-09;0,8001708984375;3;176;8,69164615869522E-08;-8,80574062466621E-08;100 nA
0,850830078125;95,436490759046;5,767822265625E-09;0,8502197265625;3;177;8,69164615869522E-08;-8,80574062466621E-08;100 nA
0,90087890625;95,9369787577824;5,6884765625E-09;0,89996337890625;3;178;8,69164615869522E-08;-8,80574062466621E-08;100 nA
0,950927734375;96,4374667565188;5,5999755859375E-09;0,94940185546875;3;179;8,69164615869522E-08;-8,80574062466621E-08;100 nA
1,0009765625;96,9379547552552;5,6396484375E-09;0,999755859375;3;180;8,69164615869522E-08;-8,80574062466621E-08;100 nA
0,950927734375;97,4384427539916;3,509521484375E-09;0,94940185546875;3;181;8,69164615869522E-08;-8,80574062466621E-08;100 nA
0,90087890625;97,938930752728;2,490234375E-09;0,899658203125;3;182;8,69164615869522E-08;-8,80574062466621E-08;100 nA
0,850830078125;98,4394187514644;1,7059326171875E-09;0,84991455078125;3;183;8,69164615869522E-08;-8,80574062466621E-08;100 nA
0,80078125;98,9399067502007;1,1077880859375E-09;0,79986572265625;3;184;8,69164615869522E-08;-8,80574062466621E-08;100 nA
0,750732421875;99,4403947489371;7,2021484375E-10;0,749847412109375;3;185;8,69164615869522E-08;-8,80574062466621E-08;100 nA
0,70068359375;99,9408827476735;3,692626953125E-10;0,699920654296875;3;186;8,69164615869522E-08;-8,80574062466621E-08;100 nA
0,650634765625;100,44137074641;-9,1552734375E-12;0,649993896484375;3;187;8,69164615869522E-08;-8,80574062466621E-08;100 nA
0,6005859375;100,941858745146;-3,0517578125E-10;0,60009765625;3;188;8,69164615869522E-08;-8,80574062466621E-08;100 nA
0,550537109375;101,442346743883;-7,110595703125E-10;0,55010986328125;3;189;8,69164615869522E-08;-8,80574062466621E-08;100 nA
0,50048828125;101,942834742619;-1,11083984375E-09;0,500091552734375;3;190;8,69164615869522E-08;-8,80574062466621E-08;100 nA
0,450439453125;102,443322741355;-1,593017578125E-09;0,4500732421875;3;191;8,69164615869522E-08;-8,80574062466621E-08;100 nA
0,400390625;102,943810740092;-2,0263671875E-09;0,40008544921875;3;192;8,69164615869522E-08;-8,80574062466621E-08;100 nA
0,350341796875;103,444298738828;-2,4444580078125E-09;0,35009765625;3;193;8,69164615869522E-08;-8,80574062466621E-08;100 nA
0,30029296875;103,944786737565;-3,0517578125E-09;0,300048828125;3;194;8,69164615869522E-08;-8,80574062466621E-08;100 nA
0,250244140625;104,445274736301;-3,6346435546875E-09;0,250030517578125;3;195;8,69164615869522E-08;-8,80574062466621E-08;100 nA
0,2001953125;104,945762735037;-3,9764404296875E-09;0,199981689453125;3;196;8,69164615869522E-08;-8,80574062466621E-08;100 nA
0,150146484375;105,446250733774;-4,3701171875E-09;0,150054931640625;3;197;8,69164615869522E-08;-8,80574062466621E-08;100 nA
0,10009765625;105,94673873251;-4,8675537109375E-09;0,100006103515625;3;198;8,69164615869522E-08;-8,80574062466621E-08;100 nA
0,050048828125;106,447226731247;-5,4473876953125E-09;0,050079345703125;3;199;8,69164615869522E-08;-8,80574062466621E-08;100 nA
0;106,947714729983;-6,6009521484375E-09;0,000119018554687503;3;200;8,69164615869522E-08;-8,80574062466621E-08;100 nA
-0,050048828125;107,448202728719;-8,7646484375E-09;-0,0498046875;3;201;8,69164615869522E-08;-8,80574062466621E-08;100 nA
-0,10009765625;107,948690727456;-1,12823486328125E-08;-0,099700927734375;3;202;8,69164615869522E-08;-8,80574062466621E-08;100 nA
-0,150146484375;108,449178726192;-1,25885009765625E-08;-0,149566650390625;3;203;8,69164615869522E-08;-8,80574062466621E-08;100 nA
-0,2001953125;108,949666724929;-1,29180908203125E-08;-0,199493408203125;3;204;8,69164615869522E-08;-8,80574062466621E-08;100 nA
-0,250244140625;109,450154723665;-1,1163330078125E-08;-0,2493896484375;3;205;8,69164615869522E-08;-8,80574062466621E-08;100 nA
-0,30029296875;109,950642722401;-6,97021484375E-09;-0,299224853515625;3;206;8,69164615869522E-08;-8,80574062466621E-08;100 nA
-0,350341796875;110,451130721138;-6,1431884765625E-09;-0,34912109375;3;207;8,69164615869522E-08;-8,80574062466621E-08;100 nA
-0,400390625;110,951618719874;-5,8624267578125E-09;-0,3990478515625;3;208;8,69164615869522E-08;-8,80574062466621E-08;100 nA
-0,450439453125;111,45210671861;-5,6610107421875E-09;-0,448944091796875;3;209;8,69164615869522E-08;-8,80574062466621E-08;100 nA
-0,50048828125;111,952594717347;-5,17578125E-09;-0,498809814453125;3;210;8,69164615869522E-08;-8,80574062466621E-08;100 nA
-0,550537109375;112,453082716083;-4,815673828125E-09;-0,5487060546875;3;211;8,69164615869522E-08;-8,80574062466621E-08;100 nA
-0,6005859375;112,95357071482;-4,6539306640625E-09;-0,5986328125;3;212;8,69164615869522E-08;-8,80574062466621E-08;100 nA
-0,650634765625;113,454058713556;-4,3792724609375E-09;-0,64849853515625;3;213;8,69164615869522E-08;-8,80574062466621E-08;100 nA
-0,70068359375;113,954546712292;-4,33349609375E-09;-0,69854736328125;3;214;8,69164615869522E-08;-8,80574062466621E-08;100 nA
-0,750732421875;114,455034711029;-4,2449951171875E-09;-0,748504638671875;3;215;8,69164615869522E-08;-8,80574062466621E-08;100 nA
-0,80078125;114,955522709765;-4,08935546875E-09;-0,79833984375;3;216;8,69164615869522E-08;-8,80574062466621E-08;100 nA
-0,850830078125;115,456010708502;-4,1656494140625E-09;-0,84869384765625;3;217;8,69164615869522E-08;-8,80574062466621E-08;100 nA
-0,90087890625;115,956498707238;-4,2510986328125E-09;-0,89813232421875;3;218;8,69164615869522E-08;-8,80574062466621E-08;100 nA
-0,950927734375;116,456986705974;-4,4158935546875E-09;-0,94879150390625;3;219;8,69164615869522E-08;-8,80574062466621E-08;100 nA
-1,0009765625;116,957474704711;-4,559326171875E-09;-0,99884033203125;3;220;8,69164615869522E-08;-8,80574062466621E-08;100 nA
-0,950927734375;117,457962703447;-2,484130859375E-09;-0,94879150390625;3;221;8,69164615869522E-08;-8,80574062466621E-08;100 nA
-0,90087890625;117,958450702184;-1,513671875E-09;-0,8990478515625;3;222;8,69164615869522E-08;-8,80574062466621E-08;100 nA
-0,850830078125;118,45893870092;-8,85009765625E-10;-0,8489990234375;3;223;8,69164615869522E-08;-8,80574062466621E-08;100 nA
-0,80078125;118,959426699656;-4,21142578125E-10;-0,79864501953125;3;224;8,69164615869522E-08;-8,80574062466621E-08;100 nA
-0,750732421875;119,459914698393;-5,18798828125E-11;-0,748565673828125;3;225;8,69164615869522E-08;-8,80574062466621E-08;100 nA
-0,70068359375;119,960402697129;2,685546875E-10;-0,698638916015625;3;226;8,69164615869522E-08;-8,80574062466621E-08;100 nA
-0,650634765625;120,460890695865;6,134033203125E-10;-0,648529052734375;3;227;8,69164615869522E-08;-8,80574062466621E-08;100 nA
-0,6005859375;120,961378694602;9,09423828125E-10;-0,59857177734375;3;228;8,69164615869522E-08;-8,80574062466621E-08;100 nA
-0,550537109375;121,461866693338;1,251220703125E-09;-0,548736572265625;3;229;8,69164615869522E-08;-8,80574062466621E-08;100 nA
-0,50048828125;121,962354692075;1,5655517578125E-09;-0,49884033203125;3;230;8,69164615869522E-08;-8,80574062466621E-08;100 nA
-0,450439453125;122,462842690811;2,0538330078125E-09;-0,44891357421875;3;231;8,69164615869522E-08;-8,80574062466621E-08;100 nA
-0,400390625;122,963330689547;2,64892578125E-09;-0,399078369140625;3;232;8,69164615869522E-08;-8,80574062466621E-08;100 nA
-0,350341796875;123,463818688284;3,387451171875E-09;-0,349212646484375;3;233;8,69164615869522E-08;-8,80574062466621E-08;100 nA
-0,30029296875;123,96430668702;4,327392578125E-09;-0,299285888671875;3;234;8,69164615869522E-08;-8,80574062466621E-08;100 nA
-0,250244140625;124,464794685757;4,6722412109375E-09;-0,249420166015625;3;235;8,69164615869522E-08;-8,80574062466621E-08;100 nA
-0,2001953125;124,965282684493;4,9041748046875E-09;-0,199493408203125;3;236;8,69164615869522E-08;-8,80574062466621E-08;100 nA
-0,150146484375;125,465770683229;5,01708984375E-09;-0,14959716796875;3;237;8,69164615869522E-08;-8,80574062466621E-08;100 nA
-0,10009765625;125,966258681966;5,218505859375E-09;-0,0997314453125;3;238;8,69164615869522E-08;-8,80574062466621E-08;100 nA
-0,050048828125;126,466746680702;5,6121826171875E-09;-0,049896240234375;3;239;8,69164615869522E-08;-8,80574062466621E-08;100 nA
0;126,967234679439;6,671142578125E-09;0,000115966796875006;3;240;8,69164615869522E-08;-8,80574062466621E-08;100 nA
0,050048828125;127,467722678175;7,330322265625E-09;0,050079345703125;4;241;8,87584686279297E-08;-8,82498547434807E-08;100 nA
0,10009765625;127,968210676911;6,1309814453125E-09;0,100067138671875;4;242;8,87584686279297E-08;-8,82498547434807E-08;100 nA
0,150146484375;128,468698675648;5,1666259765625E-09;0,150115966796875;4;243;8,87584686279297E-08;-8,82498547434807E-08;100 nA
0,2001953125;128,969186674384;5,059814453125E-09;0,200103759765625;4;244;8,87584686279297E-08;-8,82498547434807E-08;100 nA
0,250244140625;129,46967467312;5,17578125E-09;0,25006103515625;4;245;8,87584686279297E-08;-8,82498547434807E-08;100 nA
0,30029296875;129,970162671857;5,3741455078125E-09;0,300079345703125;4;246;8,87584686279297E-08;-8,82498547434807E-08;100 nA
0,350341796875;130,470650670593;5,5328369140625E-09;0,350128173828125;4;247;8,87584686279297E-08;-8,82498547434807E-08;100 nA
0,400390625;130,97113866933;5,6915283203125E-09;0,400115966796875;4;248;8,87584686279297E-08;-8,82498547434807E-08;100 nA
0,450439453125;131,471626668066;6,0028076171875E-09;0,45013427734375;4;249;8,87584686279297E-08;-8,82498547434807E-08;100 nA
0,50048828125;131,972114666802;6,26220703125E-09;0,50018310546875;4;250;8,87584686279297E-08;-8,82498547434807E-08;100 nA
0,550537109375;132,472602665539;6,2774658203125E-09;0,550140380859375;4;251;8,87584686279297E-08;-8,82498547434807E-08;100 nA
0,6005859375;132,973090664275;6,2347412109375E-09;0,60015869140625;4;252;8,87584686279297E-08;-8,82498547434807E-08;100 nA
0,650634765625;133,473578663012;6,2744140625E-09;0,6500244140625;4;253;8,87584686279297E-08;-8,82498547434807E-08;100 nA
0,70068359375;133,974066661748;6,09130859375E-09;0,699920654296875;4;254;8,87584686279297E-08;-8,82498547434807E-08;100 nA
0,750732421875;134,474554660484;5,9326171875E-09;0,749847412109375;4;255;8,87584686279297E-08;-8,82498547434807E-08;100 nA
0,80078125;134,975042659221;5,8563232421875E-09;0,8001708984375;4;256;8,87584686279297E-08;-8,82498547434807E-08;100 nA
0,850830078125;135,475530657957;5,682373046875E-09;0,84991455078125;4;257;8,87584686279297E-08;-8,82498547434807E-08;100 nA
0,90087890625;135,976018656694;5,60302734375E-09;0,89996337890625;4;258;8,87584686279297E-08;-8,82498547434807E-08;100 nA
0,950927734375;136,47650665543;5,5328369140625E-09;0,95001220703125;4;259;8,87584686279297E-08;-8,82498547434807E-08;100 nA
1,0009765625;136,976994654166;5,6182861328125E-09;0,99853515625;4;260;8,87584686279297E-08;-8,82498547434807E-08;100 nA
0,950927734375;137,477482652903;3,3782958984375E-09;0,94970703125;4;261;8,87584686279297E-08;-8,82498547434807E-08;100 nA
0,90087890625;137,977970651639;2,30712890625E-09;0,89935302734375;4;262;8,87584686279297E-08;-8,82498547434807E-08;100 nA
0,850830078125;138,478458650376;1,6021728515625E-09;0,84991455078125;4;263;8,87584686279297E-08;-8,82498547434807E-08;100 nA
0,80078125;138,978946649112;1,068115234375E-09;0,799560546875;4;264;8,87584686279297E-08;-8,82498547434807E-08;100 nA
0,750732421875;139,479434647848;6,2255859375E-10;0,749786376953125;4;265;8,87584686279297E-08;-8,82498547434807E-08;100 nA
0,70068359375;139,979922646585;3,47900390625E-10;0,699920654296875;4;266;8,87584686279297E-08;-8,82498547434807E-08;100 nA
0,650634765625;140,480410645321;-1,52587890625E-11;0,649993896484375;4;267;8,87584686279297E-08;-8,82498547434807E-08;100 nA
0,6005859375;140,980898644057;-4,730224609375E-10;0,60009765625;4;268;8,87584686279297E-08;-8,82498547434807E-08;100 nA
0,550537109375;141,481386642794;-7,9345703125E-10;0,550048828125;4;269;8,87584686279297E-08;-8,82498547434807E-08;100 nA
0,50048828125;141,98187464153;-1,104736328125E-09;0,500091552734375;4;270;8,87584686279297E-08;-8,82498547434807E-08;100 nA
0,450439453125;142,482362640267;-1,6082763671875E-09;0,4500732421875;4;271;8,87584686279297E-08;-8,82498547434807E-08;100 nA
0,400390625;142,982850639003;-2,093505859375E-09;0,400054931640625;4;272;8,87584686279297E-08;-8,82498547434807E-08;100 nA
0,350341796875;143,483338637739;-2,4810791015625E-09;0,350128173828125;4;273;8,87584686279297E-08;-8,82498547434807E-08;100 nA
0,30029296875;143,983826636476;-2,978515625E-09;0,300079345703125;4;274;8,87584686279297E-08;-8,82498547434807E-08;100 nA
0,250244140625;144,484314635212;-3,5736083984375E-09;0,25006103515625;4;275;8,87584686279297E-08;-8,82498547434807E-08;100 nA
0,2001953125;144,984802633949;-3,936767578125E-09;0,2000732421875;4;276;8,87584686279297E-08;-8,82498547434807E-08;100 nA
0,150146484375;145,485290632685;-4,13818359375E-09;0,150115966796875;4;277;8,87584686279297E-08;-8,82498547434807E-08;100 nA
0,10009765625;145,985778631421;-4,547119140625E-09;0,10009765625;4;278;8,87584686279297E-08;-8,82498547434807E-08;100 nA
0,050048828125;146,486266630158;-5,2001953125E-09;0,050079345703125;4;279;8,87584686279297E-08;-8,82498547434807E-08;100 nA
0;146,986754628894;-6,3934326171875E-09;0,000134277343750003;4;280;8,87584686279297E-08;-8,82498547434807E-08;100 nA
-0,050048828125;147,487242627631;-8,6639404296875E-09;-0,049774169921875;4;281;8,87584686279297E-08;-8,82498547434807E-08;100 nA
-0,10009765625;147,987730626367;-1,1102294921875E-08;-0,099639892578125;4;282;8,87584686279297E-08;-8,82498547434807E-08;100 nA
-0,150146484375;148,488218625103;-1,241455078125E-08;-0,149505615234375;4;283;8,87584686279297E-08;-8,82498547434807E-08;100 nA
-0,2001953125;148,98870662384;-1,28753662109375E-08;-0,19940185546875;4;284;8,87584686279297E-08;-8,82498547434807E-08;100 nA
-0,250244140625;149,489194622576;-1,11602783203125E-08;-0,249298095703125;4;285;8,87584686279297E-08;-8,82498547434807E-08;100 nA
-0,30029296875;149,989682621312;-7,03125E-09;-0,299224853515625;4;286;8,87584686279297E-08;-8,82498547434807E-08;100 nA
-0,350341796875;150,490170620049;-6,1676025390625E-09;-0,349151611328125;4;287;8,87584686279297E-08;-8,82498547434807E-08;100 nA
-0,400390625;150,990658618785;-6,0333251953125E-09;-0,3990478515625;4;288;8,87584686279297E-08;-8,82498547434807E-08;100 nA
-0,450439453125;151,491146617522;-5,6884765625E-09;-0,448944091796875;4;289;8,87584686279297E-08;-8,82498547434807E-08;100 nA
-0,50048828125;151,991634616258;-5,242919921875E-09;-0,498809814453125;4;290;8,87584686279297E-08;-8,82498547434807E-08;100 nA
-0,550537109375;152,492122614994;-4,91943359375E-09;-0,54876708984375;4;291;8,87584686279297E-08;-8,82498547434807E-08;100 nA
-0,6005859375;152,992610613731;-4,7393798828125E-09;-0,5986328125;4;292;8,87584686279297E-08;-8,82498547434807E-08;100 nA
-0,650634765625;153,493098612467;-4,5867919921875E-09;-0,64862060546875;4;293;8,87584686279297E-08;-8,82498547434807E-08;100 nA
-0,70068359375;153,993586611204;-4,4464111328125E-09;-0,698577880859375;4;294;8,87584686279297E-08;-8,82498547434807E-08;100 nA
-0,750732421875;154,49407460994;-4,3060302734375E-09;-0,74853515625;4;295;8,87584686279297E-08;-8,82498547434807E-08;100 nA
-0,80078125;154,994562608676;-4,30908203125E-09;-0,7989501953125;4;296;8,87584686279297E-08;-8,82498547434807E-08;100 nA
-0,850830078125;155,495050607413;-4,2816162109375E-09;-0,8489990234375;4;297;8,87584686279297E-08;-8,82498547434807E-08;100 nA
-0,90087890625;155,995538606149;-4,266357421875E-09;-0,8984375;4;298;8,87584686279297E-08;-8,82498547434807E-08;100 nA
-0,950927734375;156,496026604886;-4,486083984375E-09;-0,948486328125;4;299;8,87584686279297E-08;-8,82498547434807E-08;100 nA
-1,0009765625;156,996514603622;-4,705810546875E-09;-0,9991455078125;4;300;8,87584686279297E-08;-8,82498547434807E-08;100 nA
-0,950927734375;157,497002602358;-2,606201171875E-09;-0,948486328125;4;301;8,87584686279297E-08;-8,82498547434807E-08;100 nA
-0,90087890625;157,997490601095;-1,5777587890625E-09;-0,8984375;4;302;8,87584686279297E-08;-8,82498547434807E-08;100 nA
-0,850830078125;158,497978599831;-9,307861328125E-10;-0,84869384765625;4;303;8,87584686279297E-08;-8,82498547434807E-08;100 nA
-0,80078125;158,998466598567;-4,2724609375E-10;-0,7989501953125;4;304;8,87584686279297E-08;-8,82498547434807E-08;100 nA
-0,750732421875;159,498954597304;-2,13623046875E-11;-0,74853515625;4;305;8,87584686279297E-08;-8,82498547434807E-08;100 nA
-0,70068359375;159,99944259604;3,021240234375E-10;-0,698577880859375;4;306;8,87584686279297E-08;-8,82498547434807E-08;100 nA
-0,650634765625;160,499930594777;6,28662109375E-10;-0,6485595703125;4;307;8,87584686279297E-08;-8,82498547434807E-08;100 nA
-0,6005859375;161,000418593513;1,019287109375E-09;-0,598602294921875;4;308;8,87584686279297E-08;-8,82498547434807E-08;100 nA
-0,550537109375;161,500906592249;1,4007568359375E-09;-0,548675537109375;4;309;8,87584686279297E-08;-8,82498547434807E-08;100 nA
-0,50048828125;162,001394590986;1,7181396484375E-09;-0,498779296875;4;310;8,87584686279297E-08;-8,82498547434807E-08;100 nA
-0,450439453125;162,501882589722;2,2552490234375E-09;-0,448944091796875;4;311;8,87584686279297E-08;-8,82498547434807E-08;100 nA
-0,400390625;163,002370588459;2,850341796875E-09;-0,399078369140625;4;312;8,87584686279297E-08;-8,82498547434807E-08;100 nA
-0,350341796875;163,502858587195;3,62548828125E-09;-0,34918212890625;4;313;8,87584686279297E-08;-8,82498547434807E-08;100 nA
-0,30029296875;164,003346585931;4,5257568359375E-09;-0,299224853515625;4;314;8,87584686279297E-08;-8,82498547434807E-08;100 nA
-0,250244140625;164,503834584668;4,9652099609375E-09;-0,249267578125;4;315;8,87584686279297E-08;-8,82498547434807E-08;100 nA
-0,2001953125;165,004322583404;5,078125E-09;-0,199432373046875;4;316;8,87584686279297E-08;-8,82498547434807E-08;100 nA
-0,150146484375;165,504810582141;5,1422119140625E-09;-0,1495361328125;4;317;8,87584686279297E-08;-8,82498547434807E-08;100 nA
-0,10009765625;166,005298580877;5,2520751953125E-09;-0,099609375;4;318;8,87584686279297E-08;-8,82498547434807E-08;100 nA
-0,050048828125;166,505786579613;5,7281494140625E-09;-0,049835205078125;4;319;8,87584686279297E-08;-8,82498547434807E-08;100 nA
0;167,00627457835;6,695556640625E-09;0,000128173828124994;4;320;8,87584686279297E-08;-8,82498547434807E-08;100 nA
0,050048828125;167,506762577086;7,305908203125E-09;0,050018310546875;5;321;8,72708112001419E-08;-8,79734009504318E-08;100 nA
0,10009765625;168,007250575822;6,134033203125E-09;0,10003662109375;5;322;8,72708112001419E-08;-8,79734009504318E-08;100 nA
0,150146484375;168,507738574559;5,1666259765625E-09;0,1500244140625;5;323;8,72708112001419E-08;-8,79734009504318E-08;100 nA
0,2001953125;169,008226573295;4,9224853515625E-09;0,20001220703125;5;324;8,72708112001419E-08;-8,79734009504318E-08;100 nA
0,250244140625;169,508714572032;5,0689697265625E-09;0,250030517578125;5;325;8,72708112001419E-08;-8,79734009504318E-08;100 nA
0,30029296875;170,009202570768;5,16357421875E-09;0,300048828125;5;326;8,72708112001419E-08;-8,79734009504318E-08;100 nA
0,350341796875;170,509690569504;5,4168701171875E-09;0,350128173828125;5;327;8,72708112001419E-08;-8,79734009504318E-08;100 nA
0,400390625;171,010178568241;5,5755615234375E-09;0,40008544921875;5;328;8,72708112001419E-08;-8,79734009504318E-08;100 nA
0,450439453125;171,510666566977;5,8349609375E-09;0,450042724609375;5;329;8,72708112001419E-08;-8,79734009504318E-08;100 nA
0,50048828125;172,011154565714;6,0791015625E-09;0,50006103515625;5;330;8,72708112001419E-08;-8,79734009504318E-08;100 nA
0,550537109375;172,51164256445;6,097412109375E-09;0,550079345703125;5;331;8,72708112001419E-08;-8,79734009504318E-08;100 nA
0,6005859375;173,012130563186;6,0577392578125E-09;0,60003662109375;5;332;8,72708112001419E-08;-8,79734009504318E-08;100 nA
0,650634765625;173,512618561923;6,0791015625E-09;0,649993896484375;5;333;8,72708112001419E-08;-8,79734009504318E-08;100 nA
0,70068359375;174,013106560659;5,9478759765625E-09;0,699920654296875;5;334;8,72708112001419E-08;-8,79734009504318E-08;100 nA
0,750732421875;174,513594559396;5,859375E-09;0,749755859375;5;335;8,72708112001419E-08;-8,79734009504318E-08;100 nA
0,80078125;175,014082558132;5,7159423828125E-09;0,799560546875;5;336;8,72708112001419E-08;-8,79734009504318E-08;100 nA
0,850830078125;175,514570556868;5,6427001953125E-09;0,84991455078125;5;337;8,72708112001419E-08;-8,79734009504318E-08;100 nA
0,90087890625;176,015058555605;5,5633544921875E-09;0,899658203125;5;338;8,72708112001419E-08;-8,79734009504318E-08;100 nA
0,950927734375;176,515546554341;5,56640625E-09;0,94879150390625;5;339;8,72708112001419E-08;-8,79734009504318E-08;100 nA
1,0009765625;177,016034553077;5,5419921875E-09;0,99945068359375;5;340;8,72708112001419E-08;-8,79734009504318E-08;100 nA
0,950927734375;177,516522551814;3,4820556640625E-09;0,94970703125;5;341;8,72708112001419E-08;-8,79734009504318E-08;100 nA
0,90087890625;178,01701055055;2,4810791015625E-09;0,89996337890625;5;342;8,72708112001419E-08;-8,79734009504318E-08;100 nA
0,850830078125;178,517498549287;1,72119140625E-09;0,84991455078125;5;343;8,72708112001419E-08;-8,79734009504318E-08;100 nA
0,80078125;179,017986548023;1,2176513671875E-09;0,79986572265625;5;344;8,72708112001419E-08;-8,79734009504318E-08;100 nA
0,750732421875;179,518474546759;8,209228515625E-10;0,749847412109375;5;345;8,72708112001419E-08;-8,79734009504318E-08;100 nA
0,70068359375;180,018962545496;4,57763671875E-10;0,699920654296875;5;346;8,72708112001419E-08;-8,79734009504318E-08;100 nA
0,650634765625;180,519450544232;9,46044921875E-11;0,649993896484375;5;347;8,72708112001419E-08;-8,79734009504318E-08;100 nA
0,6005859375;181,019938542969;-2,471923828125E-10;0,60009765625;5;348;8,72708112001419E-08;-8,79734009504318E-08;100 nA
0,550537109375;181,520426541705;-5,2490234375E-10;0,55010986328125;5;349;8,72708112001419E-08;-8,79734009504318E-08;100 nA
0,50048828125;182,020914540441;-9,8876953125E-10;0,500152587890625;5;350;8,72708112001419E-08;-8,79734009504318E-08;100 nA
0,450439453125;182,521402539178;-1,4373779296875E-09;0,450164794921875;5;351;8,72708112001419E-08;-8,79734009504318E-08;100 nA
0,400390625;183,021890537914;-2,0050048828125E-09;0,400146484375;5;352;8,72708112001419E-08;-8,79734009504318E-08;100 nA
0,350341796875;183,522378536651;-2,471923828125E-09;0,35015869140625;5;353;8,72708112001419E-08;-8,79734009504318E-08;100 nA
0,30029296875;184,022866535387;-2,996826171875E-09;0,30010986328125;5;354;8,72708112001419E-08;-8,79734009504318E-08;100 nA
0,250244140625;184,523354534123;-3,564453125E-09;0,2501220703125;5;355;8,72708112001419E-08;-8,79734009504318E-08;100 nA
0,2001953125;185,02384253286;-3,9520263671875E-09;0,2000732421875;5;356;8,72708112001419E-08;-8,79734009504318E-08;100 nA
0,150146484375;185,524330531596;-4,28466796875E-09;0,15008544921875;5;357;8,72708112001419E-08;-8,79734009504318E-08;100 nA
0,10009765625;186,024818530332;-4,7027587890625E-09;0,100128173828125;5;358;8,72708112001419E-08;-8,79734009504318E-08;100 nA
0,050048828125;186,525306529069;-5,3497314453125E-09;0,050048828125;5;359;8,72708112001419E-08;-8,79734009504318E-08;100 nA
0;187,025794527805;-6,55517578125E-09;0,000103759765625003;5;360;8,72708112001419E-08;-8,79734009504318E-08;100 nA
-0,050048828125;187,526282526542;-8,868408203125E-09;-0,0498046875;5;361;8,72708112001419E-08;-8,79734009504318E-08;100 nA
-0,10009765625;188,026770525278;-1,1260986328125E-08;-0,09967041015625;5;362;8,72708112001419E-08;-8,79734009504318E-08;100 nA
-0,150146484375;188,527258524014;-1,26861572265625E-08;-0,149566650390625;5;363;8,72708112001419E-08;-8,79734009504318E-08;100 nA
-0,2001953125;189,027746522751;-1,3128662109375E-08;-0,19952392578125;5;364;8,72708112001419E-08;-8,79734009504318E-08;100 nA
-0,250244140625;189,528234521487;-1,14013671875E-08;-0,2493896484375;5;365;8,72708112001419E-08;-8,79734009504318E-08;100 nA
-0,30029296875;190,028722520224;-7,2174072265625E-09;-0,299224853515625;5;366;8,72708112001419E-08;-8,79734009504318E-08;100 nA
-0,350341796875;190,52921051896;-6,3690185546875E-09;-0,3492431640625;5;367;8,72708112001419E-08;-8,79734009504318E-08;100 nA
-0,400390625;191,029698517696;-6,121826171875E-09;-0,399017333984375;5;368;8,72708112001419E-08;-8,79734009504318E-08;100 nA
-0,450439453125;191,530186516433;-5,755615234375E-09;-0,44891357421875;5;369;8,72708112001419E-08;-8,79734009504318E-08;100 nA
-0,50048828125;192,030674515169;-5,3802490234375E-09;-0,49884033203125;5;370;8,72708112001419E-08;-8,79734009504318E-08;100 nA
-0,550537109375;192,531162513906;-4,8919677734375E-09;-0,548736572265625;5;371;8,72708112001419E-08;-8,79734009504318E-08;100 nA
-0,6005859375;193,031650512642;-4,65087890625E-09;-0,598602294921875;5;372;8,72708112001419E-08;-8,79734009504318E-08;100 nA
-0,650634765625;193,532138511378;-4,4677734375E-09;-0,6485595703125;5;373;8,72708112001419E-08;-8,79734009504318E-08;100 nA
-0,70068359375;194,032626510115;-4,38232421875E-09;-0,69854736328125;5;374;8,72708112001419E-08;-8,79734009504318E-08;100 nA
-0,750732421875;194,533114508851;-4,1717529296875E-09;-0,748565673828125;5;375;8,72708112001419E-08;-8,79734009504318E-08;100 nA
-0,80078125;195,033602507587;-4,1473388671875E-09;-0,79864501953125;5;376;8,72708112001419E-08;-8,79734009504318E-08;100 nA
-0,850830078125;195,534090506324;-4,08935546875E-09;-0,8489990234375;5;377;8,72708112001419E-08;-8,79734009504318E-08;100 nA
-0,90087890625;196,03457850506;-4,0924072265625E-09;-0,8984375;5;378;8,72708112001419E-08;-8,79734009504318E-08;100 nA
-0,950927734375;196,535066503797;-4,2449951171875E-09;-0,94879150390625;5;379;8,72708112001419E-08;-8,79734009504318E-08;100 nA
-1,0009765625;197,035554502533;-4,4647216796875E-09;-0,9991455078125;5;380;8,72708112001419E-08;-8,79734009504318E-08;100 nA
-0,950927734375;197,536042501269;-2,3590087890625E-09;-0,94879150390625;5;381;8,72708112001419E-08;-8,79734009504318E-08;100 nA
-0,90087890625;198,036530500006;-1,2908935546875E-09;-0,89874267578125;5;382;8,72708112001419E-08;-8,79734009504318E-08;100 nA
-0,850830078125;198,537018498742;-7,965087890625E-10;-0,848388671875;5;383;8,72708112001419E-08;-8,79734009504318E-08;100 nA
-0,80078125;199,037506497479;-4,058837890625E-10;-0,79864501953125;5;384;8,72708112001419E-08;-8,79734009504318E-08;100 nA
-0,750732421875;199,537994496215;-4,8828125E-11;-0,748565673828125;5;385;8,72708112001419E-08;-8,79734009504318E-08;100 nA
-0,70068359375;200,038482494951;3,0517578125E-10;-0,698638916015625;5;386;8,72708112001419E-08;-8,79734009504318E-08;100 nA
-0,650634765625;200,538970493688;5,615234375E-10;-0,6485595703125;5;387;8,72708112001419E-08;-8,79734009504318E-08;100 nA
-0,6005859375;201,039458492424;9,063720703125E-10;-0,598663330078125;5;388;8,72708112001419E-08;-8,79734009504318E-08;100 nA
-0,550537109375;201,539946491161;1,28173828125E-09;-0,5487060546875;5;389;8,72708112001419E-08;-8,79734009504318E-08;100 nA
-0,50048828125;202,040434489897;1,6265869140625E-09;-0,49884033203125;5;390;8,72708112001419E-08;-8,79734009504318E-08;100 nA
-0,450439453125;202,540922488633;2,01416015625E-09;-0,449005126953125;5;391;8,72708112001419E-08;-8,79734009504318E-08;100 nA
-0,400390625;203,04141048737;2,7740478515625E-09;-0,399078369140625;5;392;8,72708112001419E-08;-8,79734009504318E-08;100 nA
-0,350341796875;203,541898486106;3,5736083984375E-09;-0,349212646484375;5;393;8,72708112001419E-08;-8,79734009504318E-08;100 nA
-0,30029296875;204,042386484843;4,449462890625E-09;-0,299224853515625;5;394;8,72708112001419E-08;-8,79734009504318E-08;100 nA
-0,250244140625;204,542874483579;4,6173095703125E-09;-0,249359130859375;5;395;8,72708112001419E-08;-8,79734009504318E-08;100 nA
-0,2001953125;205,043362482315;4,8858642578125E-09;-0,199462890625;5;396;8,72708112001419E-08;-8,79734009504318E-08;100 nA
-0,150146484375;205,543850481052;5,0048828125E-09;-0,149658203125;5;397;8,72708112001419E-08;-8,79734009504318E-08;100 nA
-0,10009765625;206,044338479788;5,16357421875E-09;-0,0997314453125;5;398;8,72708112001419E-08;-8,79734009504318E-08;100 nA
-0,050048828125;206,544826478524;5,5145263671875E-09;-0,049835205078125;5;399;8,72708112001419E-08;-8,79734009504318E-08;100 nA
0;207,045314477261;6,67724609375E-09;0,000140380859374997;5;400;8,72708112001419E-08;-8,79734009504318E-08;100 nA
0,050048828125;207,545802475997;7,354736328125E-09;0,050079345703125;6;401;8,82116705179215E-08;-8,8362880051136E-08;100 nA
0,10009765625;208,046290474734;6,0760498046875E-09;0,0999755859375;6;402;8,82116705179215E-08;-8,8362880051136E-08;100 nA
0,150146484375;208,54677847347;5,1116943359375E-09;0,1500244140625;6;403;8,82116705179215E-08;-8,8362880051136E-08;100 nA
0,2001953125;209,047266472206;5,01708984375E-09;0,200042724609375;6;404;8,82116705179215E-08;-8,8362880051136E-08;100 nA
0,250244140625;209,547754470943;5,1513671875E-09;0,250030517578125;6;405;8,82116705179215E-08;-8,8362880051136E-08;100 nA
0,30029296875;210,048242469679;5,3314208984375E-09;0,300048828125;6;406;8,82116705179215E-08;-8,8362880051136E-08;100 nA
0,350341796875;210,548730468416;5,5999755859375E-09;0,35009765625;6;407;8,82116705179215E-08;-8,8362880051136E-08;100 nA
0,400390625;211,049218467152;5,767822265625E-09;0,400115966796875;6;408;8,82116705179215E-08;-8,8362880051136E-08;100 nA
0,450439453125;211,549706465888;6,0394287109375E-09;0,4500732421875;6;409;8,82116705179215E-08;-8,8362880051136E-08;100 nA
0,50048828125;212,050194464625;6,1767578125E-09;0,5001220703125;6;410;8,82116705179215E-08;-8,8362880051136E-08;100 nA
0,550537109375;212,550682463361;6,304931640625E-09;0,550140380859375;6;411;8,82116705179215E-08;-8,8362880051136E-08;100 nA
0,6005859375;213,051170462098;6,3629150390625E-09;0,60009765625;6;412;8,82116705179215E-08;-8,8362880051136E-08;100 nA
0,650634765625;213,551658460834;6,25E-09;0,6500244140625;6;413;8,82116705179215E-08;-8,8362880051136E-08;100 nA
0,70068359375;214,05214645957;6,1737060546875E-09;0,699981689453125;6;414;8,82116705179215E-08;-8,8362880051136E-08;100 nA
0,750732421875;214,552634458307;6,11572265625E-09;0,749847412109375;6;415;8,82116705179215E-08;-8,8362880051136E-08;100 nA
0,80078125;215,053122457043;5,902099609375E-09;0,79986572265625;6;416;8,82116705179215E-08;-8,8362880051136E-08;100 nA
0,850830078125;215,553610455779;5,6884765625E-09;0,849609375;6;417;8,82116705179215E-08;-8,8362880051136E-08;100 nA
0,90087890625;216,054098454516;5,596923828125E-09;0,899658203125;6;418;8,82116705179215E-08;-8,8362880051136E-08;100 nA
0,950927734375;216,554586453252;5,523681640625E-09;0,94970703125;6;419;8,82116705179215E-08;-8,8362880051136E-08;100 nA
1,0009765625;217,055074451989;5,560302734375E-09;0,99945068359375;6;420;8,82116705179215E-08;-8,8362880051136E-08;100 nA
0,950927734375;217,555562450725;3,436279296875E-09;0,94940185546875;6;421;8,82116705179215E-08;-8,8362880051136E-08;100 nA
0,90087890625;218,056050449461;2,2705078125E-09;0,899658203125;6;422;8,82116705179215E-08;-8,8362880051136E-08;100 nA
0,850830078125;218,556538448198;1,611328125E-09;0,84991455078125;6;423;8,82116705179215E-08;-8,8362880051136E-08;100 nA
0,80078125;219,057026446934;1,0955810546875E-09;0,8001708984375;6;424;8,82116705179215E-08;-8,8362880051136E-08;100 nA
0,750732421875;219,557514445671;6,683349609375E-10;0,749786376953125;6;425;8,82116705179215E-08;-8,8362880051136E-08;100 nA
0,70068359375;220,058002444407;3,5400390625E-10;0,69989013671875;6;426;8,82116705179215E-08;-8,8362880051136E-08;100 nA
0,650634765625;220,558490443143;1,8310546875E-11;0,650054931640625;6;427;8,82116705179215E-08;-8,8362880051136E-08;100 nA
0,6005859375;221,05897844188;-2,716064453125E-10;0,600128173828125;6;428;8,82116705179215E-08;-8,8362880051136E-08;100 nA
0,550537109375;221,559466440616;-6,500244140625E-10;0,550048828125;6;429;8,82116705179215E-08;-8,8362880051136E-08;100 nA
0,50048828125;222,059954439353;-1,1627197265625E-09;0,500030517578125;6;430;8,82116705179215E-08;-8,8362880051136E-08;100 nA
0,450439453125;222,560442438089;-1,7059326171875E-09;0,450103759765625;6;431;8,82116705179215E-08;-8,8362880051136E-08;100 nA
0,400390625;223,060930436825;-1,9775390625E-09;0,40008544921875;6;432;8,82116705179215E-08;-8,8362880051136E-08;100 nA
0,350341796875;223,561418435562;-2,4383544921875E-09;0,35003662109375;6;433;8,82116705179215E-08;-8,8362880051136E-08;100 nA
0,30029296875;224,061906434298;-3,289794921875E-09;0,29998779296875;6;434;8,82116705179215E-08;-8,8362880051136E-08;100 nA
0,250244140625;224,562394433034;-3,52783203125E-09;0,250030517578125;6;435;8,82116705179215E-08;-8,8362880051136E-08;100 nA
0,2001953125;225,062882431771;-4,0496826171875E-09;0,199981689453125;6;436;8,82116705179215E-08;-8,8362880051136E-08;100 nA
0,150146484375;225,563370430507;-4,4921875E-09;0,149993896484375;6;437;8,82116705179215E-08;-8,8362880051136E-08;100 nA
0,10009765625;226,063858429244;-4,8248291015625E-09;0,10003662109375;6;438;8,82116705179215E-08;-8,8362880051136E-08;100 nA
0,050048828125;226,56434642798;-5,2490234375E-09;0,05010986328125;6;439;8,82116705179215E-08;-8,8362880051136E-08;100 nA
0;227,064834426716;-6,512451171875E-09;0,000134277343750003;6;440;8,82116705179215E-08;-8,8362880051136E-08;100 nA
-0,050048828125;227,565322425453;-8,7860107421875E-09;-0,049774169921875;6;441;8,82116705179215E-08;-8,8362880051136E-08;100 nA
-0,10009765625;228,065810424189;-1,11602783203125E-08;-0,099639892578125;6;442;8,82116705179215E-08;-8,8362880051136E-08;100 nA
-0,150146484375;228,566298422926;-1,258544921875E-08;-0,1495361328125;6;443;8,82116705179215E-08;-8,8362880051136E-08;100 nA
-0,2001953125;229,066786421662;-1,30157470703125E-08;-0,199432373046875;6;444;8,82116705179215E-08;-8,8362880051136E-08;100 nA
-0,250244140625;229,567274420398;-1,1376953125E-08;-0,24932861328125;6;445;8,82116705179215E-08;-8,8362880051136E-08;100 nA
-0,30029296875;230,067762419135;-7,0556640625E-09;-0,299224853515625;6;446;8,82116705179215E-08;-8,8362880051136E-08;100 nA
-0,350341796875;230,568250417871;-6,1553955078125E-09;-0,349151611328125;6;447;8,82116705179215E-08;-8,8362880051136E-08;100 nA
-0,400390625;231,068738416608;-5,9356689453125E-09;-0,3990478515625;6;448;8,82116705179215E-08;-8,8362880051136E-08;100 nA
-0,450439453125;231,569226415344;-5,548095703125E-09;-0,448883056640625;6;449;8,82116705179215E-08;-8,8362880051136E-08;100 nA
-0,50048828125;232,06971441408;-5,072021484375E-09;-0,498779296875;6;450;8,82116705179215E-08;-8,8362880051136E-08;100 nA
-0,550537109375;232,570202412817;-4,84619140625E-09;-0,548736572265625;6;451;8,82116705179215E-08;-8,8362880051136E-08;100 nA
-0,6005859375;233,070690411553;-4,6295166015625E-09;-0,598663330078125;6;452;8,82116705179215E-08;-8,8362880051136E-08;100 nA
-0,650634765625;233,571178410289;-4,443359375E-09;-0,648590087890625;6;453;8,82116705179215E-08;-8,8362880051136E-08;100 nA
-0,70068359375;234,071666409026;-4,3731689453125E-09;-0,698577880859375;6;454;8,82116705179215E-08;-8,8362880051136E-08;100 nA
-0,750732421875;234,572154407762;-4,278564453125E-09;-0,748565673828125;6;455;8,82116705179215E-08;-8,8362880051136E-08;100 nA
-0,80078125;235,072642406499;-4,28466796875E-09;-0,79833984375;6;456;8,82116705179215E-08;-8,8362880051136E-08;100 nA
-0,850830078125;235,573130405235;-4,23583984375E-09;-0,848388671875;6;457;8,82116705179215E-08;-8,8362880051136E-08;100 nA
-0,90087890625;236,073618403971;-4,23583984375E-09;-0,8984375;6;458;8,82116705179215E-08;-8,8362880051136E-08;100 nA
-0,950927734375;236,574106402708;-4,339599609375E-09;-0,9490966796875;6;459;8,82116705179215E-08;-8,8362880051136E-08;100 nA
-1,0009765625;237,074594401444;-4,5257568359375E-09;-0,9991455078125;6;460;8,82116705179215E-08;-8,8362880051136E-08;100 nA
-0,950927734375;237,575082400181;-2,484130859375E-09;-0,9490966796875;6;461;8,82116705179215E-08;-8,8362880051136E-08;100 nA
-0,90087890625;238,075570398917;-1,5045166015625E-09;-0,8990478515625;6;462;8,82116705179215E-08;-8,8362880051136E-08;100 nA
-0,850830078125;238,576058397653;-9,552001953125E-10;-0,8489990234375;6;463;8,82116705179215E-08;-8,8362880051136E-08;100 nA
-0,80078125;239,07654639639;-4,913330078125E-10;-0,79833984375;6;464;8,82116705179215E-08;-8,8362880051136E-08;100 nA
-0,750732421875;239,577034395126;-8,23974609375E-11;-0,74859619140625;6;465;8,82116705179215E-08;-8,8362880051136E-08;100 nA
-0,70068359375;240,077522393863;1,983642578125E-10;-0,6986083984375;6;466;8,82116705179215E-08;-8,8362880051136E-08;100 nA
-0,650634765625;240,578010392599;4,547119140625E-10;-0,64862060546875;6;467;8,82116705179215E-08;-8,8362880051136E-08;100 nA
-0,6005859375;241,078498391335;7,4462890625E-10;-0,59869384765625;6;468;8,82116705179215E-08;-8,8362880051136E-08;100 nA
-0,550537109375;241,578986390072;1,190185546875E-09;-0,548797607421875;6;469;8,82116705179215E-08;-8,8362880051136E-08;100 nA
-0,50048828125;242,079474388808;1,5472412109375E-09;-0,498931884765625;6;470;8,82116705179215E-08;-8,8362880051136E-08;100 nA
-0,450439453125;242,579962387544;2,0721435546875E-09;-0,449005126953125;6;471;8,82116705179215E-08;-8,8362880051136E-08;100 nA
-0,400390625;243,080450386281;2,63671875E-09;-0,399078369140625;6;472;8,82116705179215E-08;-8,8362880051136E-08;100 nA
-0,350341796875;243,580938385017;3,57666015625E-09;-0,349212646484375;6;473;8,82116705179215E-08;-8,8362880051136E-08;100 nA
-0,30029296875;244,081426383754;4,437255859375E-09;-0,29925537109375;6;474;8,82116705179215E-08;-8,8362880051136E-08;100 nA
-0,250244140625;244,58191438249;4,78515625E-09;-0,24932861328125;6;475;8,82116705179215E-08;-8,8362880051136E-08;100 nA
-0,2001953125;245,082402381226;5,0140380859375E-09;-0,199371337890625;6;476;8,82116705179215E-08;-8,8362880051136E-08;100 nA
-0,150146484375;245,582890379963;5,1055908203125E-09;-0,14959716796875;6;477;8,82116705179215E-08;-8,8362880051136E-08;100 nA
-0,10009765625;246,083378378699;5,267333984375E-09;-0,099700927734375;6;478;8,82116705179215E-08;-8,8362880051136E-08;100 nA
-0,050048828125;246,583866377436;5,7586669921875E-09;-0,049835205078125;6;479;8,82116705179215E-08;-8,8362880051136E-08;100 nA
0;247,084354376172;6,903076171875E-09;0,0001373291015625;6;480;8,82116705179215E-08;-8,8362880051136E-08;100 nA
0,050048828125;247,584842374908;7,568359375E-09;0,050079345703125;7;481;8,87645781040192E-08;-8,84835422039032E-08;100 nA
0,10009765625;248,085330373645;6,3720703125E-09;0,10009765625;7;482;8,87645781040192E-08;-8,84835422039032E-08;100 nA
0,150146484375;248,585818372381;5,28564453125E-09;0,150115966796875;7;483;8,87645781040192E-08;-8,84835422039032E-08;100 nA
0,2001953125;249,086306371118;5,1422119140625E-09;0,2000732421875;7;484;8,87645781040192E-08;-8,84835422039032E-08;100 nA
0,250244140625;249,586794369854;5,279541015625E-09;0,250091552734375;7;485;8,87645781040192E-08;-8,84835422039032E-08;100 nA
0,30029296875;250,08728236859;5,413818359375E-09;0,300048828125;7;486;8,87645781040192E-08;-8,84835422039032E-08;100 nA
0,350341796875;250,587770367327;5,5023193359375E-09;0,35009765625;7;487;8,87645781040192E-08;-8,84835422039032E-08;100 nA
0,400390625;251,088258366063;5,7220458984375E-09;0,400146484375;7;488;8,87645781040192E-08;-8,84835422039032E-08;100 nA
0,450439453125;251,588746364799;6,0089111328125E-09;0,450103759765625;7;489;8,87645781040192E-08;-8,84835422039032E-08;100 nA
0,50048828125;252,089234363536;6,243896484375E-09;0,5001220703125;7;490;8,87645781040192E-08;-8,84835422039032E-08;100 nA
0,550537109375;252,589722362272;6,427001953125E-09;0,5501708984375;7;491;8,87645781040192E-08;-8,84835422039032E-08;100 nA
0,6005859375;253,090210361009;6,40869140625E-09;0,60009765625;7;492;8,87645781040192E-08;-8,84835422039032E-08;100 nA
0,650634765625;253,590698359745;6,207275390625E-09;0,650054931640625;7;493;8,87645781040192E-08;-8,84835422039032E-08;100 nA
0,70068359375;254,091186358481;6,06689453125E-09;0,699951171875;7;494;8,87645781040192E-08;-8,84835422039032E-08;100 nA
0,750732421875;254,591674357218;5,8990478515625E-09;0,749847412109375;7;495;8,87645781040192E-08;-8,84835422039032E-08;100 nA
0,80078125;255,092162355954;5,7708740234375E-09;0,799560546875;7;496;8,87645781040192E-08;-8,84835422039032E-08;100 nA
0,850830078125;255,592650354691;5,6427001953125E-09;0,849609375;7;497;8,87645781040192E-08;-8,84835422039032E-08;100 nA
0,90087890625;256,093138353427;5,5572509765625E-09;0,899658203125;7;498;8,87645781040192E-08;-8,84835422039032E-08;100 nA
0,950927734375;256,593626352163;5,5023193359375E-09;0,94970703125;7;499;8,87645781040192E-08;-8,84835422039032E-08;100 nA
1,0009765625;257,0941143509;5,4931640625E-09;0,999755859375;7;500;8,87645781040192E-08;-8,84835422039032E-08;100 nA
0,950927734375;257,594602349636;3,3660888671875E-09;0,94940185546875;7;501;8,87645781040192E-08;-8,84835422039032E-08;100 nA
0,90087890625;258,095090348373;2,28271484375E-09;0,899658203125;7;502;8,87645781040192E-08;-8,84835422039032E-08;100 nA
0,850830078125;258,595578347109;1,5594482421875E-09;0,849609375;7;503;8,87645781040192E-08;-8,84835422039032E-08;100 nA
0,80078125;259,096066345845;1,06201171875E-09;0,79986572265625;7;504;8,87645781040192E-08;-8,84835422039032E-08;100 nA
0,750732421875;259,596554344582;6,9580078125E-10;0,74981689453125;7;505;8,87645781040192E-08;-8,84835422039032E-08;100 nA
0,70068359375;260,097042343318;4,0283203125E-10;0,699920654296875;7;506;8,87645781040192E-08;-8,84835422039032E-08;100 nA
0,650634765625;260,597530342054;4,2724609375E-11;0,6500244140625;7;507;8,87645781040192E-08;-8,84835422039032E-08;100 nA
0,6005859375;261,098018340791;-4,39453125E-10;0,600067138671875;7;508;8,87645781040192E-08;-8,84835422039032E-08;100 nA
0,550537109375;261,598506339527;-7,6904296875E-10;0,550048828125;7;509;8,87645781040192E-08;-8,84835422039032E-08;100 nA
0,50048828125;262,098994338264;-1,129150390625E-09;0,500091552734375;7;510;8,87645781040192E-08;-8,84835422039032E-08;100 nA
0,450439453125;262,599482337;-1,6265869140625E-09;0,450042724609375;7;511;8,87645781040192E-08;-8,84835422039032E-08;100 nA
0,400390625;263,099970335736;-2,08740234375E-09;0,400115966796875;7;512;8,87645781040192E-08;-8,84835422039032E-08;100 nA
0,350341796875;263,600458334473;-2,52685546875E-09;0,350067138671875;7;513;8,87645781040192E-08;-8,84835422039032E-08;100 nA
0,30029296875;264,100946333209;-3,131103515625E-09;0,300079345703125;7;514;8,87645781040192E-08;-8,84835422039032E-08;100 nA
0,250244140625;264,601434331946;-3,62548828125E-09;0,250030517578125;7;515;8,87645781040192E-08;-8,84835422039032E-08;100 nA
0,2001953125;265,101922330682;-3,9703369140625E-09;0,2000732421875;7;516;8,87645781040192E-08;-8,84835422039032E-08;100 nA
0,150146484375;265,602410329418;-4,315185546875E-09;0,15008544921875;7;517;8,87645781040192E-08;-8,84835422039032E-08;100 nA
0,10009765625;266,102898328155;-4,7760009765625E-09;0,100067138671875;7;518;8,87645781040192E-08;-8,84835422039032E-08;100 nA
0,050048828125;266,603386326891;-5,4779052734375E-09;0,050079345703125;7;519;8,87645781040192E-08;-8,84835422039032E-08;100 nA
0;267,103874325628;-6,7413330078125E-09;0,000125122070312497;7;520;8,87645781040192E-08;-8,84835422039032E-08;100 nA
-0,050048828125;267,604362324364;-8,9935302734375E-09;-0,04986572265625;7;521;8,87645781040192E-08;-8,84835422039032E-08;100 nA
-0,10009765625;268,1048503231;-1,136474609375E-08;-0,0997314453125;7;522;8,87645781040192E-08;-8,84835422039032E-08;100 nA
-0,150146484375;268,605338321837;-1,27349853515625E-08;-0,149566650390625;7;523;8,87645781040192E-08;-8,84835422039032E-08;100 nA
-0,2001953125;269,105826320573;-1,331787109375E-08;-0,199462890625;7;524;8,87645781040192E-08;-8,84835422039032E-08;100 nA
-0,250244140625;269,606314319309;-1,14471435546875E-08;-0,249359130859375;7;525;8,87645781040192E-08;-8,84835422039032E-08;100 nA
-0,30029296875;270,106802318046;-7,2845458984375E-09;-0,299224853515625;7;526;8,87645781040192E-08;-8,84835422039032E-08;100 nA
-0,350341796875;270,607290316782;-6,280517578125E-09;-0,349212646484375;7;527;8,87645781040192E-08;-8,84835422039032E-08;100 nA
-0,400390625;271,107778315519;-6,0638427734375E-09;-0,3990478515625;7;528;8,87645781040192E-08;-8,84835422039032E-08;100 nA
-0,450439453125;271,608266314255;-5,7342529296875E-09;-0,44891357421875;7;529;8,87645781040192E-08;-8,84835422039032E-08;100 nA
-0,50048828125;272,108754312991;-5,2459716796875E-09;-0,498809814453125;7;530;8,87645781040192E-08;-8,84835422039032E-08;100 nA
-0,550537109375;272,609242311728;-4,8675537109375E-09;-0,548736572265625;7;531;8,87645781040192E-08;-8,84835422039032E-08;100 nA
-0,6005859375;273,109730310464;-4,632568359375E-09;-0,598602294921875;7;532;8,87645781040192E-08;-8,84835422039032E-08;100 nA
-0,650634765625;273,610218309201;-4,5623779296875E-09;-0,6485595703125;7;533;8,87645781040192E-08;-8,84835422039032E-08;100 nA
-0,70068359375;274,110706307937;-4,2999267578125E-09;-0,6986083984375;7;534;8,87645781040192E-08;-8,84835422039032E-08;100 nA
-0,750732421875;274,611194306673;-4,1351318359375E-09;-0,748504638671875;7;535;8,87645781040192E-08;-8,84835422039032E-08;100 nA
-0,80078125;275,11168230541;-3,6529541015625E-09;-0,79864501953125;7;536;8,87645781040192E-08;-8,84835422039032E-08;100 nA
-0,850830078125;275,612170304146;-4,1229248046875E-09;-0,848388671875;7;537;8,87645781040192E-08;-8,84835422039032E-08;100 nA
-0,90087890625;276,112658302883;-4,13818359375E-09;-0,89874267578125;7;538;8,87645781040192E-08;-8,84835422039032E-08;100 nA
-0,950927734375;276,613146301619;-4,1900634765625E-09;-0,94879150390625;7;539;8,87645781040192E-08;-8,84835422039032E-08;100 nA
-1,0009765625;277,113634300355;-4,3304443359375E-09;-0,9991455078125;7;540;8,87645781040192E-08;-8,84835422039032E-08;100 nA
-0,950927734375;277,614122299092;-2,3223876953125E-09;-0,9490966796875;7;541;8,87645781040192E-08;-8,84835422039032E-08;100 nA
-0,90087890625;278,114610297828;-1,409912109375E-09;-0,89874267578125;7;542;8,87645781040192E-08;-8,84835422039032E-08;100 nA
-0,850830078125;278,615098296565;-7,659912109375E-10;-0,84869384765625;7;543;8,87645781040192E-08;-8,84835422039032E-08;100 nA
-0,80078125;279,115586295301;-2,8076171875E-10;-0,79864501953125;7;544;8,87645781040192E-08;-8,84835422039032E-08;100 nA
-0,750732421875;279,616074294037;1,251220703125E-10;-0,74853515625;7;545;8,87645781040192E-08;-8,84835422039032E-08;100 nA
-0,70068359375;280,116562292774;4,638671875E-10;-0,69854736328125;7;546;8,87645781040192E-08;-8,84835422039032E-08;100 nA
-0,650634765625;280,61705029151;5,889892578125E-10;-0,6485595703125;7;547;8,87645781040192E-08;-8,84835422039032E-08;100 nA
-0,6005859375;281,117538290246;9,6435546875E-10;-0,5986328125;7;548;8,87645781040192E-08;-8,84835422039032E-08;100 nA
-0,550537109375;281,618026288983;1,287841796875E-09;-0,54876708984375;7;549;8,87645781040192E-08;-8,84835422039032E-08;100 nA
-0,50048828125;282,118514287719;1,727294921875E-09;-0,498779296875;7;550;8,87645781040192E-08;-8,84835422039032E-08;100 nA
-0,450439453125;282,619002286456;2,1759033203125E-09;-0,448944091796875;7;551;8,87645781040192E-08;-8,84835422039032E-08;100 nA
-0,400390625;283,119490285192;2,77099609375E-09;-0,399078369140625;7;552;8,87645781040192E-08;-8,84835422039032E-08;100 nA
-0,350341796875;283,619978283928;3,6041259765625E-09;-0,349151611328125;7;553;8,87645781040192E-08;-8,84835422039032E-08;100 nA
-0,30029296875;284,120466282665;4,412841796875E-09;-0,299285888671875;7;554;8,87645781040192E-08;-8,84835422039032E-08;100 nA
-0,250244140625;284,620954281401;4,754638671875E-09;-0,249420166015625;7;555;8,87645781040192E-08;-8,84835422039032E-08;100 nA
-0,2001953125;285,121442280138;4,8919677734375E-09;-0,199493408203125;7;556;8,87645781040192E-08;-8,84835422039032E-08;100 nA
-0,150146484375;285,621930278874;5,059814453125E-09;-0,149566650390625;7;557;8,87645781040192E-08;-8,84835422039032E-08;100 nA
-0,10009765625;286,12241827761;5,17578125E-09;-0,099700927734375;7;558;8,87645781040192E-08;-8,84835422039032E-08;100 nA
-0,050048828125;286,622906276347;5,6976318359375E-09;-0,04986572265625;7;559;8,87645781040192E-08;-8,84835422039032E-08;100 nA
0;287,123394275083;6,7291259765625E-09;0,000170898437499997;7;560;8,87645781040192E-08;-8,84835422039032E-08;100 nA
0,050048828125;287,62388227382;7,4249267578125E-09;0,050079345703125;8;561;8,84025916457176E-08;-8,83246958255768E-08;100 nA
0,10009765625;288,124370272556;6,2835693359375E-09;0,10003662109375;8;562;8,84025916457176E-08;-8,83246958255768E-08;100 nA
0,150146484375;288,624858271292;5,1239013671875E-09;0,149993896484375;8;563;8,84025916457176E-08;-8,83246958255768E-08;100 nA
0,2001953125;289,125346270029;4,9560546875E-09;0,200042724609375;8;564;8,84025916457176E-08;-8,83246958255768E-08;100 nA
0,250244140625;289,625834268765;4,9652099609375E-09;0,250030517578125;8;565;8,84025916457176E-08;-8,83246958255768E-08;100 nA
0,30029296875;290,126322267501;5,18798828125E-09;0,29998779296875;8;566;8,84025916457176E-08;-8,83246958255768E-08;100 nA
0,350341796875;290,626810266238;5,413818359375E-09;0,350006103515625;8;567;8,84025916457176E-08;-8,83246958255768E-08;100 nA
0,400390625;291,127298264974;5,5755615234375E-09;0,400115966796875;8;568;8,84025916457176E-08;-8,83246958255768E-08;100 nA
0,450439453125;291,627786263711;5,792236328125E-09;0,450103759765625;8;569;8,84025916457176E-08;-8,83246958255768E-08;100 nA
0,50048828125;292,128274262447;6,201171875E-09;0,500091552734375;8;570;8,84025916457176E-08;-8,83246958255768E-08;100 nA
0,550537109375;292,628762261183;6,0638427734375E-09;0,550048828125;8;571;8,84025916457176E-08;-8,83246958255768E-08;100 nA
0,6005859375;293,12925025992;6,2347412109375E-09;0,600067138671875;8;572;8,84025916457176E-08;-8,83246958255768E-08;100 nA
0,650634765625;293,629738258656;6,2255859375E-09;0,6500244140625;8;573;8,84025916457176E-08;-8,83246958255768E-08;100 nA
0,70068359375;294,130226257393;6,1737060546875E-09;0,699920654296875;8;574;8,84025916457176E-08;-8,83246958255768E-08;100 nA
0,750732421875;294,630714256129;5,8746337890625E-09;0,749847412109375;8;575;8,84025916457176E-08;-8,83246958255768E-08;100 nA
0,80078125;295,131202254865;5,816650390625E-09;0,79986572265625;8;576;8,84025916457176E-08;-8,83246958255768E-08;100 nA
0,850830078125;295,631690253602;5,8746337890625E-09;0,84991455078125;8;577;8,84025916457176E-08;-8,83246958255768E-08;100 nA
0,90087890625;296,132178252338;5,6060791015625E-09;0,89935302734375;8;578;8,84025916457176E-08;-8,83246958255768E-08;100 nA
0,950927734375;296,632666251075;5,584716796875E-09;0,94940185546875;8;579;8,84025916457176E-08;-8,83246958255768E-08;100 nA
1,0009765625;297,133154249811;5,56640625E-09;1,00006103515625;8;580;8,84025916457176E-08;-8,83246958255768E-08;100 nA
0,950927734375;297,633642248547;3,4027099609375E-09;0,94970703125;8;581;8,84025916457176E-08;-8,83246958255768E-08;100 nA
0,90087890625;298,134130247284;2,5238037109375E-09;0,899658203125;8;582;8,84025916457176E-08;-8,83246958255768E-08;100 nA
0,850830078125;298,63461824602;1,7791748046875E-09;0,849609375;8;583;8,84025916457176E-08;-8,83246958255768E-08;100 nA
0,80078125;299,135106244756;9,58251953125E-10;0,8001708984375;8;584;8,84025916457176E-08;-8,83246958255768E-08;100 nA
0,750732421875;299,635594243493;7,720947265625E-10;0,749847412109375;8;585;8,84025916457176E-08;-8,83246958255768E-08;100 nA
0,70068359375;300,136082242229;3,84521484375E-10;0,699951171875;8;586;8,84025916457176E-08;-8,83246958255768E-08;100 nA
0,650634765625;300,636570240966;2,13623046875E-11;0,650054931640625;8;587;8,84025916457176E-08;-8,83246958255768E-08;100 nA
0,6005859375;301,137058239702;-2,593994140625E-10;0,600128173828125;8;588;8,84025916457176E-08;-8,83246958255768E-08;100 nA
0,550537109375;301,637546238438;-6,89697265625E-10;0,55010986328125;8;589;8,84025916457176E-08;-8,83246958255768E-08;100 nA
0,50048828125;302,138034237175;-1,1199951171875E-09;0,500091552734375;8;590;8,84025916457176E-08;-8,83246958255768E-08;100 nA
0,450439453125;302,638522235911;-1,5625E-09;0,4500732421875;8;591;8,84025916457176E-08;-8,83246958255768E-08;100 nA
0,400390625;303,139010234648;-2,0263671875E-09;0,400146484375;8;592;8,84025916457176E-08;-8,83246958255768E-08;100 nA
0,350341796875;303,639498233384;-2,4749755859375E-09;0,35015869140625;8;593;8,84025916457176E-08;-8,83246958255768E-08;100 nA
0,30029296875;304,13998623212;-3,01513671875E-09;0,30010986328125;8;594;8,84025916457176E-08;-8,83246958255768E-08;100 nA
0,250244140625;304,640474230857;-3,5919189453125E-09;0,2501220703125;8;595;8,84025916457176E-08;-8,83246958255768E-08;100 nA
0,2001953125;305,140962229593;-4,010009765625E-09;0,2000732421875;8;596;8,84025916457176E-08;-8,83246958255768E-08;100 nA
0,150146484375;305,64145022833;-4,278564453125E-09;0,15008544921875;8;597;8,84025916457176E-08;-8,83246958255768E-08;100 nA
0,10009765625;306,141938227066;-4,736328125E-09;0,10009765625;8;598;8,84025916457176E-08;-8,83246958255768E-08;100 nA
0,050048828125;306,642426225802;-5,340576171875E-09;0,050079345703125;8;599;8,84025916457176E-08;-8,83246958255768E-08;100 nA
0;307,142914224539;-6,561279296875E-09;0,000115966796875006;8;600;8,84025916457176E-08;-8,83246958255768E-08;100 nA
-0,050048828125;307,643402223275;-8,8623046875E-09;-0,049835205078125;8;601;8,84025916457176E-08;-8,83246958255768E-08;100 nA
-0,10009765625;308,143890222011;-1,11175537109375E-08;-0,0997314453125;8;602;8,84025916457176E-08;-8,83246958255768E-08;100 nA
-0,150146484375;308,644378220748;-1,25152587890625E-08;-0,149566650390625;8;603;8,84025916457176E-08;-8,83246958255768E-08;100 nA
-0,2001953125;309,144866219484;-1,33026123046875E-08;-0,199462890625;8;604;8,84025916457176E-08;-8,83246958255768E-08;100 nA
-0,250244140625;309,645354218221;-1,17462158203125E-08;-0,249298095703125;8;605;8,84025916457176E-08;-8,83246958255768E-08;100 nA
-0,30029296875;310,145842216957;-7,421875E-09;-0,29931640625;8;606;8,84025916457176E-08;-8,83246958255768E-08;100 nA
-0,350341796875;310,646330215693;-6,439208984375E-09;-0,3492431640625;8;607;8,84025916457176E-08;-8,83246958255768E-08;100 nA
-0,400390625;311,14681821443;-6,1981201171875E-09;-0,3990478515625;8;608;8,84025916457176E-08;-8,83246958255768E-08;100 nA
-0,450439453125;311,647306213166;-5,7861328125E-09;-0,448944091796875;8;609;8,84025916457176E-08;-8,83246958255768E-08;100 nA
-0,50048828125;312,147794211903;-5,35888671875E-09;-0,498931884765625;8;610;8,84025916457176E-08;-8,83246958255768E-08;100 nA
-0,550537109375;312,648282210639;-4,901123046875E-09;-0,548736572265625;8;611;8,84025916457176E-08;-8,83246958255768E-08;100 nA
-0,6005859375;313,148770209375;-4,620361328125E-09;-0,5986328125;8;612;8,84025916457176E-08;-8,83246958255768E-08;100 nA
-0,650634765625;313,649258208112;-4,50439453125E-09;-0,648590087890625;8;613;8,84025916457176E-08;-8,83246958255768E-08;100 nA
-0,70068359375;314,149746206848;-4,3609619140625E-09;-0,698577880859375;8;614;8,84025916457176E-08;-8,83246958255768E-08;100 nA
-0,750732421875;314,650234205585;-4,2938232421875E-09;-0,748626708984375;8;615;8,84025916457176E-08;-8,83246958255768E-08;100 nA
-0,80078125;315,150722204321;-4,1748046875E-09;-0,79864501953125;8;616;8,84025916457176E-08;-8,83246958255768E-08;100 nA
-0,850830078125;315,651210203057;-4,1351318359375E-09;-0,8489990234375;8;617;8,84025916457176E-08;-8,83246958255768E-08;100 nA
-0,90087890625;316,151698201794;-4,1656494140625E-09;-0,8990478515625;8;618;8,84025916457176E-08;-8,83246958255768E-08;100 nA
-0,950927734375;316,65218620053;-4,1839599609375E-09;-0,948486328125;8;619;8,84025916457176E-08;-8,83246958255768E-08;100 nA
-1,0009765625;317,152674199266;-4,08935546875E-09;-0,9991455078125;8;620;8,84025916457176E-08;-8,83246958255768E-08;100 nA
-0,950927734375;317,653162198003;-2,3040771484375E-09;-0,9490966796875;8;621;8,84025916457176E-08;-8,83246958255768E-08;100 nA
-0,90087890625;318,153650196739;-1,1810302734375E-09;-0,89874267578125;8;622;8,84025916457176E-08;-8,83246958255768E-08;100 nA
-0,850830078125;318,654138195476;-7,537841796875E-10;-0,8489990234375;8;623;8,84025916457176E-08;-8,83246958255768E-08;100 nA
-0,80078125;319,154626194212;-3,84521484375E-10;-0,7989501953125;8;624;8,84025916457176E-08;-8,83246958255768E-08;100 nA
-0,750732421875;319,655114192948;-9,1552734375E-12;-0,748565673828125;8;625;8,84025916457176E-08;-8,83246958255768E-08;100 nA
-0,70068359375;320,155602191685;3,570556640625E-10;-0,698577880859375;8;626;8,84025916457176E-08;-8,83246958255768E-08;100 nA
-0,650634765625;320,656090190421;6,591796875E-10;-0,648590087890625;8;627;8,84025916457176E-08;-8,83246958255768E-08;100 nA
-0,6005859375;321,156578189158;1,123046875E-09;-0,598602294921875;8;628;8,84025916457176E-08;-8,83246958255768E-08;100 nA
-0,550537109375;321,657066187894;1,409912109375E-09;-0,5487060546875;8;629;8,84025916457176E-08;-8,83246958255768E-08;100 nA
-0,50048828125;322,15755418663;1,8951416015625E-09;-0,498748779296875;8;630;8,84025916457176E-08;-8,83246958255768E-08;100 nA
-0,450439453125;322,658042185367;2,2705078125E-09;-0,44891357421875;8;631;8,84025916457176E-08;-8,83246958255768E-08;100 nA
-0,400390625;323,158530184103;2,752685546875E-09;-0,3990478515625;8;632;8,84025916457176E-08;-8,83246958255768E-08;100 nA
-0,350341796875;323,65901818284;3,6163330078125E-09;-0,349151611328125;8;633;8,84025916457176E-08;-8,83246958255768E-08;100 nA
-0,30029296875;324,159506181576;4,449462890625E-09;-0,299224853515625;8;634;8,84025916457176E-08;-8,83246958255768E-08;100 nA
-0,250244140625;324,659994180312;4,754638671875E-09;-0,249420166015625;8;635;8,84025916457176E-08;-8,83246958255768E-08;100 nA
-0,2001953125;325,160482179049;4,9346923828125E-09;-0,199493408203125;8;636;8,84025916457176E-08;-8,83246958255768E-08;100 nA
-0,150146484375;325,660970177785;5,145263671875E-09;-0,149627685546875;8;637;8,84025916457176E-08;-8,83246958255768E-08;100 nA
-0,10009765625;326,161458176521;5,1727294921875E-09;-0,099700927734375;8;638;8,84025916457176E-08;-8,83246958255768E-08;100 nA
-0,050048828125;326,661946175258;5,5419921875E-09;-0,04974365234375;8;639;8,84025916457176E-08;-8,83246958255768E-08;100 nA
0;327,162434173994;6,7626953125E-09;0,000109863281249997;8;640;8,84025916457176E-08;-8,83246958255768E-08;100 nA
0,050048828125;327,662922172731;7,586669921875E-09;0,050079345703125;9;641;8,65666940808296E-08;-8,74785333871841E-08;100 nA
0,10009765625;328,163410171467;6,4666748046875E-09;0,100067138671875;9;642;8,65666940808296E-08;-8,74785333871841E-08;100 nA
0,150146484375;328,663898170203;5,2337646484375E-09;0,150054931640625;9;643;8,65666940808296E-08;-8,74785333871841E-08;100 nA
0,2001953125;329,16438616894;5,0506591796875E-09;0,2000732421875;9;644;8,65666940808296E-08;-8,74785333871841E-08;100 nA
0,250244140625;329,664874167676;5,04150390625E-09;0,250030517578125;9;645;8,65666940808296E-08;-8,74785333871841E-08;100 nA
0,30029296875;330,165362166413;5,2703857421875E-09;0,300018310546875;9;646;8,65666940808296E-08;-8,74785333871841E-08;100 nA
0,350341796875;330,665850165149;5,5084228515625E-09;0,350189208984375;9;647;8,65666940808296E-08;-8,74785333871841E-08;100 nA
0,400390625;331,166338163885;5,6304931640625E-09;0,400054931640625;9;648;8,65666940808296E-08;-8,74785333871841E-08;100 nA
0,450439453125;331,666826162622;5,7891845703125E-09;0,4500732421875;9;649;8,65666940808296E-08;-8,74785333871841E-08;100 nA
0,50048828125;332,167314161358;6,0333251953125E-09;0,500030517578125;9;650;8,65666940808296E-08;-8,74785333871841E-08;100 nA
0,550537109375;332,667802160095;6,1920166015625E-09;0,550048828125;9;651;8,65666940808296E-08;-8,74785333871841E-08;100 nA
0,6005859375;333,168290158831;6,1737060546875E-09;0,60003662109375;9;652;8,65666940808296E-08;-8,74785333871841E-08;100 nA
0,650634765625;333,668778157567;6,072998046875E-09;0,64996337890625;9;653;8,65666940808296E-08;-8,74785333871841E-08;100 nA
0,70068359375;334,169266156304;5,8837890625E-09;0,699859619140625;9;654;8,65666940808296E-08;-8,74785333871841E-08;100 nA
0,750732421875;334,66975415504;5,706787109375E-09;0,74981689453125;9;655;8,65666940808296E-08;-8,74785333871841E-08;100 nA
0,80078125;335,170242153776;5,6671142578125E-09;0,79925537109375;9;656;8,65666940808296E-08;-8,74785333871841E-08;100 nA
0,850830078125;335,670730152513;5,5023193359375E-09;0,849609375;9;657;8,65666940808296E-08;-8,74785333871841E-08;100 nA
0,90087890625;336,171218151249;5,3802490234375E-09;0,9002685546875;9;658;8,65666940808296E-08;-8,74785333871841E-08;100 nA
0,950927734375;336,671706149986;5,4107666015625E-09;0,94940185546875;9;659;8,65666940808296E-08;-8,74785333871841E-08;100 nA
1,0009765625;337,172194148722;5,4290771484375E-09;0,99945068359375;9;660;8,65666940808296E-08;-8,74785333871841E-08;100 nA
0,950927734375;337,672682147458;3,21044921875E-09;0,95001220703125;9;661;8,65666940808296E-08;-8,74785333871841E-08;100 nA
0,90087890625;338,173170146195;2,2216796875E-09;0,89996337890625;9;662;8,65666940808296E-08;-8,74785333871841E-08;100 nA
0,850830078125;338,673658144931;1,580810546875E-09;0,84930419921875;9;663;8,65666940808296E-08;-8,74785333871841E-08;100 nA
0,80078125;339,174146143668;1,0894775390625E-09;0,79986572265625;9;664;8,65666940808296E-08;-8,74785333871841E-08;100 nA
0,750732421875;339,674634142404;7,38525390625E-10;0,74981689453125;9;665;8,65666940808296E-08;-8,74785333871841E-08;100 nA
0,70068359375;340,17512214114;3,814697265625E-10;0,699951171875;9;666;8,65666940808296E-08;-8,74785333871841E-08;100 nA
0,650634765625;340,675610139877;6,7138671875E-11;0,650054931640625;9;667;8,65666940808296E-08;-8,74785333871841E-08;100 nA
0,6005859375;341,176098138613;-2,716064453125E-10;0,60009765625;9;668;8,65666940808296E-08;-8,74785333871841E-08;100 nA
0,550537109375;341,67658613735;-6,53076171875E-10;0,55010986328125;9;669;8,65666940808296E-08;-8,74785333871841E-08;100 nA
0,50048828125;342,177074136086;-9,94873046875E-10;0,5001220703125;9;670;8,65666940808296E-08;-8,74785333871841E-08;100 nA
0,450439453125;342,677562134822;-1,37939453125E-09;0,45013427734375;9;671;8,65666940808296E-08;-8,74785333871841E-08;100 nA
0,400390625;343,178050133559;-1,934814453125E-09;0,40008544921875;9;672;8,65666940808296E-08;-8,74785333871841E-08;100 nA
0,350341796875;343,678538132295;-2,3834228515625E-09;0,350128173828125;9;673;8,65666940808296E-08;-8,74785333871841E-08;100 nA
0,30029296875;344,179026131031;-2,8350830078125E-09;0,300140380859375;9;674;8,65666940808296E-08;-8,74785333871841E-08;100 nA
0,250244140625;344,679514129768;-3,4393310546875E-09;0,250091552734375;9;675;8,65666940808296E-08;-8,74785333871841E-08;100 nA
0,2001953125;345,180002128504;-3,7353515625E-09;0,2000732421875;9;676;8,65666940808296E-08;-8,74785333871841E-08;100 nA
0,150146484375;345,680490127241;-4,193115234375E-09;0,150115966796875;9;677;8,65666940808296E-08;-8,74785333871841E-08;100 nA
0,10009765625;346,180978125977;-4,571533203125E-09;0,10009765625;9;678;8,65666940808296E-08;-8,74785333871841E-08;100 nA
0,050048828125;346,681466124713;-5,1910400390625E-09;0,05010986328125;9;679;8,65666940808296E-08;-8,74785333871841E-08;100 nA
0;347,18195412345;-6,5032958984375E-09;0,0001068115234375;9;680;8,65666940808296E-08;-8,74785333871841E-08;100 nA
-0,050048828125;347,682442122186;-8,7554931640625E-09;-0,0498046875;9;681;8,65666940808296E-08;-8,74785333871841E-08;100 nA
-0,10009765625;348,182930120923;-1,1114501953125E-08;-0,099639892578125;9;682;8,65666940808296E-08;-8,74785333871841E-08;100 nA
-0,150146484375;348,683418119659;-1,259765625E-08;-0,149566650390625;9;683;8,65666940808296E-08;-8,74785333871841E-08;100 nA
-0,2001953125;349,183906118395;-1,3006591796875E-08;-0,19940185546875;9;684;8,65666940808296E-08;-8,74785333871841E-08;100 nA
-0,250244140625;349,684394117132;-1,151123046875E-08;-0,249298095703125;9;685;8,65666940808296E-08;-8,74785333871841E-08;100 nA
-0,30029296875;350,184882115868;-7,2662353515625E-09;-0,299224853515625;9;686;8,65666940808296E-08;-8,74785333871841E-08;100 nA
-0,350341796875;350,685370114605;-6,18896484375E-09;-0,349151611328125;9;687;8,65666940808296E-08;-8,74785333871841E-08;100 nA
-0,400390625;351,185858113341;-6,011962890625E-09;-0,399078369140625;9;688;8,65666940808296E-08;-8,74785333871841E-08;100 nA
-0,450439453125;351,686346112077;-5,6549072265625E-09;-0,448974609375;9;689;8,65666940808296E-08;-8,74785333871841E-08;100 nA
-0,50048828125;352,186834110814;-5,2215576171875E-09;-0,498809814453125;9;690;8,65666940808296E-08;-8,74785333871841E-08;100 nA
-0,550537109375;352,68732210955;-4,8583984375E-09;-0,548736572265625;9;691;8,65666940808296E-08;-8,74785333871841E-08;100 nA
-0,6005859375;353,187810108287;-4,6173095703125E-09;-0,5986328125;9;692;8,65666940808296E-08;-8,74785333871841E-08;100 nA
-0,650634765625;353,688298107023;-4,4525146484375E-09;-0,6485595703125;9;693;8,65666940808296E-08;-8,74785333871841E-08;100 nA
-0,70068359375;354,188786105759;-4,364013671875E-09;-0,69854736328125;9;694;8,65666940808296E-08;-8,74785333871841E-08;100 nA
-0,750732421875;354,689274104496;-4,2724609375E-09;-0,748565673828125;9;695;8,65666940808296E-08;-8,74785333871841E-08;100 nA
-0,80078125;355,189762103232;-4,2144775390625E-09;-0,7989501953125;9;696;8,65666940808296E-08;-8,74785333871841E-08;100 nA
-0,850830078125;355,690250101968;-4,1717529296875E-09;-0,84869384765625;9;697;8,65666940808296E-08;-8,74785333871841E-08;100 nA
-0,90087890625;356,190738100705;-4,2022705078125E-09;-0,89874267578125;9;698;8,65666940808296E-08;-8,74785333871841E-08;100 nA
-0,950927734375;356,691226099441;-4,302978515625E-09;-0,948486328125;9;699;8,65666940808296E-08;-8,74785333871841E-08;100 nA
-1,0009765625;357,191714098178;-4,449462890625E-09;-0,99884033203125;9;700;8,65666940808296E-08;-8,74785333871841E-08;100 nA
-0,950927734375;357,692202096914;-2,490234375E-09;-0,948486328125;9;701;8,65666940808296E-08;-8,74785333871841E-08;100 nA
-0,90087890625;358,19269009565;-1,4892578125E-09;-0,89813232421875;9;702;8,65666940808296E-08;-8,74785333871841E-08;100 nA
-0,850830078125;358,693178094387;-8,9111328125E-10;-0,84869384765625;9;703;8,65666940808296E-08;-8,74785333871841E-08;100 nA
-0,80078125;359,193666093123;-4,5166015625E-10;-0,79864501953125;9;704;8,65666940808296E-08;-8,74785333871841E-08;100 nA
-0,750732421875;359,69415409186;-1,434326171875E-10;-0,74859619140625;9;705;8,65666940808296E-08;-8,74785333871841E-08;100 nA
-0,70068359375;360,194642090596;1,89208984375E-10;-0,698577880859375;9;706;8,65666940808296E-08;-8,74785333871841E-08;100 nA
-0,650634765625;360,695130089332;5,4931640625E-10;-0,648590087890625;9;707;8,65666940808296E-08;-8,74785333871841E-08;100 nA
-0,6005859375;361,195618088069;8,544921875E-10;-0,598663330078125;9;708;8,65666940808296E-08;-8,74785333871841E-08;100 nA
-0,550537109375;361,696106086805;1,2176513671875E-09;-0,548797607421875;9;709;8,65666940808296E-08;-8,74785333871841E-08;100 nA
-0,50048828125;362,196594085542;1,55029296875E-09;-0,498931884765625;9;710;8,65666940808296E-08;-8,74785333871841E-08;100 nA
-0,450439453125;362,697082084278;1,9622802734375E-09;-0,449005126953125;9;711;8,65666940808296E-08;-8,74785333871841E-08;100 nA
-0,400390625;363,197570083014;2,5604248046875E-09;-0,399139404296875;9;712;8,65666940808296E-08;-8,74785333871841E-08;100 nA
-0,350341796875;363,698058081751;3,497314453125E-09;-0,349212646484375;9;713;8,65666940808296E-08;-8,74785333871841E-08;100 nA
-0,30029296875;364,198546080487;4,315185546875E-09;-0,299285888671875;9;714;8,65666940808296E-08;-8,74785333871841E-08;100 nA
-0,250244140625;364,699034079223;4,6234130859375E-09;-0,249420166015625;9;715;8,65666940808296E-08;-8,74785333871841E-08;100 nA
-0,2001953125;365,19952207796;4,8583984375E-09;-0,199493408203125;9;716;8,65666940808296E-08;-8,74785333871841E-08;100 nA
-0,150146484375;365,700010076696;4,9957275390625E-09;-0,149658203125;9;717;8,65666940808296E-08;-8,74785333871841E-08;100 nA
-0,10009765625;366,200498075433;5,084228515625E-09;-0,0997314453125;9;718;8,65666940808296E-08;-8,74785333871841E-08;100 nA
-0,050048828125;366,700986074169;5,6365966796875E-09;-0,04986572265625;9;719;8,65666940808296E-08;-8,74785333871841E-08;100 nA
0;367,201474072905;6,75048828125E-09;0,000112915039062494;9;720;8,65666940808296E-08;-8,74785333871841E-08;100 nA
0,050048828125;367,701962071642;7,5897216796875E-09;0,050079345703125;10;721;8,97787511348724E-08;-8,90853255987168E-08;100 nA
0,10009765625;368,202450070378;6,4422607421875E-09;0,100067138671875;10;722;8,97787511348724E-08;-8,90853255987168E-08;100 nA
0,150146484375;368,702938069115;5,2764892578125E-09;0,150054931640625;10;723;8,97787511348724E-08;-8,90853255987168E-08;100 nA
0,2001953125;369,203426067851;5,1513671875E-09;0,2000732421875;10;724;8,97787511348724E-08;-8,90853255987168E-08;100 nA
0,250244140625;369,703914066587;5,2215576171875E-09;0,250091552734375;10;725;8,97787511348724E-08;-8,90853255987168E-08;100 nA
0,30029296875;370,204402065324;5,35888671875E-09;0,300048828125;10;726;8,97787511348724E-08;-8,90853255987168E-08;100 nA
0,350341796875;370,70489006406;5,560302734375E-09;0,35009765625;10;727;8,97787511348724E-08;-8,90853255987168E-08;100 nA
0,400390625;371,205378062797;5,810546875E-09;0,400146484375;10;728;8,97787511348724E-08;-8,90853255987168E-08;100 nA
0,450439453125;371,705866061533;5,9844970703125E-09;0,45013427734375;10;729;8,97787511348724E-08;-8,90853255987168E-08;100 nA
0,50048828125;372,206354060269;6,18896484375E-09;0,50018310546875;10;730;8,97787511348724E-08;-8,90853255987168E-08;100 nA
0,550537109375;372,706842059006;6,3385009765625E-09;0,55010986328125;10;731;8,97787511348724E-08;-8,90853255987168E-08;100 nA
0,6005859375;373,207330057742;6,3690185546875E-09;0,600128173828125;10;732;8,97787511348724E-08;-8,90853255987168E-08;100 nA
0,650634765625;373,707818056478;6,298828125E-09;0,65008544921875;10;733;8,97787511348724E-08;-8,90853255987168E-08;100 nA
0,70068359375;374,208306055215;6,109619140625E-09;0,699920654296875;10;734;8,97787511348724E-08;-8,90853255987168E-08;100 nA
0,750732421875;374,708794053951;6,0333251953125E-09;0,7498779296875;10;735;8,97787511348724E-08;-8,90853255987168E-08;100 nA
0,80078125;375,209282052688;5,7830810546875E-09;0,799560546875;10;736;8,97787511348724E-08;-8,90853255987168E-08;100 nA
0,850830078125;375,709770051424;5,6610107421875E-09;0,84930419921875;10;737;8,97787511348724E-08;-8,90853255987168E-08;100 nA
0,90087890625;376,21025805016;5,5908203125E-09;0,89935302734375;10;738;8,97787511348724E-08;-8,90853255987168E-08;100 nA
0,950927734375;376,710746048897;5,609130859375E-09;0,94940185546875;10;739;8,97787511348724E-08;-8,90853255987168E-08;100 nA
1,0009765625;377,211234047633;5,70068359375E-09;0,99884033203125;10;740;8,97787511348724E-08;-8,90853255987168E-08;100 nA
0,950927734375;377,71172204637;3,5064697265625E-09;0,95001220703125;10;741;8,97787511348724E-08;-8,90853255987168E-08;100 nA
0,90087890625;378,212210045106;2,4139404296875E-09;0,9002685546875;10;742;8,97787511348724E-08;-8,90853255987168E-08;100 nA
0,850830078125;378,712698043842;1,6571044921875E-09;0,84991455078125;10;743;8,97787511348724E-08;-8,90853255987168E-08;100 nA
0,80078125;379,213186042579;1,1138916015625E-09;0,79925537109375;10;744;8,97787511348724E-08;-8,90853255987168E-08;100 nA
0,750732421875;379,713674041315;7,049560546875E-10;0,74981689453125;10;745;8,97787511348724E-08;-8,90853255987168E-08;100 nA
0,70068359375;380,214162040052;3,753662109375E-10;0,699951171875;10;746;8,97787511348724E-08;-8,90853255987168E-08;100 nA
0,650634765625;380,714650038788;5,4931640625E-11;0,6500244140625;10;747;8,97787511348724E-08;-8,90853255987168E-08;100 nA
0,6005859375;381,215138037524;-2,716064453125E-10;0,60015869140625;10;748;8,97787511348724E-08;-8,90853255987168E-08;100 nA
0,550537109375;381,715626036261;-6,317138671875E-10;0,550140380859375;10;749;8,97787511348724E-08;-8,90853255987168E-08;100 nA
0,50048828125;382,216114034997;-1,1199951171875E-09;0,500091552734375;10;750;8,97787511348724E-08;-8,90853255987168E-08;100 nA
0,450439453125;382,716602033733;-1,5594482421875E-09;0,450164794921875;10;751;8,97787511348724E-08;-8,90853255987168E-08;100 nA
0,400390625;383,21709003247;-1,995849609375E-09;0,400115966796875;10;752;8,97787511348724E-08;-8,90853255987168E-08;100 nA
0,350341796875;383,717578031206;-2,490234375E-09;0,35009765625;10;753;8,97787511348724E-08;-8,90853255987168E-08;100 nA
0,30029296875;384,218066029943;-3,076171875E-09;0,300140380859375;10;754;8,97787511348724E-08;-8,90853255987168E-08;100 nA
0,250244140625;384,718554028679;-3,582763671875E-09;0,250091552734375;10;755;8,97787511348724E-08;-8,90853255987168E-08;100 nA
0,2001953125;385,219042027415;-3,94287109375E-09;0,20001220703125;10;756;8,97787511348724E-08;-8,90853255987168E-08;100 nA
0,150146484375;385,719530026152;-4,290771484375E-09;0,15008544921875;10;757;8,97787511348724E-08;-8,90853255987168E-08;100 nA
0,10009765625;386,220018024888;-4,7088623046875E-09;0,100067138671875;10;758;8,97787511348724E-08;-8,90853255987168E-08;100 nA
0,050048828125;386,720506023625;-5,303955078125E-09;0,050079345703125;10;759;8,97787511348724E-08;-8,90853255987168E-08;100 nA
0;387,220994022361;-6,6253662109375E-09;0,000131225585937506;10;760;8,97787511348724E-08;-8,90853255987168E-08;100 nA
-0,050048828125;387,721482021097;-8,8653564453125E-09;-0,0498046875;10;761;8,97787511348724E-08;-8,90853255987168E-08;100 nA
-0,10009765625;388,221970019834;-1,13006591796875E-08;-0,09967041015625;10;762;8,97787511348724E-08;-8,90853255987168E-08;100 nA
-0,150146484375;388,72245801857;-1,27655029296875E-08;-0,149566650390625;10;763;8,97787511348724E-08;-8,90853255987168E-08;100 nA
-0,2001953125;389,222946017307;-1,31927490234375E-08;-0,199493408203125;10;764;8,97787511348724E-08;-8,90853255987168E-08;100 nA
-0,250244140625;389,723434016043;-1,168212890625E-08;-0,249359130859375;10;765;8,97787511348724E-08;-8,90853255987168E-08;100 nA
-0,30029296875;390,223922014779;-7,33642578125E-09;-0,299285888671875;10;766;8,97787511348724E-08;-8,90853255987168E-08;100 nA
-0,350341796875;390,724410013516;-6,2774658203125E-09;-0,349212646484375;10;767;8,97787511348724E-08;-8,90853255987168E-08;100 nA
-0,400390625;391,224898012252;-6,14013671875E-09;-0,3990478515625;10;768;8,97787511348724E-08;-8,90853255987168E-08;100 nA
-0,450439453125;391,725386010988;-5,755615234375E-09;-0,448974609375;10;769;8,97787511348724E-08;-8,90853255987168E-08;100 nA
-0,50048828125;392,225874009725;-5,2276611328125E-09;-0,498870849609375;10;770;8,97787511348724E-08;-8,90853255987168E-08;100 nA
-0,550537109375;392,726362008461;-5,078125E-09;-0,548797607421875;10;771;8,97787511348724E-08;-8,90853255987168E-08;100 nA
-0,6005859375;393,226850007198;-4,730224609375E-09;-0,59869384765625;10;772;8,97787511348724E-08;-8,90853255987168E-08;100 nA
-0,650634765625;393,727338005934;-4,50439453125E-09;-0,64862060546875;10;773;8,97787511348724E-08;-8,90853255987168E-08;100 nA
-0,70068359375;394,22782600467;-4,5135498046875E-09;-0,698577880859375;10;774;8,97787511348724E-08;-8,90853255987168E-08;100 nA
-0,750732421875;394,728314003407;-4,35791015625E-09;-0,748626708984375;10;775;8,97787511348724E-08;-8,90853255987168E-08;100 nA
-0,80078125;395,228802002143;-4,2724609375E-09;-0,79864501953125;10;776;8,97787511348724E-08;-8,90853255987168E-08;100 nA
-0,850830078125;395,72929000088;-4,2938232421875E-09;-0,84869384765625;10;777;8,97787511348724E-08;-8,90853255987168E-08;100 nA
-0,90087890625;396,229777999616;-4,3426513671875E-09;-0,8984375;10;778;8,97787511348724E-08;-8,90853255987168E-08;100 nA
-0,950927734375;396,730265998352;-4,26025390625E-09;-0,94818115234375;10;779;8,97787511348724E-08;-8,90853255987168E-08;100 nA
-1,0009765625;397,230753997089;-4,3792724609375E-09;-0,9991455078125;10;780;8,97787511348724E-08;-8,90853255987168E-08;100 nA
-0,950927734375;397,731241995825;-2,4139404296875E-09;-0,9490966796875;10;781;8,97787511348724E-08;-8,90853255987168E-08;100 nA
-0,90087890625;398,231729994562;-1,5625E-09;-0,89874267578125;10;782;8,97787511348724E-08;-8,90853255987168E-08;100 nA
-0,850830078125;398,732217993298;-7,568359375E-10;-0,84869384765625;10;783;8,97787511348724E-08;-8,90853255987168E-08;100 nA
-0,80078125;399,232705992034;-3,875732421875E-10;-0,79925537109375;10;784;8,97787511348724E-08;-8,90853255987168E-08;100 nA
-0,750732421875;399,733193990771;3,35693359375E-11;-0,748565673828125;10;785;8,97787511348724E-08;-8,90853255987168E-08;100 nA
-0,70068359375;400,233681989507;3,173828125E-10;-0,69854736328125;10;786;8,97787511348724E-08;-8,90853255987168E-08;100 nA
-0,650634765625;400,734169988243;7,781982421875E-10;-0,648590087890625;10;787;8,97787511348724E-08;-8,90853255987168E-08;100 nA
-0,6005859375;401,23465798698;1,1016845703125E-09;-0,5986328125;10;788;8,97787511348724E-08;-8,90853255987168E-08;100 nA
-0,550537109375;401,735145985716;1,397705078125E-09;-0,548736572265625;10;789;8,97787511348724E-08;-8,90853255987168E-08;100 nA
-0,50048828125;402,235633984453;1,7974853515625E-09;-0,498779296875;10;790;8,97787511348724E-08;-8,90853255987168E-08;100 nA
-0,450439453125;402,736121983189;2,2613525390625E-09;-0,448944091796875;10;791;8,97787511348724E-08;-8,90853255987168E-08;100 nA
-0,400390625;403,236609981925;2,8717041015625E-09;-0,399017333984375;10;792;8,97787511348724E-08;-8,90853255987168E-08;100 nA
-0,350341796875;403,737097980662;3,69873046875E-09;-0,349151611328125;10;793;8,97787511348724E-08;-8,90853255987168E-08;100 nA
-0,30029296875;404,237585979398;4,4952392578125E-09;-0,2991943359375;10;794;8,97787511348724E-08;-8,90853255987168E-08;100 nA
-0,250244140625;404,738073978135;4,8614501953125E-09;-0,249298095703125;10;795;8,97787511348724E-08;-8,90853255987168E-08;100 nA
-0,2001953125;405,238561976871;4,9407958984375E-09;-0,199462890625;10;796;8,97787511348724E-08;-8,90853255987168E-08;100 nA
-0,150146484375;405,739049975607;5,1544189453125E-09;-0,149444580078125;10;797;8,97787511348724E-08;-8,90853255987168E-08;100 nA
-0,10009765625;406,239537974344;5,242919921875E-09;-0,099700927734375;10;798;8,97787511348724E-08;-8,90853255987168E-08;100 nA
-0,050048828125;406,74002597308;5,6976318359375E-09;-0,049774169921875;10;799;8,97787511348724E-08;-8,90853255987168E-08;100 nA
0;407,240513971817;6,8267822265625E-09;0,000131225585937506;10;800;8,97787511348724E-08;-8,90853255987168E-08;100 nA
