Potential applied (V);Time (s);WE(1).Current (A);WE(1).Potential (V);Scan;Index;Q+;Q-;Current range
0,050048828125;8,80199997777709;4,669189453125E-10;0,050079345703125;1;1;2,31579691171646E-08;-2,68786400556564E-08;100 nA
0,10009765625;9,30248797651348;8,148193359375E-10;0,100128173828125;1;2;2,31579691171646E-08;-2,68786400556564E-08;100 nA
0,150146484375;9,80297597524986;1,153564453125E-09;0,150054931640625;1;3;2,31579691171646E-08;-2,68786400556564E-08;100 nA
0,2001953125;10,3034639739863;1,8890380859375E-09;0,2000732421875;1;4;2,31579691171646E-08;-2,68786400556564E-08;100 nA
0,250244140625;10,8039519727226;1,5869140625E-09;0,250091552734375;1;5;2,31579691171646E-08;-2,68786400556564E-08;100 nA
0,30029296875;11,304439971459;1,3275146484375E-09;0,30010986328125;1;6;2,31579691171646E-08;-2,68786400556564E-08;100 nA
0,350341796875;11,8049279701954;1,2115478515625E-09;0,35009765625;1;7;2,31579691171646E-08;-2,68786400556564E-08;100 nA
0,400390625;12,3054159689318;1,153564453125E-09;0,400115966796875;1;8;2,31579691171646E-08;-2,68786400556564E-08;100 nA
0,450439453125;12,8059039676682;1,0711669921875E-09;0,450042724609375;1;9;2,31579691171646E-08;-2,68786400556564E-08;100 nA
0,50048828125;13,3063919664046;1,007080078125E-09;0,50006103515625;1;10;2,31579691171646E-08;-2,68786400556564E-08;100 nA
0,550537109375;13,806879965141;9,735107421875E-10;0,55010986328125;1;11;2,31579691171646E-08;-2,68786400556564E-08;100 nA
0,6005859375;14,3073679638774;9,521484375E-10;0,60009765625;1;12;2,31579691171646E-08;-2,68786400556564E-08;100 nA
0,650634765625;14,8078559626138;9,429931640625E-10;0,649993896484375;1;13;2,31579691171646E-08;-2,68786400556564E-08;100 nA
0,70068359375;15,3083439613501;9,552001953125E-10;0,699920654296875;1;14;2,31579691171646E-08;-2,68786400556564E-08;100 nA
0,750732421875;15,8088319600865;9,918212890625E-10;0,74981689453125;1;15;2,31579691171646E-08;-2,68786400556564E-08;100 nA
0,80078125;16,3093199588229;1,0498046875E-09;0,8001708984375;1;16;2,31579691171646E-08;-2,68786400556564E-08;100 nA
0,850830078125;16,8098079575593;1,1444091796875E-09;0,84930419921875;1;17;2,31579691171646E-08;-2,68786400556564E-08;100 nA
0,90087890625;17,3102959562957;1,2847900390625E-09;0,89935302734375;1;18;2,31579691171646E-08;-2,68786400556564E-08;100 nA
0,950927734375;17,8107839550321;1,4556884765625E-09;0,95001220703125;1;19;2,31579691171646E-08;-2,68786400556564E-08;100 nA
1,0009765625;18,3112719537685;1,6632080078125E-09;0,9991455078125;1;20;2,31579691171646E-08;-2,68786400556564E-08;100 nA
0,950927734375;18,8117599525049;8,056640625E-10;0,9490966796875;1;21;2,31579691171646E-08;-2,68786400556564E-08;100 nA
0,90087890625;19,3122479512413;3,90625E-10;0,899658203125;1;22;2,31579691171646E-08;-2,68786400556564E-08;100 nA
0,850830078125;19,8127359499777;1,434326171875E-10;0,84930419921875;1;23;2,31579691171646E-08;-2,68786400556564E-08;100 nA
0,80078125;20,313223948714;-2,44140625E-11;0,799560546875;1;24;2,31579691171646E-08;-2,68786400556564E-08;100 nA
0,750732421875;20,8137119474504;-1,46484375E-10;0,749786376953125;1;25;2,31579691171646E-08;-2,68786400556564E-08;100 nA
0,70068359375;21,3141999461868;-2,288818359375E-10;0,699859619140625;1;26;2,31579691171646E-08;-2,68786400556564E-08;100 nA
0,650634765625;21,8146879449232;-3,082275390625E-10;0,649993896484375;1;27;2,31579691171646E-08;-2,68786400556564E-08;100 nA
0,6005859375;22,3151759436596;-3,662109375E-10;0,60009765625;1;28;2,31579691171646E-08;-2,68786400556564E-08;100 nA
0,550537109375;22,815663942396;-3,936767578125E-10;0,55010986328125;1;29;2,31579691171646E-08;-2,68786400556564E-08;100 nA
0,50048828125;23,3161519411324;-4,425048828125E-10;0,500091552734375;1;30;2,31579691171646E-08;-2,68786400556564E-08;100 nA
0,450439453125;23,8166399398688;-5,2490234375E-10;0,4500732421875;1;31;2,31579691171646E-08;-2,68786400556564E-08;100 nA
0,400390625;24,3171279386052;-5,889892578125E-10;0,400115966796875;1;32;2,31579691171646E-08;-2,68786400556564E-08;100 nA
0,350341796875;24,8176159373415;-6,34765625E-10;0,35009765625;1;33;2,31579691171646E-08;-2,68786400556564E-08;100 nA
0,30029296875;25,3181039360779;-7,38525390625E-10;0,300048828125;1;34;2,31579691171646E-08;-2,68786400556564E-08;100 nA
0,250244140625;25,8185919348143;-9,857177734375E-10;0,250091552734375;1;35;2,31579691171646E-08;-2,68786400556564E-08;100 nA
0,2001953125;26,3190799335507;-1,8096923828125E-09;0,200042724609375;1;36;2,31579691171646E-08;-2,68786400556564E-08;100 nA
0,150146484375;26,8195679322871;-3,0609130859375E-09;0,1500244140625;1;37;2,31579691171646E-08;-2,68786400556564E-08;100 nA
0,10009765625;27,3200559310235;-2,227783203125E-09;0,100067138671875;1;38;2,31579691171646E-08;-2,68786400556564E-08;100 nA
0,050048828125;27,8205439297599;-1,531982421875E-09;0,050079345703125;1;39;2,31579691171646E-08;-2,68786400556564E-08;100 nA
0;28,3210319284963;-1,361083984375E-09;0,000112915039062494;1;40;2,31579691171646E-08;-2,68786400556564E-08;100 nA
-0,050048828125;28,8215199272327;-1,30615234375E-09;-0,049774169921875;1;41;2,31579691171646E-08;-2,68786400556564E-08;100 nA
-0,10009765625;29,322007925969;-1,30615234375E-09;-0,09967041015625;1;42;2,31579691171646E-08;-2,68786400556564E-08;100 nA
-0,150146484375;29,8224959247054;-1,348876953125E-09;-0,14959716796875;1;43;2,31579691171646E-08;-2,68786400556564E-08;100 nA
-0,2001953125;30,3229839234418;-1,416015625E-09;-0,199462890625;1;44;2,31579691171646E-08;-2,68786400556564E-08;100 nA
-0,250244140625;30,8234719221782;-1,50146484375E-09;-0,24932861328125;1;45;2,31579691171646E-08;-2,68786400556564E-08;100 nA
-0,30029296875;31,3239599209146;-1,6021728515625E-09;-0,29925537109375;1;46;2,31579691171646E-08;-2,68786400556564E-08;100 nA
-0,350341796875;31,824447919651;-1,7181396484375E-09;-0,349151611328125;1;47;2,31579691171646E-08;-2,68786400556564E-08;100 nA
-0,400390625;32,3249359183874;-1,8646240234375E-09;-0,399078369140625;1;48;2,31579691171646E-08;-2,68786400556564E-08;100 nA
-0,450439453125;32,8254239171238;-2,0172119140625E-09;-0,448974609375;1;49;2,31579691171646E-08;-2,68786400556564E-08;100 nA
-0,50048828125;33,3259119158602;-2,203369140625E-09;-0,498779296875;1;50;2,31579691171646E-08;-2,68786400556564E-08;100 nA
-0,550537109375;33,8263999145966;-2,3651123046875E-09;-0,54876708984375;1;51;2,31579691171646E-08;-2,68786400556564E-08;100 nA
-0,6005859375;34,3268879133329;-2,471923828125E-09;-0,598602294921875;1;52;2,31579691171646E-08;-2,68786400556564E-08;100 nA
-0,650634765625;34,8273759120693;-2,386474609375E-09;-0,648468017578125;1;53;2,31579691171646E-08;-2,68786400556564E-08;100 nA
-0,70068359375;35,3278639108057;-2,16064453125E-09;-0,698516845703125;1;54;2,31579691171646E-08;-2,68786400556564E-08;100 nA
-0,750732421875;35,8283519095421;-2,0599365234375E-09;-0,748565673828125;1;55;2,31579691171646E-08;-2,68786400556564E-08;100 nA
-0,80078125;36,3288399082785;-2,11181640625E-09;-0,7989501953125;1;56;2,31579691171646E-08;-2,68786400556564E-08;100 nA
-0,850830078125;36,8293279070149;-2,1392822265625E-09;-0,8489990234375;1;57;2,31579691171646E-08;-2,68786400556564E-08;100 nA
-0,90087890625;37,3298159057513;-2,093505859375E-09;-0,89813232421875;1;58;2,31579691171646E-08;-2,68786400556564E-08;100 nA
-0,950927734375;37,8303039044877;-1,89208984375E-09;-0,948486328125;1;59;2,31579691171646E-08;-2,68786400556564E-08;100 nA
-1,0009765625;38,3307919032241;-1,5716552734375E-09;-0,99884033203125;1;60;2,31579691171646E-08;-2,68786400556564E-08;100 nA
-0,950927734375;38,8312799019604;-6,103515625E-10;-0,9490966796875;1;61;2,31579691171646E-08;-2,68786400556564E-08;100 nA
-0,90087890625;39,3317679006968;-1,8310546875E-10;-0,89874267578125;1;62;2,31579691171646E-08;-2,68786400556564E-08;100 nA
-0,850830078125;39,8322558994332;1,312255859375E-10;-0,84869384765625;1;63;2,31579691171646E-08;-2,68786400556564E-08;100 nA
-0,80078125;40,3327438981696;3,7841796875E-10;-0,7989501953125;1;64;2,31579691171646E-08;-2,68786400556564E-08;100 nA
-0,750732421875;40,833231896906;5,92041015625E-10;-0,74853515625;1;65;2,31579691171646E-08;-2,68786400556564E-08;100 nA
-0,70068359375;41,3337198956424;7,415771484375E-10;-0,698516845703125;1;66;2,31579691171646E-08;-2,68786400556564E-08;100 nA
-0,650634765625;41,8342078943788;8,453369140625E-10;-0,6485595703125;1;67;2,31579691171646E-08;-2,68786400556564E-08;100 nA
-0,6005859375;42,3346958931152;1,019287109375E-09;-0,598602294921875;1;68;2,31579691171646E-08;-2,68786400556564E-08;100 nA
-0,550537109375;42,8351838918516;1,2176513671875E-09;-0,548736572265625;1;69;2,31579691171646E-08;-2,68786400556564E-08;100 nA
-0,50048828125;43,3356718905879;1,409912109375E-09;-0,498870849609375;1;70;2,31579691171646E-08;-2,68786400556564E-08;100 nA
-0,450439453125;43,8361598893243;1,5594482421875E-09;-0,44891357421875;1;71;2,31579691171646E-08;-2,68786400556564E-08;100 nA
-0,400390625;44,3366478880607;1,6510009765625E-09;-0,399078369140625;1;72;2,31579691171646E-08;-2,68786400556564E-08;100 nA
-0,350341796875;44,8371358867971;1,678466796875E-09;-0,349212646484375;1;73;2,31579691171646E-08;-2,68786400556564E-08;100 nA
-0,30029296875;45,3376238855335;1,6571044921875E-09;-0,299224853515625;1;74;2,31579691171646E-08;-2,68786400556564E-08;100 nA
-0,250244140625;45,8381118842699;1,605224609375E-09;-0,249359130859375;1;75;2,31579691171646E-08;-2,68786400556564E-08;100 nA
-0,2001953125;46,3385998830063;1,5472412109375E-09;-0,19940185546875;1;76;2,31579691171646E-08;-2,68786400556564E-08;100 nA
-0,150146484375;46,8390878817427;1,4923095703125E-09;-0,149566650390625;1;77;2,31579691171646E-08;-2,68786400556564E-08;100 nA
-0,10009765625;47,3395758804791;1,4495849609375E-09;-0,099700927734375;1;78;2,31579691171646E-08;-2,68786400556564E-08;100 nA
-0,050048828125;47,8400638792155;1,422119140625E-09;-0,0498046875;1;79;2,31579691171646E-08;-2,68786400556564E-08;100 nA
0;48,3405518779518;1,4373779296875E-09;0,000125122070312497;1;80;2,31579691171646E-08;-2,68786400556564E-08;100 nA
0,050048828125;48,8410398766882;1,4373779296875E-09;0,050079345703125;2;81;2,74178013205528E-08;-2,47418507933617E-08;100 nA
0,10009765625;49,3415278754246;1,4801025390625E-09;0,100067138671875;2;82;2,74178013205528E-08;-2,47418507933617E-08;100 nA
0,150146484375;49,842015874161;1,806640625E-09;0,1500244140625;2;83;2,74178013205528E-08;-2,47418507933617E-08;100 nA
0,2001953125;50,3425038728974;2,38037109375E-09;0,200042724609375;2;84;2,74178013205528E-08;-2,47418507933617E-08;100 nA
0,250244140625;50,8429918716338;1,995849609375E-09;0,250030517578125;2;85;2,74178013205528E-08;-2,47418507933617E-08;100 nA
0,30029296875;51,3434798703702;1,7822265625E-09;0,300018310546875;2;86;2,74178013205528E-08;-2,47418507933617E-08;100 nA
0,350341796875;51,8439678691066;1,7059326171875E-09;0,35009765625;2;87;2,74178013205528E-08;-2,47418507933617E-08;100 nA
0,400390625;52,344455867843;1,6357421875E-09;0,400146484375;2;88;2,74178013205528E-08;-2,47418507933617E-08;100 nA
0,450439453125;52,8449438665793;1,4984130859375E-09;0,4500732421875;2;89;2,74178013205528E-08;-2,47418507933617E-08;100 nA
0,50048828125;53,3454318653157;1,3763427734375E-09;0,500030517578125;2;90;2,74178013205528E-08;-2,47418507933617E-08;100 nA
0,550537109375;53,8459198640521;1,3092041015625E-09;0,550079345703125;2;91;2,74178013205528E-08;-2,47418507933617E-08;100 nA
0,6005859375;54,3464078627885;1,23291015625E-09;0,600006103515625;2;92;2,74178013205528E-08;-2,47418507933617E-08;100 nA
0,650634765625;54,8468958615249;1,1932373046875E-09;0,649993896484375;2;93;2,74178013205528E-08;-2,47418507933617E-08;100 nA
0,70068359375;55,3473838602613;1,1749267578125E-09;0,699859619140625;2;94;2,74178013205528E-08;-2,47418507933617E-08;100 nA
0,750732421875;55,8478718589977;1,1871337890625E-09;0,74981689453125;2;95;2,74178013205528E-08;-2,47418507933617E-08;100 nA
0,80078125;56,3483598577341;1,2298583984375E-09;0,799560546875;2;96;2,74178013205528E-08;-2,47418507933617E-08;100 nA
0,850830078125;56,8488478564705;1,33056640625E-09;0,849609375;2;97;2,74178013205528E-08;-2,47418507933617E-08;100 nA
0,90087890625;57,3493358552068;1,4801025390625E-09;0,899658203125;2;98;2,74178013205528E-08;-2,47418507933617E-08;100 nA
0,950927734375;57,8498238539432;1,6998291015625E-09;0,95001220703125;2;99;2,74178013205528E-08;-2,47418507933617E-08;100 nA
1,0009765625;58,3503118526796;1,9500732421875E-09;0,999755859375;2;100;2,74178013205528E-08;-2,47418507933617E-08;100 nA
0,950927734375;58,850799851416;1,0162353515625E-09;0,94940185546875;2;101;2,74178013205528E-08;-2,47418507933617E-08;100 nA
0,90087890625;59,3512878501524;5,462646484375E-10;0,899658203125;2;102;2,74178013205528E-08;-2,47418507933617E-08;100 nA
0,850830078125;59,8517758488888;2,777099609375E-10;0,849609375;2;103;2,74178013205528E-08;-2,47418507933617E-08;100 nA
0,80078125;60,3522638476252;1,129150390625E-10;0,799560546875;2;104;2,74178013205528E-08;-2,47418507933617E-08;100 nA
0,750732421875;60,8527518463616;-1,220703125E-11;0,74981689453125;2;105;2,74178013205528E-08;-2,47418507933617E-08;100 nA
0,70068359375;61,353239845098;-1,220703125E-10;0,699951171875;2;106;2,74178013205528E-08;-2,47418507933617E-08;100 nA
0,650634765625;61,8537278438343;-2,01416015625E-10;0,649932861328125;2;107;2,74178013205528E-08;-2,47418507933617E-08;100 nA
0,6005859375;62,3542158425707;-2,532958984375E-10;0,60003662109375;2;108;2,74178013205528E-08;-2,47418507933617E-08;100 nA
0,550537109375;62,8547038413071;-3,021240234375E-10;0,550079345703125;2;109;2,74178013205528E-08;-2,47418507933617E-08;100 nA
0,50048828125;63,3551918400435;-3,47900390625E-10;0,50006103515625;2;110;2,74178013205528E-08;-2,47418507933617E-08;100 nA
0,450439453125;63,8556798387799;-4,150390625E-10;0,4500732421875;2;111;2,74178013205528E-08;-2,47418507933617E-08;100 nA
0,400390625;64,3561678375163;-4,974365234375E-10;0,400146484375;2;112;2,74178013205528E-08;-2,47418507933617E-08;100 nA
0,350341796875;64,8566558362527;-5,828857421875E-10;0,350067138671875;2;113;2,74178013205528E-08;-2,47418507933617E-08;100 nA
0,30029296875;65,3571438349891;-6,561279296875E-10;0,30010986328125;2;114;2,74178013205528E-08;-2,47418507933617E-08;100 nA
0,250244140625;65,8576318337255;-8,60595703125E-10;0,250030517578125;2;115;2,74178013205528E-08;-2,47418507933617E-08;100 nA
0,2001953125;66,3581198324619;-1,5045166015625E-09;0,200042724609375;2;116;2,74178013205528E-08;-2,47418507933617E-08;100 nA
0,150146484375;66,8586078311982;-3,009033203125E-09;0,150146484375;2;117;2,74178013205528E-08;-2,47418507933617E-08;100 nA
0,10009765625;67,3590958299346;-2,4993896484375E-09;0,100067138671875;2;118;2,74178013205528E-08;-2,47418507933617E-08;100 nA
0,050048828125;67,859583828671;-1,6448974609375E-09;0,050079345703125;2;119;2,74178013205528E-08;-2,47418507933617E-08;100 nA
0;68,3600718274074;-1,4404296875E-09;0,0001220703125;2;120;2,74178013205528E-08;-2,47418507933617E-08;100 nA
-0,050048828125;68,8605598261438;-1,3641357421875E-09;-0,049835205078125;2;121;2,74178013205528E-08;-2,47418507933617E-08;100 nA
-0,10009765625;69,3610478248802;-1,348876953125E-09;-0,099700927734375;2;122;2,74178013205528E-08;-2,47418507933617E-08;100 nA
-0,150146484375;69,8615358236166;-1,3519287109375E-09;-0,14959716796875;2;123;2,74178013205528E-08;-2,47418507933617E-08;100 nA
-0,2001953125;70,362023822353;-1,409912109375E-09;-0,199462890625;2;124;2,74178013205528E-08;-2,47418507933617E-08;100 nA
-0,250244140625;70,8625118210894;-1,470947265625E-09;-0,249359130859375;2;125;2,74178013205528E-08;-2,47418507933617E-08;100 nA
-0,30029296875;71,3629998198257;-1,513671875E-09;-0,299285888671875;2;126;2,74178013205528E-08;-2,47418507933617E-08;100 nA
-0,350341796875;71,8634878185621;-1,5869140625E-09;-0,349151611328125;2;127;2,74178013205528E-08;-2,47418507933617E-08;100 nA
-0,400390625;72,3639758172985;-1,6937255859375E-09;-0,3990478515625;2;128;2,74178013205528E-08;-2,47418507933617E-08;100 nA
-0,450439453125;72,8644638160349;-1,8402099609375E-09;-0,448974609375;2;129;2,74178013205528E-08;-2,47418507933617E-08;100 nA
-0,50048828125;73,3649518147713;-2,008056640625E-09;-0,49884033203125;2;130;2,74178013205528E-08;-2,47418507933617E-08;100 nA
-0,550537109375;73,8654398135077;-2,13623046875E-09;-0,5487060546875;2;131;2,74178013205528E-08;-2,47418507933617E-08;100 nA
-0,6005859375;74,3659278122441;-2,2003173828125E-09;-0,5986328125;2;132;2,74178013205528E-08;-2,47418507933617E-08;100 nA
-0,650634765625;74,8664158109805;-2,1270751953125E-09;-0,648529052734375;2;133;2,74178013205528E-08;-2,47418507933617E-08;100 nA
-0,70068359375;75,3669038097169;-1,94091796875E-09;-0,69854736328125;2;134;2,74178013205528E-08;-2,47418507933617E-08;100 nA
-0,750732421875;75,8673918084532;-1,86767578125E-09;-0,748565673828125;2;135;2,74178013205528E-08;-2,47418507933617E-08;100 nA
-0,80078125;76,3678798071896;-1,885986328125E-09;-0,79864501953125;2;136;2,74178013205528E-08;-2,47418507933617E-08;100 nA
-0,850830078125;76,868367805926;-1,9134521484375E-09;-0,848388671875;2;137;2,74178013205528E-08;-2,47418507933617E-08;100 nA
-0,90087890625;77,3688558046624;-1,776123046875E-09;-0,89874267578125;2;138;2,74178013205528E-08;-2,47418507933617E-08;100 nA
-0,950927734375;77,8693438033988;-1,5594482421875E-09;-0,94879150390625;2;139;2,74178013205528E-08;-2,47418507933617E-08;100 nA
-1,0009765625;78,3698318021352;-1,3458251953125E-09;-0,99884033203125;2;140;2,74178013205528E-08;-2,47418507933617E-08;100 nA
-0,950927734375;78,8703198008716;-5,67626953125E-10;-0,9490966796875;2;141;2,74178013205528E-08;-2,47418507933617E-08;100 nA
-0,90087890625;79,370807799608;-1,77001953125E-10;-0,8990478515625;2;142;2,74178013205528E-08;-2,47418507933617E-08;100 nA
-0,850830078125;79,8712957983444;1,03759765625E-10;-0,84869384765625;2;143;2,74178013205528E-08;-2,47418507933617E-08;100 nA
-0,80078125;80,3717837970808;3,662109375E-10;-0,7989501953125;2;144;2,74178013205528E-08;-2,47418507933617E-08;100 nA
-0,750732421875;80,8722717958171;5,7373046875E-10;-0,748565673828125;2;145;2,74178013205528E-08;-2,47418507933617E-08;100 nA
-0,70068359375;81,3727597945535;7,01904296875E-10;-0,69854736328125;2;146;2,74178013205528E-08;-2,47418507933617E-08;100 nA
-0,650634765625;81,8732477932899;8,36181640625E-10;-0,6485595703125;2;147;2,74178013205528E-08;-2,47418507933617E-08;100 nA
-0,6005859375;82,3737357920263;1,01318359375E-09;-0,598602294921875;2;148;2,74178013205528E-08;-2,47418507933617E-08;100 nA
-0,550537109375;82,8742237907627;1,2115478515625E-09;-0,548736572265625;2;149;2,74178013205528E-08;-2,47418507933617E-08;100 nA
-0,50048828125;83,3747117894991;1,409912109375E-09;-0,498779296875;2;150;2,74178013205528E-08;-2,47418507933617E-08;100 nA
-0,450439453125;83,8751997882355;1,57470703125E-09;-0,449005126953125;2;151;2,74178013205528E-08;-2,47418507933617E-08;100 nA
-0,400390625;84,3756877869719;1,66015625E-09;-0,39910888671875;2;152;2,74178013205528E-08;-2,47418507933617E-08;100 nA
-0,350341796875;84,8761757857083;1,6815185546875E-09;-0,34918212890625;2;153;2,74178013205528E-08;-2,47418507933617E-08;100 nA
-0,30029296875;85,3766637844446;1,69677734375E-09;-0,299224853515625;2;154;2,74178013205528E-08;-2,47418507933617E-08;100 nA
-0,250244140625;85,877151783181;1,6357421875E-09;-0,249298095703125;2;155;2,74178013205528E-08;-2,47418507933617E-08;100 nA
-0,2001953125;86,3776397819174;1,580810546875E-09;-0,19940185546875;2;156;2,74178013205528E-08;-2,47418507933617E-08;100 nA
-0,150146484375;86,8781277806538;1,519775390625E-09;-0,1495361328125;2;157;2,74178013205528E-08;-2,47418507933617E-08;100 nA
-0,10009765625;87,3786157793902;1,4923095703125E-09;-0,09967041015625;2;158;2,74178013205528E-08;-2,47418507933617E-08;100 nA
-0,050048828125;87,8791037781266;1,4434814453125E-09;-0,0498046875;2;159;2,74178013205528E-08;-2,47418507933617E-08;100 nA
0;88,379591776863;1,4404296875E-09;0,000131225585937506;2;160;2,74178013205528E-08;-2,47418507933617E-08;100 nA
0,050048828125;88,8800797755994;1,4556884765625E-09;0,05010986328125;3;161;2,68160179257393E-08;-2,38697230815887E-08;100 nA
0,10009765625;89,3805677743358;1,5045166015625E-09;0,10003662109375;3;162;2,68160179257393E-08;-2,38697230815887E-08;100 nA
0,150146484375;89,8810557730721;1,9775390625E-09;0,150054931640625;3;163;2,68160179257393E-08;-2,38697230815887E-08;100 nA
0,2001953125;90,3815437718085;2,3345947265625E-09;0,200042724609375;3;164;2,68160179257393E-08;-2,38697230815887E-08;100 nA
0,250244140625;90,8820317705449;1,953125E-09;0,250030517578125;3;165;2,68160179257393E-08;-2,38697230815887E-08;100 nA
0,30029296875;91,3825197692813;1,79443359375E-09;0,300079345703125;3;166;2,68160179257393E-08;-2,38697230815887E-08;100 nA
0,350341796875;91,8830077680177;1,7242431640625E-09;0,350128173828125;3;167;2,68160179257393E-08;-2,38697230815887E-08;100 nA
0,400390625;92,3834957667541;1,62353515625E-09;0,400115966796875;3;168;2,68160179257393E-08;-2,38697230815887E-08;100 nA
0,450439453125;92,8839837654905;1,4984130859375E-09;0,450103759765625;3;169;2,68160179257393E-08;-2,38697230815887E-08;100 nA
0,50048828125;93,3844717642269;1,3763427734375E-09;0,50006103515625;3;170;2,68160179257393E-08;-2,38697230815887E-08;100 nA
0,550537109375;93,8849597629633;1,2847900390625E-09;0,550048828125;3;171;2,68160179257393E-08;-2,38697230815887E-08;100 nA
0,6005859375;94,3854477616997;1,2237548828125E-09;0,60003662109375;3;172;2,68160179257393E-08;-2,38697230815887E-08;100 nA
0,650634765625;94,885935760436;1,171875E-09;0,649993896484375;3;173;2,68160179257393E-08;-2,38697230815887E-08;100 nA
0,70068359375;95,3864237591724;1,153564453125E-09;0,699920654296875;3;174;2,68160179257393E-08;-2,38697230815887E-08;100 nA
0,750732421875;95,8869117579088;1,165771484375E-09;0,749786376953125;3;175;2,68160179257393E-08;-2,38697230815887E-08;100 nA
0,80078125;96,3873997566452;1,226806640625E-09;0,79986572265625;3;176;2,68160179257393E-08;-2,38697230815887E-08;100 nA
0,850830078125;96,8878877553816;1,3031005859375E-09;0,84930419921875;3;177;2,68160179257393E-08;-2,38697230815887E-08;100 nA
0,90087890625;97,388375754118;1,4892578125E-09;0,899658203125;3;178;2,68160179257393E-08;-2,38697230815887E-08;100 nA
0,950927734375;97,8888637528544;1,6998291015625E-09;0,94940185546875;3;179;2,68160179257393E-08;-2,38697230815887E-08;100 nA
1,0009765625;98,3893517515908;1,9561767578125E-09;0,99945068359375;3;180;2,68160179257393E-08;-2,38697230815887E-08;100 nA
0,950927734375;98,8898397503272;9,8876953125E-10;0,9490966796875;3;181;2,68160179257393E-08;-2,38697230815887E-08;100 nA
0,90087890625;99,3903277490635;5,2490234375E-10;0,899658203125;3;182;2,68160179257393E-08;-2,38697230815887E-08;100 nA
0,850830078125;99,8908157477999;2,38037109375E-10;0,84991455078125;3;183;2,68160179257393E-08;-2,38697230815887E-08;100 nA
0,80078125;100,391303746536;7,01904296875E-11;0,799560546875;3;184;2,68160179257393E-08;-2,38697230815887E-08;100 nA
0,750732421875;100,891791745273;-4,57763671875E-11;0,74981689453125;3;185;2,68160179257393E-08;-2,38697230815887E-08;100 nA
0,70068359375;101,392279744009;-1,5869140625E-10;0,69989013671875;3;186;2,68160179257393E-08;-2,38697230815887E-08;100 nA
0,650634765625;101,892767742745;-2,197265625E-10;0,649993896484375;3;187;2,68160179257393E-08;-2,38697230815887E-08;100 nA
0,6005859375;102,393255741482;-2,716064453125E-10;0,60009765625;3;188;2,68160179257393E-08;-2,38697230815887E-08;100 nA
0,550537109375;102,893743740218;-3,11279296875E-10;0,550048828125;3;189;2,68160179257393E-08;-2,38697230815887E-08;100 nA
0,50048828125;103,394231738955;-3,60107421875E-10;0,500091552734375;3;190;2,68160179257393E-08;-2,38697230815887E-08;100 nA
0,450439453125;103,894719737691;-4,180908203125E-10;0,450103759765625;3;191;2,68160179257393E-08;-2,38697230815887E-08;100 nA
0,400390625;104,395207736427;-4,974365234375E-10;0,400115966796875;3;192;2,68160179257393E-08;-2,38697230815887E-08;100 nA
0,350341796875;104,895695735164;-5,79833984375E-10;0,350128173828125;3;193;2,68160179257393E-08;-2,38697230815887E-08;100 nA
0,30029296875;105,3961837339;-6,744384765625E-10;0,300018310546875;3;194;2,68160179257393E-08;-2,38697230815887E-08;100 nA
0,250244140625;105,896671732637;-8,36181640625E-10;0,250091552734375;3;195;2,68160179257393E-08;-2,38697230815887E-08;100 nA
0,2001953125;106,397159731373;-1,3702392578125E-09;0,2000732421875;3;196;2,68160179257393E-08;-2,38697230815887E-08;100 nA
0,150146484375;106,897647730109;-2,9083251953125E-09;0,15008544921875;3;197;2,68160179257393E-08;-2,38697230815887E-08;100 nA
0,10009765625;107,398135728846;-2,6214599609375E-09;0,10003662109375;3;198;2,68160179257393E-08;-2,38697230815887E-08;100 nA
0,050048828125;107,898623727582;-1,72119140625E-09;0,05010986328125;3;199;2,68160179257393E-08;-2,38697230815887E-08;100 nA
0;108,399111726319;-1,4617919921875E-09;0,000131225585937506;3;200;2,68160179257393E-08;-2,38697230815887E-08;100 nA
-0,050048828125;108,899599725055;-1,37939453125E-09;-0,049774169921875;3;201;2,68160179257393E-08;-2,38697230815887E-08;100 nA
-0,10009765625;109,400087723791;-1,3458251953125E-09;-0,0997314453125;3;202;2,68160179257393E-08;-2,38697230815887E-08;100 nA
-0,150146484375;109,900575722528;-1,3519287109375E-09;-0,14959716796875;3;203;2,68160179257393E-08;-2,38697230815887E-08;100 nA
-0,2001953125;110,401063721264;-1,3580322265625E-09;-0,199462890625;3;204;2,68160179257393E-08;-2,38697230815887E-08;100 nA
-0,250244140625;110,901551720001;-1,3763427734375E-09;-0,249420166015625;3;205;2,68160179257393E-08;-2,38697230815887E-08;100 nA
-0,30029296875;111,402039718737;-1,46484375E-09;-0,29925537109375;3;206;2,68160179257393E-08;-2,38697230815887E-08;100 nA
-0,350341796875;111,902527717473;-1,531982421875E-09;-0,34912109375;3;207;2,68160179257393E-08;-2,38697230815887E-08;100 nA
-0,400390625;112,40301571621;-1,6143798828125E-09;-0,399017333984375;3;208;2,68160179257393E-08;-2,38697230815887E-08;100 nA
-0,450439453125;112,903503714946;-1,776123046875E-09;-0,44891357421875;3;209;2,68160179257393E-08;-2,38697230815887E-08;100 nA
-0,50048828125;113,403991713682;-1,9256591796875E-09;-0,498809814453125;3;210;2,68160179257393E-08;-2,38697230815887E-08;100 nA
-0,550537109375;113,904479712419;-2,0355224609375E-09;-0,548736572265625;3;211;2,68160179257393E-08;-2,38697230815887E-08;100 nA
-0,6005859375;114,404967711155;-2,0660400390625E-09;-0,598602294921875;3;212;2,68160179257393E-08;-2,38697230815887E-08;100 nA
-0,650634765625;114,905455709892;-1,983642578125E-09;-0,6485595703125;3;213;2,68160179257393E-08;-2,38697230815887E-08;100 nA
-0,70068359375;115,405943708628;-1,8280029296875E-09;-0,698455810546875;3;214;2,68160179257393E-08;-2,38697230815887E-08;100 nA
-0,750732421875;115,906431707364;-1,727294921875E-09;-0,74853515625;3;215;2,68160179257393E-08;-2,38697230815887E-08;100 nA
-0,80078125;116,406919706101;-1,751708984375E-09;-0,79925537109375;3;216;2,68160179257393E-08;-2,38697230815887E-08;100 nA
-0,850830078125;116,907407704837;-1,7242431640625E-09;-0,84869384765625;3;217;2,68160179257393E-08;-2,38697230815887E-08;100 nA
-0,90087890625;117,407895703574;-1,5716552734375E-09;-0,89874267578125;3;218;2,68160179257393E-08;-2,38697230815887E-08;100 nA
-0,950927734375;117,90838370231;-1,3641357421875E-09;-0,9490966796875;3;219;2,68160179257393E-08;-2,38697230815887E-08;100 nA
-1,0009765625;118,408871701046;-1,2786865234375E-09;-0,99884033203125;3;220;2,68160179257393E-08;-2,38697230815887E-08;100 nA
-0,950927734375;118,909359699783;-5,767822265625E-10;-0,94879150390625;3;221;2,68160179257393E-08;-2,38697230815887E-08;100 nA
-0,90087890625;119,409847698519;-2,044677734375E-10;-0,8990478515625;3;222;2,68160179257393E-08;-2,38697230815887E-08;100 nA
-0,850830078125;119,910335697256;6,40869140625E-11;-0,84869384765625;3;223;2,68160179257393E-08;-2,38697230815887E-08;100 nA
-0,80078125;120,410823695992;3,082275390625E-10;-0,79864501953125;3;224;2,68160179257393E-08;-2,38697230815887E-08;100 nA
-0,750732421875;120,911311694728;5,06591796875E-10;-0,74853515625;3;225;2,68160179257393E-08;-2,38697230815887E-08;100 nA
-0,70068359375;121,411799693465;6,439208984375E-10;-0,698638916015625;3;226;2,68160179257393E-08;-2,38697230815887E-08;100 nA
-0,650634765625;121,912287692201;7,8125E-10;-0,648590087890625;3;227;2,68160179257393E-08;-2,38697230815887E-08;100 nA
-0,6005859375;122,412775690937;9,521484375E-10;-0,5986328125;3;228;2,68160179257393E-08;-2,38697230815887E-08;100 nA
-0,550537109375;122,913263689674;1,1322021484375E-09;-0,54876708984375;3;229;2,68160179257393E-08;-2,38697230815887E-08;100 nA
-0,50048828125;123,41375168841;1,3397216796875E-09;-0,49884033203125;3;230;2,68160179257393E-08;-2,38697230815887E-08;100 nA
-0,450439453125;123,914239687147;1,4892578125E-09;-0,448944091796875;3;231;2,68160179257393E-08;-2,38697230815887E-08;100 nA
-0,400390625;124,414727685883;1,593017578125E-09;-0,3990478515625;3;232;2,68160179257393E-08;-2,38697230815887E-08;100 nA
-0,350341796875;124,915215684619;1,629638671875E-09;-0,349212646484375;3;233;2,68160179257393E-08;-2,38697230815887E-08;100 nA
-0,30029296875;125,415703683356;1,62353515625E-09;-0,299285888671875;3;234;2,68160179257393E-08;-2,38697230815887E-08;100 nA
-0,250244140625;125,916191682092;1,5869140625E-09;-0,24932861328125;3;235;2,68160179257393E-08;-2,38697230815887E-08;100 nA
-0,2001953125;126,416679680829;1,495361328125E-09;-0,199462890625;3;236;2,68160179257393E-08;-2,38697230815887E-08;100 nA
-0,150146484375;126,917167679565;1,4556884765625E-09;-0,149627685546875;3;237;2,68160179257393E-08;-2,38697230815887E-08;100 nA
-0,10009765625;127,417655678301;1,4312744140625E-09;-0,099700927734375;3;238;2,68160179257393E-08;-2,38697230815887E-08;100 nA
-0,050048828125;127,918143677038;1,4068603515625E-09;-0,04986572265625;3;239;2,68160179257393E-08;-2,38697230815887E-08;100 nA
0;128,418631675774;1,4007568359375E-09;0,000112915039062494;3;240;2,68160179257393E-08;-2,38697230815887E-08;100 nA
0,050048828125;128,919119674511;1,4312744140625E-09;0,050048828125;4;241;2,74697318673134E-08;-2,38773599267006E-08;100 nA
0,10009765625;129,419607673247;1,483154296875E-09;0,10009765625;4;242;2,74697318673134E-08;-2,38773599267006E-08;100 nA
0,150146484375;129,920095671983;2,044677734375E-09;0,150054931640625;4;243;2,74697318673134E-08;-2,38773599267006E-08;100 nA
0,2001953125;130,42058367072;2,264404296875E-09;0,20001220703125;4;244;2,74697318673134E-08;-2,38773599267006E-08;100 nA
0,250244140625;130,921071669456;1,9012451171875E-09;0,25006103515625;4;245;2,74697318673134E-08;-2,38773599267006E-08;100 nA
0,30029296875;131,421559668192;1,7578125E-09;0,300079345703125;4;246;2,74697318673134E-08;-2,38773599267006E-08;100 nA
0,350341796875;131,922047666929;1,690673828125E-09;0,35009765625;4;247;2,74697318673134E-08;-2,38773599267006E-08;100 nA
0,400390625;132,422535665665;1,593017578125E-09;0,400115966796875;4;248;2,74697318673134E-08;-2,38773599267006E-08;100 nA
0,450439453125;132,923023664402;1,495361328125E-09;0,450103759765625;4;249;2,74697318673134E-08;-2,38773599267006E-08;100 nA
0,50048828125;133,423511663138;1,3885498046875E-09;0,500030517578125;4;250;2,74697318673134E-08;-2,38773599267006E-08;100 nA
0,550537109375;133,923999661874;1,3031005859375E-09;0,550079345703125;4;251;2,74697318673134E-08;-2,38773599267006E-08;100 nA
0,6005859375;134,424487660611;1,2420654296875E-09;0,600067138671875;4;252;2,74697318673134E-08;-2,38773599267006E-08;100 nA
0,650634765625;134,924975659347;1,1932373046875E-09;0,649993896484375;4;253;2,74697318673134E-08;-2,38773599267006E-08;100 nA
0,70068359375;135,425463658084;1,177978515625E-09;0,69989013671875;4;254;2,74697318673134E-08;-2,38773599267006E-08;100 nA
0,750732421875;135,92595165682;1,1962890625E-09;0,74981689453125;4;255;2,74697318673134E-08;-2,38773599267006E-08;100 nA
0,80078125;136,426439655556;1,263427734375E-09;0,799560546875;4;256;2,74697318673134E-08;-2,38773599267006E-08;100 nA
0,850830078125;136,926927654293;1,3885498046875E-09;0,84991455078125;4;257;2,74697318673134E-08;-2,38773599267006E-08;100 nA
0,90087890625;137,427415653029;1,556396484375E-09;0,89996337890625;4;258;2,74697318673134E-08;-2,38773599267006E-08;100 nA
0,950927734375;137,927903651766;1,7730712890625E-09;0,94940185546875;4;259;2,74697318673134E-08;-2,38773599267006E-08;100 nA
1,0009765625;138,428391650502;2,069091796875E-09;0,9991455078125;4;260;2,74697318673134E-08;-2,38773599267006E-08;100 nA
0,950927734375;138,928879649238;1,0772705078125E-09;0,94940185546875;4;261;2,74697318673134E-08;-2,38773599267006E-08;100 nA
0,90087890625;139,429367647975;5,859375E-10;0,89935302734375;4;262;2,74697318673134E-08;-2,38773599267006E-08;100 nA
0,850830078125;139,929855646711;2,9296875E-10;0,8502197265625;4;263;2,74697318673134E-08;-2,38773599267006E-08;100 nA
0,80078125;140,430343645447;1,40380859375E-10;0,79986572265625;4;264;2,74697318673134E-08;-2,38773599267006E-08;100 nA
0,750732421875;140,930831644184;0;0,74981689453125;4;265;2,74697318673134E-08;-2,38773599267006E-08;100 nA
0,70068359375;141,43131964292;-1,15966796875E-10;0,699951171875;4;266;2,74697318673134E-08;-2,38773599267006E-08;100 nA
0,650634765625;141,931807641657;-1,861572265625E-10;0,650054931640625;4;267;2,74697318673134E-08;-2,38773599267006E-08;100 nA
0,6005859375;142,432295640393;-2,5634765625E-10;0,600128173828125;4;268;2,74697318673134E-08;-2,38773599267006E-08;100 nA
0,550537109375;142,932783639129;-2,899169921875E-10;0,550079345703125;4;269;2,74697318673134E-08;-2,38773599267006E-08;100 nA
0,50048828125;143,433271637866;-3,2958984375E-10;0,500091552734375;4;270;2,74697318673134E-08;-2,38773599267006E-08;100 nA
0,450439453125;143,933759636602;-4,0283203125E-10;0,450042724609375;4;271;2,74697318673134E-08;-2,38773599267006E-08;100 nA
0,400390625;144,434247635339;-4,791259765625E-10;0,40008544921875;4;272;2,74697318673134E-08;-2,38773599267006E-08;100 nA
0,350341796875;144,934735634075;-5,92041015625E-10;0,350128173828125;4;273;2,74697318673134E-08;-2,38773599267006E-08;100 nA
0,30029296875;145,435223632811;-6,927490234375E-10;0,300079345703125;4;274;2,74697318673134E-08;-2,38773599267006E-08;100 nA
0,250244140625;145,935711631548;-8,36181640625E-10;0,2501220703125;4;275;2,74697318673134E-08;-2,38773599267006E-08;100 nA
0,2001953125;146,436199630284;-1,3092041015625E-09;0,200042724609375;4;276;2,74697318673134E-08;-2,38773599267006E-08;100 nA
0,150146484375;146,936687629021;-2,825927734375E-09;0,150054931640625;4;277;2,74697318673134E-08;-2,38773599267006E-08;100 nA
0,10009765625;147,437175627757;-2,7313232421875E-09;0,10009765625;4;278;2,74697318673134E-08;-2,38773599267006E-08;100 nA
0,050048828125;147,937663626493;-1,7913818359375E-09;0,050079345703125;4;279;2,74697318673134E-08;-2,38773599267006E-08;100 nA
0;148,43815162523;-1,52587890625E-09;0,0001373291015625;4;280;2,74697318673134E-08;-2,38773599267006E-08;100 nA
-0,050048828125;148,938639623966;-1,434326171875E-09;-0,049774169921875;4;281;2,74697318673134E-08;-2,38773599267006E-08;100 nA
-0,10009765625;149,439127622702;-1,4007568359375E-09;-0,09967041015625;4;282;2,74697318673134E-08;-2,38773599267006E-08;100 nA
-0,150146484375;149,939615621439;-1,40380859375E-09;-0,149566650390625;4;283;2,74697318673134E-08;-2,38773599267006E-08;100 nA
-0,2001953125;150,440103620175;-1,4190673828125E-09;-0,199432373046875;4;284;2,74697318673134E-08;-2,38773599267006E-08;100 nA
-0,250244140625;150,940591618912;-1,458740234375E-09;-0,249359130859375;4;285;2,74697318673134E-08;-2,38773599267006E-08;100 nA
-0,30029296875;151,441079617648;-1,513671875E-09;-0,29925537109375;4;286;2,74697318673134E-08;-2,38773599267006E-08;100 nA
-0,350341796875;151,941567616384;-1,5869140625E-09;-0,349212646484375;4;287;2,74697318673134E-08;-2,38773599267006E-08;100 nA
-0,400390625;152,442055615121;-1,6815185546875E-09;-0,399078369140625;4;288;2,74697318673134E-08;-2,38773599267006E-08;100 nA
-0,450439453125;152,942543613857;-1,8463134765625E-09;-0,448944091796875;4;289;2,74697318673134E-08;-2,38773599267006E-08;100 nA
-0,50048828125;153,443031612594;-1,9683837890625E-09;-0,498870849609375;4;290;2,74697318673134E-08;-2,38773599267006E-08;100 nA
-0,550537109375;153,94351961133;-2,0599365234375E-09;-0,548736572265625;4;291;2,74697318673134E-08;-2,38773599267006E-08;100 nA
-0,6005859375;154,444007610066;-2,0721435546875E-09;-0,5986328125;4;292;2,74697318673134E-08;-2,38773599267006E-08;100 nA
-0,650634765625;154,944495608803;-1,959228515625E-09;-0,64862060546875;4;293;2,74697318673134E-08;-2,38773599267006E-08;100 nA
-0,70068359375;155,444983607539;-1,8341064453125E-09;-0,6986083984375;4;294;2,74697318673134E-08;-2,38773599267006E-08;100 nA
-0,750732421875;155,945471606276;-1,708984375E-09;-0,74853515625;4;295;2,74697318673134E-08;-2,38773599267006E-08;100 nA
-0,80078125;156,445959605012;-1,7059326171875E-09;-0,7989501953125;4;296;2,74697318673134E-08;-2,38773599267006E-08;100 nA
-0,850830078125;156,946447603748;-1,6448974609375E-09;-0,848388671875;4;297;2,74697318673134E-08;-2,38773599267006E-08;100 nA
-0,90087890625;157,446935602485;-1,4251708984375E-09;-0,89874267578125;4;298;2,74697318673134E-08;-2,38773599267006E-08;100 nA
-0,950927734375;157,947423601221;-1,251220703125E-09;-0,948486328125;4;299;2,74697318673134E-08;-2,38773599267006E-08;100 nA
-1,0009765625;158,447911599957;-1,2298583984375E-09;-0,99884033203125;4;300;2,74697318673134E-08;-2,38773599267006E-08;100 nA
-0,950927734375;158,948399598694;-5,55419921875E-10;-0,9490966796875;4;301;2,74697318673134E-08;-2,38773599267006E-08;100 nA
-0,90087890625;159,44888759743;-1,8310546875E-10;-0,8990478515625;4;302;2,74697318673134E-08;-2,38773599267006E-08;100 nA
-0,850830078125;159,949375596167;7,9345703125E-11;-0,8489990234375;4;303;2,74697318673134E-08;-2,38773599267006E-08;100 nA
-0,80078125;160,449863594903;3,143310546875E-10;-0,7989501953125;4;304;2,74697318673134E-08;-2,38773599267006E-08;100 nA
-0,750732421875;160,950351593639;5,2490234375E-10;-0,748565673828125;4;305;2,74697318673134E-08;-2,38773599267006E-08;100 nA
-0,70068359375;161,450839592376;6,622314453125E-10;-0,6986083984375;4;306;2,74697318673134E-08;-2,38773599267006E-08;100 nA
-0,650634765625;161,951327591112;8,11767578125E-10;-0,648529052734375;4;307;2,74697318673134E-08;-2,38773599267006E-08;100 nA
-0,6005859375;162,451815589849;9,735107421875E-10;-0,598602294921875;4;308;2,74697318673134E-08;-2,38773599267006E-08;100 nA
-0,550537109375;162,952303588585;1,177978515625E-09;-0,548736572265625;4;309;2,74697318673134E-08;-2,38773599267006E-08;100 nA
-0,50048828125;163,452791587321;1,373291015625E-09;-0,498870849609375;4;310;2,74697318673134E-08;-2,38773599267006E-08;100 nA
-0,450439453125;163,953279586058;1,5228271484375E-09;-0,448974609375;4;311;2,74697318673134E-08;-2,38773599267006E-08;100 nA
-0,400390625;164,453767584794;1,6326904296875E-09;-0,39910888671875;4;312;2,74697318673134E-08;-2,38773599267006E-08;100 nA
-0,350341796875;164,954255583531;1,678466796875E-09;-0,34918212890625;4;313;2,74697318673134E-08;-2,38773599267006E-08;100 nA
-0,30029296875;165,454743582267;1,678466796875E-09;-0,299224853515625;4;314;2,74697318673134E-08;-2,38773599267006E-08;100 nA
-0,250244140625;165,955231581003;1,6357421875E-09;-0,249298095703125;4;315;2,74697318673134E-08;-2,38773599267006E-08;100 nA
-0,2001953125;166,45571957974;1,568603515625E-09;-0,199493408203125;4;316;2,74697318673134E-08;-2,38773599267006E-08;100 nA
-0,150146484375;166,956207578476;1,5228271484375E-09;-0,149566650390625;4;317;2,74697318673134E-08;-2,38773599267006E-08;100 nA
-0,10009765625;167,456695577212;1,495361328125E-09;-0,099639892578125;4;318;2,74697318673134E-08;-2,38773599267006E-08;100 nA
-0,050048828125;167,957183575949;1,4617919921875E-09;-0,04974365234375;4;319;2,74697318673134E-08;-2,38773599267006E-08;100 nA
0;168,457671574685;1,4617919921875E-09;0,000112915039062494;4;320;2,74697318673134E-08;-2,38773599267006E-08;100 nA
0,050048828125;168,958159573422;1,4862060546875E-09;0,050079345703125;5;321;2,68419831991196E-08;-2,34619155526161E-08;100 nA
0,10009765625;169,458647572158;1,5411376953125E-09;0,100067138671875;5;322;2,68419831991196E-08;-2,34619155526161E-08;100 nA
0,150146484375;169,959135570894;2,16064453125E-09;0,15008544921875;5;323;2,68419831991196E-08;-2,34619155526161E-08;100 nA
0,2001953125;170,459623569631;2,252197265625E-09;0,20001220703125;5;324;2,68419831991196E-08;-2,34619155526161E-08;100 nA
0,250244140625;170,960111568367;1,9012451171875E-09;0,25006103515625;5;325;2,68419831991196E-08;-2,34619155526161E-08;100 nA
0,30029296875;171,460599567104;1,7578125E-09;0,30010986328125;5;326;2,68419831991196E-08;-2,34619155526161E-08;100 nA
0,350341796875;171,96108756584;1,6815185546875E-09;0,350128173828125;5;327;2,68419831991196E-08;-2,34619155526161E-08;100 nA
0,400390625;172,461575564576;1,580810546875E-09;0,40008544921875;5;328;2,68419831991196E-08;-2,34619155526161E-08;100 nA
0,450439453125;172,962063563313;1,4556884765625E-09;0,450164794921875;5;329;2,68419831991196E-08;-2,34619155526161E-08;100 nA
0,50048828125;173,462551562049;1,3427734375E-09;0,50006103515625;5;330;2,68419831991196E-08;-2,34619155526161E-08;100 nA
0,550537109375;173,963039560786;1,25732421875E-09;0,550079345703125;5;331;2,68419831991196E-08;-2,34619155526161E-08;100 nA
0,6005859375;174,463527559522;1,18408203125E-09;0,600067138671875;5;332;2,68419831991196E-08;-2,34619155526161E-08;100 nA
0,650634765625;174,964015558258;1,1444091796875E-09;0,649993896484375;5;333;2,68419831991196E-08;-2,34619155526161E-08;100 nA
0,70068359375;175,464503556995;1,1322021484375E-09;0,69989013671875;5;334;2,68419831991196E-08;-2,34619155526161E-08;100 nA
0,750732421875;175,964991555731;1,1505126953125E-09;0,74981689453125;5;335;2,68419831991196E-08;-2,34619155526161E-08;100 nA
0,80078125;176,465479554467;1,220703125E-09;0,79986572265625;5;336;2,68419831991196E-08;-2,34619155526161E-08;100 nA
0,850830078125;176,965967553204;1,3458251953125E-09;0,849609375;5;337;2,68419831991196E-08;-2,34619155526161E-08;100 nA
0,90087890625;177,46645555194;1,5167236328125E-09;0,89935302734375;5;338;2,68419831991196E-08;-2,34619155526161E-08;100 nA
0,950927734375;177,966943550677;1,7333984375E-09;0,94970703125;5;339;2,68419831991196E-08;-2,34619155526161E-08;100 nA
1,0009765625;178,467431549413;2,05078125E-09;0,99945068359375;5;340;2,68419831991196E-08;-2,34619155526161E-08;100 nA
0,950927734375;178,967919548149;1,03759765625E-09;0,94940185546875;5;341;2,68419831991196E-08;-2,34619155526161E-08;100 nA
0,90087890625;179,468407546886;5,401611328125E-10;0,899658203125;5;342;2,68419831991196E-08;-2,34619155526161E-08;100 nA
0,850830078125;179,968895545622;2,471923828125E-10;0,84991455078125;5;343;2,68419831991196E-08;-2,34619155526161E-08;100 nA
0,80078125;180,469383544359;4,8828125E-11;0,80047607421875;5;344;2,68419831991196E-08;-2,34619155526161E-08;100 nA
0,750732421875;180,969871543095;-6,40869140625E-11;0,749786376953125;5;345;2,68419831991196E-08;-2,34619155526161E-08;100 nA
0,70068359375;181,470359541831;-1,64794921875E-10;0,699920654296875;5;346;2,68419831991196E-08;-2,34619155526161E-08;100 nA
0,650634765625;181,970847540568;-2,5634765625E-10;0,6500244140625;5;347;2,68419831991196E-08;-2,34619155526161E-08;100 nA
0,6005859375;182,471335539304;-3,021240234375E-10;0,600067138671875;5;348;2,68419831991196E-08;-2,34619155526161E-08;100 nA
0,550537109375;182,971823538041;-3,387451171875E-10;0,550140380859375;5;349;2,68419831991196E-08;-2,34619155526161E-08;100 nA
0,50048828125;183,472311536777;-3,7841796875E-10;0,50006103515625;5;350;2,68419831991196E-08;-2,34619155526161E-08;100 nA
0,450439453125;183,972799535513;-4,21142578125E-10;0,4500732421875;5;351;2,68419831991196E-08;-2,34619155526161E-08;100 nA
0,400390625;184,47328753425;-4,94384765625E-10;0,40008544921875;5;352;2,68419831991196E-08;-2,34619155526161E-08;100 nA
0,350341796875;184,973775532986;-5,828857421875E-10;0,35009765625;5;353;2,68419831991196E-08;-2,34619155526161E-08;100 nA
0,30029296875;185,474263531723;-6,622314453125E-10;0,300079345703125;5;354;2,68419831991196E-08;-2,34619155526161E-08;100 nA
0,250244140625;185,974751530459;-7,99560546875E-10;0,250091552734375;5;355;2,68419831991196E-08;-2,34619155526161E-08;100 nA
0,2001953125;186,475239529195;-1,214599609375E-09;0,200042724609375;5;356;2,68419831991196E-08;-2,34619155526161E-08;100 nA
0,150146484375;186,975727527932;-2,6702880859375E-09;0,15008544921875;5;357;2,68419831991196E-08;-2,34619155526161E-08;100 nA
0,10009765625;187,476215526668;-2,74658203125E-09;0,100067138671875;5;358;2,68419831991196E-08;-2,34619155526161E-08;100 nA
0,050048828125;187,976703525404;-1,8096923828125E-09;0,050140380859375;5;359;2,68419831991196E-08;-2,34619155526161E-08;100 nA
0;188,477191524141;-1,4984130859375E-09;0,0001373291015625;5;360;2,68419831991196E-08;-2,34619155526161E-08;100 nA
-0,050048828125;188,977679522877;-1,3916015625E-09;-0,0498046875;5;361;2,68419831991196E-08;-2,34619155526161E-08;100 nA
-0,10009765625;189,478167521614;-1,3580322265625E-09;-0,09967041015625;5;362;2,68419831991196E-08;-2,34619155526161E-08;100 nA
-0,150146484375;189,97865552035;-1,35498046875E-09;-0,1495361328125;5;363;2,68419831991196E-08;-2,34619155526161E-08;100 nA
-0,2001953125;190,479143519086;-1,35498046875E-09;-0,199462890625;5;364;2,68419831991196E-08;-2,34619155526161E-08;100 nA
-0,250244140625;190,979631517823;-1,397705078125E-09;-0,24932861328125;5;365;2,68419831991196E-08;-2,34619155526161E-08;100 nA
-0,30029296875;191,480119516559;-1,4434814453125E-09;-0,299224853515625;5;366;2,68419831991196E-08;-2,34619155526161E-08;100 nA
-0,350341796875;191,980607515296;-1,531982421875E-09;-0,349151611328125;5;367;2,68419831991196E-08;-2,34619155526161E-08;100 nA
-0,400390625;192,481095514032;-1,6357421875E-09;-0,39910888671875;5;368;2,68419831991196E-08;-2,34619155526161E-08;100 nA
-0,450439453125;192,981583512768;-1,788330078125E-09;-0,44891357421875;5;369;2,68419831991196E-08;-2,34619155526161E-08;100 nA
-0,50048828125;193,482071511505;-1,910400390625E-09;-0,498748779296875;5;370;2,68419831991196E-08;-2,34619155526161E-08;100 nA
-0,550537109375;193,982559510241;-1,98974609375E-09;-0,5487060546875;5;371;2,68419831991196E-08;-2,34619155526161E-08;100 nA
-0,6005859375;194,483047508978;-1,9805908203125E-09;-0,598663330078125;5;372;2,68419831991196E-08;-2,34619155526161E-08;100 nA
-0,650634765625;194,983535507714;-1,922607421875E-09;-0,6485595703125;5;373;2,68419831991196E-08;-2,34619155526161E-08;100 nA
-0,70068359375;195,48402350645;-1,7822265625E-09;-0,698577880859375;5;374;2,68419831991196E-08;-2,34619155526161E-08;100 nA
-0,750732421875;195,984511505187;-1,6876220703125E-09;-0,74859619140625;5;375;2,68419831991196E-08;-2,34619155526161E-08;100 nA
-0,80078125;196,484999503923;-1,6815185546875E-09;-0,79864501953125;5;376;2,68419831991196E-08;-2,34619155526161E-08;100 nA
-0,850830078125;196,985487502659;-1,5869140625E-09;-0,84869384765625;5;377;2,68419831991196E-08;-2,34619155526161E-08;100 nA
-0,90087890625;197,485975501396;-1,373291015625E-09;-0,89874267578125;5;378;2,68419831991196E-08;-2,34619155526161E-08;100 nA
-0,950927734375;197,986463500132;-1,2359619140625E-09;-0,9490966796875;5;379;2,68419831991196E-08;-2,34619155526161E-08;100 nA
-1,0009765625;198,486951498869;-1,239013671875E-09;-0,9991455078125;5;380;2,68419831991196E-08;-2,34619155526161E-08;100 nA
-0,950927734375;198,987439497605;-5,9814453125E-10;-0,94879150390625;5;381;2,68419831991196E-08;-2,34619155526161E-08;100 nA
-0,90087890625;199,487927496341;-2,288818359375E-10;-0,8990478515625;5;382;2,68419831991196E-08;-2,34619155526161E-08;100 nA
-0,850830078125;199,988415495078;9,1552734375E-12;-0,8489990234375;5;383;2,68419831991196E-08;-2,34619155526161E-08;100 nA
-0,80078125;200,488903493814;2,5634765625E-10;-0,79864501953125;5;384;2,68419831991196E-08;-2,34619155526161E-08;100 nA
-0,750732421875;200,989391492551;4,486083984375E-10;-0,74859619140625;5;385;2,68419831991196E-08;-2,34619155526161E-08;100 nA
-0,70068359375;201,489879491287;6,04248046875E-10;-0,698577880859375;5;386;2,68419831991196E-08;-2,34619155526161E-08;100 nA
-0,650634765625;201,990367490023;7,293701171875E-10;-0,648590087890625;5;387;2,68419831991196E-08;-2,34619155526161E-08;100 nA
-0,6005859375;202,49085548876;9,124755859375E-10;-0,59869384765625;5;388;2,68419831991196E-08;-2,34619155526161E-08;100 nA
-0,550537109375;202,991343487496;1,0986328125E-09;-0,548736572265625;5;389;2,68419831991196E-08;-2,34619155526161E-08;100 nA
-0,50048828125;203,491831486233;1,3031005859375E-09;-0,49884033203125;5;390;2,68419831991196E-08;-2,34619155526161E-08;100 nA
-0,450439453125;203,992319484969;1,458740234375E-09;-0,448974609375;5;391;2,68419831991196E-08;-2,34619155526161E-08;100 nA
-0,400390625;204,492807483705;1,59912109375E-09;-0,3990478515625;5;392;2,68419831991196E-08;-2,34619155526161E-08;100 nA
-0,350341796875;204,993295482442;1,666259765625E-09;-0,349151611328125;5;393;2,68419831991196E-08;-2,34619155526161E-08;100 nA
-0,30029296875;205,493783481178;1,666259765625E-09;-0,299285888671875;5;394;2,68419831991196E-08;-2,34619155526161E-08;100 nA
-0,250244140625;205,994271479914;1,6326904296875E-09;-0,24932861328125;5;395;2,68419831991196E-08;-2,34619155526161E-08;100 nA
-0,2001953125;206,494759478651;1,5716552734375E-09;-0,199462890625;5;396;2,68419831991196E-08;-2,34619155526161E-08;100 nA
-0,150146484375;206,995247477387;1,513671875E-09;-0,14959716796875;5;397;2,68419831991196E-08;-2,34619155526161E-08;100 nA
-0,10009765625;207,495735476124;1,4801025390625E-09;-0,09967041015625;5;398;2,68419831991196E-08;-2,34619155526161E-08;100 nA
-0,050048828125;207,99622347486;1,4556884765625E-09;-0,04974365234375;5;399;2,68419831991196E-08;-2,34619155526161E-08;100 nA
0;208,496711473596;1,4556884765625E-09;0,0001220703125;5;400;2,68419831991196E-08;-2,34619155526161E-08;100 nA
0,050048828125;208,997199472333;1,4801025390625E-09;0,05010986328125;6;401;2,69702821969986E-08;-2,33305618166923E-08;100 nA
0,10009765625;209,497687471069;1,544189453125E-09;0,100128173828125;6;402;2,69702821969986E-08;-2,33305618166923E-08;100 nA
0,150146484375;209,998175469806;2,2308349609375E-09;0,150115966796875;6;403;2,69702821969986E-08;-2,33305618166923E-08;100 nA
0,2001953125;210,498663468542;2,2247314453125E-09;0,200103759765625;6;404;2,69702821969986E-08;-2,33305618166923E-08;100 nA
0,250244140625;210,999151467278;1,8951416015625E-09;0,25006103515625;6;405;2,69702821969986E-08;-2,33305618166923E-08;100 nA
0,30029296875;211,499639466015;1,77001953125E-09;0,300079345703125;6;406;2,69702821969986E-08;-2,33305618166923E-08;100 nA
0,350341796875;212,000127464751;1,6937255859375E-09;0,35009765625;6;407;2,69702821969986E-08;-2,33305618166923E-08;100 nA
0,400390625;212,500615463488;1,5869140625E-09;0,400115966796875;6;408;2,69702821969986E-08;-2,33305618166923E-08;100 nA
0,450439453125;213,001103462224;1,4434814453125E-09;0,45013427734375;6;409;2,69702821969986E-08;-2,33305618166923E-08;100 nA
0,50048828125;213,50159146096;1,324462890625E-09;0,500091552734375;6;410;2,69702821969986E-08;-2,33305618166923E-08;100 nA
0,550537109375;214,002079459697;1,2481689453125E-09;0,550079345703125;6;411;2,69702821969986E-08;-2,33305618166923E-08;100 nA
0,6005859375;214,502567458433;1,177978515625E-09;0,60009765625;6;412;2,69702821969986E-08;-2,33305618166923E-08;100 nA
0,650634765625;215,003055457169;1,1383056640625E-09;0,6500244140625;6;413;2,69702821969986E-08;-2,33305618166923E-08;100 nA
0,70068359375;215,503543455906;1,1260986328125E-09;0,699920654296875;6;414;2,69702821969986E-08;-2,33305618166923E-08;100 nA
0,750732421875;216,004031454642;1,1474609375E-09;0,74981689453125;6;415;2,69702821969986E-08;-2,33305618166923E-08;100 nA
0,80078125;216,504519453379;1,214599609375E-09;0,799560546875;6;416;2,69702821969986E-08;-2,33305618166923E-08;100 nA
0,850830078125;217,005007452115;1,3458251953125E-09;0,849609375;6;417;2,69702821969986E-08;-2,33305618166923E-08;100 nA
0,90087890625;217,505495450851;1,52587890625E-09;0,89935302734375;6;418;2,69702821969986E-08;-2,33305618166923E-08;100 nA
0,950927734375;218,005983449588;1,763916015625E-09;0,94940185546875;6;419;2,69702821969986E-08;-2,33305618166923E-08;100 nA
1,0009765625;218,506471448324;2,0751953125E-09;0,9991455078125;6;420;2,69702821969986E-08;-2,33305618166923E-08;100 nA
0,950927734375;219,006959447061;1,0498046875E-09;0,9490966796875;6;421;2,69702821969986E-08;-2,33305618166923E-08;100 nA
0,90087890625;219,507447445797;5,462646484375E-10;0,89935302734375;6;422;2,69702821969986E-08;-2,33305618166923E-08;100 nA
0,850830078125;220,007935444533;2,50244140625E-10;0,84930419921875;6;423;2,69702821969986E-08;-2,33305618166923E-08;100 nA
0,80078125;220,50842344327;6,40869140625E-11;0,79925537109375;6;424;2,69702821969986E-08;-2,33305618166923E-08;100 nA
0,750732421875;221,008911442006;-6,103515625E-11;0,74981689453125;6;425;2,69702821969986E-08;-2,33305618166923E-08;100 nA
0,70068359375;221,509399440743;-1,708984375E-10;0,699981689453125;6;426;2,69702821969986E-08;-2,33305618166923E-08;100 nA
0,650634765625;222,009887439479;-2,532958984375E-10;0,650054931640625;6;427;2,69702821969986E-08;-2,33305618166923E-08;100 nA
0,6005859375;222,510375438215;-3,0517578125E-10;0,60003662109375;6;428;2,69702821969986E-08;-2,33305618166923E-08;100 nA
0,550537109375;223,010863436952;-3,448486328125E-10;0,550079345703125;6;429;2,69702821969986E-08;-2,33305618166923E-08;100 nA
0,50048828125;223,511351435688;-3,60107421875E-10;0,50006103515625;6;430;2,69702821969986E-08;-2,33305618166923E-08;100 nA
0,450439453125;224,011839434424;-4,180908203125E-10;0,450103759765625;6;431;2,69702821969986E-08;-2,33305618166923E-08;100 nA
0,400390625;224,512327433161;-4,8828125E-10;0,40008544921875;6;432;2,69702821969986E-08;-2,33305618166923E-08;100 nA
0,350341796875;225,012815431897;-5,7373046875E-10;0,350128173828125;6;433;2,69702821969986E-08;-2,33305618166923E-08;100 nA
0,30029296875;225,513303430634;-6,561279296875E-10;0,300048828125;6;434;2,69702821969986E-08;-2,33305618166923E-08;100 nA
0,250244140625;226,01379142937;-7,843017578125E-10;0,250030517578125;6;435;2,69702821969986E-08;-2,33305618166923E-08;100 nA
0,2001953125;226,514279428106;-1,1810302734375E-09;0,200042724609375;6;436;2,69702821969986E-08;-2,33305618166923E-08;100 nA
0,150146484375;227,014767426843;-2,55126953125E-09;0,150115966796875;6;437;2,69702821969986E-08;-2,33305618166923E-08;100 nA
0,10009765625;227,515255425579;-2,783203125E-09;0,100067138671875;6;438;2,69702821969986E-08;-2,33305618166923E-08;100 nA
0,050048828125;228,015743424316;-1,8524169921875E-09;0,05010986328125;6;439;2,69702821969986E-08;-2,33305618166923E-08;100 nA
0;228,516231423052;-1,5106201171875E-09;0,000119018554687503;6;440;2,69702821969986E-08;-2,33305618166923E-08;100 nA
-0,050048828125;229,016719421788;-1,4007568359375E-09;-0,04986572265625;6;441;2,69702821969986E-08;-2,33305618166923E-08;100 nA
-0,10009765625;229,517207420525;-1,348876953125E-09;-0,09967041015625;6;442;2,69702821969986E-08;-2,33305618166923E-08;100 nA
-0,150146484375;230,017695419261;-1,348876953125E-09;-0,1495361328125;6;443;2,69702821969986E-08;-2,33305618166923E-08;100 nA
-0,2001953125;230,518183417998;-1,35498046875E-09;-0,19940185546875;6;444;2,69702821969986E-08;-2,33305618166923E-08;100 nA
-0,250244140625;231,018671416734;-1,4007568359375E-09;-0,249359130859375;6;445;2,69702821969986E-08;-2,33305618166923E-08;100 nA
-0,30029296875;231,51915941547;-1,446533203125E-09;-0,29925537109375;6;446;2,69702821969986E-08;-2,33305618166923E-08;100 nA
-0,350341796875;232,019647414207;-1,531982421875E-09;-0,349212646484375;6;447;2,69702821969986E-08;-2,33305618166923E-08;100 nA
-0,400390625;232,520135412943;-1,6510009765625E-09;-0,399017333984375;6;448;2,69702821969986E-08;-2,33305618166923E-08;100 nA
-0,450439453125;233,020623411679;-1,79443359375E-09;-0,448974609375;6;449;2,69702821969986E-08;-2,33305618166923E-08;100 nA
-0,50048828125;233,521111410416;-1,94091796875E-09;-0,498809814453125;6;450;2,69702821969986E-08;-2,33305618166923E-08;100 nA
-0,550537109375;234,021599409152;-2,0111083984375E-09;-0,54876708984375;6;451;2,69702821969986E-08;-2,33305618166923E-08;100 nA
-0,6005859375;234,522087407889;-1,9927978515625E-09;-0,598663330078125;6;452;2,69702821969986E-08;-2,33305618166923E-08;100 nA
-0,650634765625;235,022575406625;-1,89208984375E-09;-0,648529052734375;6;453;2,69702821969986E-08;-2,33305618166923E-08;100 nA
-0,70068359375;235,523063405361;-1,751708984375E-09;-0,698577880859375;6;454;2,69702821969986E-08;-2,33305618166923E-08;100 nA
-0,750732421875;236,023551404098;-1,666259765625E-09;-0,748565673828125;6;455;2,69702821969986E-08;-2,33305618166923E-08;100 nA
-0,80078125;236,524039402834;-1,654052734375E-09;-0,7989501953125;6;456;2,69702821969986E-08;-2,33305618166923E-08;100 nA
-0,850830078125;237,024527401571;-1,531982421875E-09;-0,8489990234375;6;457;2,69702821969986E-08;-2,33305618166923E-08;100 nA
-0,90087890625;237,525015400307;-1,3092041015625E-09;-0,8990478515625;6;458;2,69702821969986E-08;-2,33305618166923E-08;100 nA
-0,950927734375;238,025503399043;-1,220703125E-09;-0,94879150390625;6;459;2,69702821969986E-08;-2,33305618166923E-08;100 nA
-1,0009765625;238,52599139778;-1,220703125E-09;-0,9991455078125;6;460;2,69702821969986E-08;-2,33305618166923E-08;100 nA
-0,950927734375;239,026479396516;-6,134033203125E-10;-0,948486328125;6;461;2,69702821969986E-08;-2,33305618166923E-08;100 nA
-0,90087890625;239,526967395253;-2,38037109375E-10;-0,8990478515625;6;462;2,69702821969986E-08;-2,33305618166923E-08;100 nA
-0,850830078125;240,027455393989;1,52587890625E-11;-0,84930419921875;6;463;2,69702821969986E-08;-2,33305618166923E-08;100 nA
-0,80078125;240,527943392725;2,471923828125E-10;-0,79833984375;6;464;2,69702821969986E-08;-2,33305618166923E-08;100 nA
-0,750732421875;241,028431391462;4,45556640625E-10;-0,748565673828125;6;465;2,69702821969986E-08;-2,33305618166923E-08;100 nA
-0,70068359375;241,528919390198;6,28662109375E-10;-0,698577880859375;6;466;2,69702821969986E-08;-2,33305618166923E-08;100 nA
-0,650634765625;242,029407388934;7,568359375E-10;-0,6485595703125;6;467;2,69702821969986E-08;-2,33305618166923E-08;100 nA
-0,6005859375;242,529895387671;9,307861328125E-10;-0,598602294921875;6;468;2,69702821969986E-08;-2,33305618166923E-08;100 nA
-0,550537109375;243,030383386407;1,129150390625E-09;-0,548736572265625;6;469;2,69702821969986E-08;-2,33305618166923E-08;100 nA
-0,50048828125;243,530871385144;1,3214111328125E-09;-0,498809814453125;6;470;2,69702821969986E-08;-2,33305618166923E-08;100 nA
-0,450439453125;244,03135938388;1,4892578125E-09;-0,44891357421875;6;471;2,69702821969986E-08;-2,33305618166923E-08;100 nA
-0,400390625;244,531847382616;1,6021728515625E-09;-0,399078369140625;6;472;2,69702821969986E-08;-2,33305618166923E-08;100 nA
-0,350341796875;245,032335381353;1,654052734375E-09;-0,349151611328125;6;473;2,69702821969986E-08;-2,33305618166923E-08;100 nA
-0,30029296875;245,532823380089;1,666259765625E-09;-0,29925537109375;6;474;2,69702821969986E-08;-2,33305618166923E-08;100 nA
-0,250244140625;246,033311378826;1,641845703125E-09;-0,24932861328125;6;475;2,69702821969986E-08;-2,33305618166923E-08;100 nA
-0,2001953125;246,533799377562;1,5838623046875E-09;-0,19952392578125;6;476;2,69702821969986E-08;-2,33305618166923E-08;100 nA
-0,150146484375;247,034287376298;1,52587890625E-09;-0,149566650390625;6;477;2,69702821969986E-08;-2,33305618166923E-08;100 nA
-0,10009765625;247,534775375035;1,483154296875E-09;-0,099700927734375;6;478;2,69702821969986E-08;-2,33305618166923E-08;100 nA
-0,050048828125;248,035263373771;1,4495849609375E-09;-0,0498046875;6;479;2,69702821969986E-08;-2,33305618166923E-08;100 nA
0;248,535751372508;1,4495849609375E-09;0,000140380859374997;6;480;2,69702821969986E-08;-2,33305618166923E-08;100 nA
0,050048828125;249,036239371244;1,470947265625E-09;0,05010986328125;7;481;2,66586989164352E-08;-2,35703587532044E-08;100 nA
0,10009765625;249,53672736998;1,5655517578125E-09;0,100067138671875;7;482;2,66586989164352E-08;-2,35703587532044E-08;100 nA
0,150146484375;250,037215368717;2,2796630859375E-09;0,15008544921875;7;483;2,66586989164352E-08;-2,35703587532044E-08;100 nA
0,2001953125;250,537703367453;2,191162109375E-09;0,2000732421875;7;484;2,66586989164352E-08;-2,35703587532044E-08;100 nA
0,250244140625;251,038191366189;1,8707275390625E-09;0,250091552734375;7;485;2,66586989164352E-08;-2,35703587532044E-08;100 nA
0,30029296875;251,538679364926;1,751708984375E-09;0,30010986328125;7;486;2,66586989164352E-08;-2,35703587532044E-08;100 nA
0,350341796875;252,039167363662;1,6845703125E-09;0,350128173828125;7;487;2,66586989164352E-08;-2,35703587532044E-08;100 nA
0,400390625;252,539655362399;1,5655517578125E-09;0,40008544921875;7;488;2,66586989164352E-08;-2,35703587532044E-08;100 nA
0,450439453125;253,040143361135;1,434326171875E-09;0,450103759765625;7;489;2,66586989164352E-08;-2,35703587532044E-08;100 nA
0,50048828125;253,540631359871;1,33056640625E-09;0,5001220703125;7;490;2,66586989164352E-08;-2,35703587532044E-08;100 nA
0,550537109375;254,041119358608;1,25732421875E-09;0,550140380859375;7;491;2,66586989164352E-08;-2,35703587532044E-08;100 nA
0,6005859375;254,541607357344;1,1932373046875E-09;0,600067138671875;7;492;2,66586989164352E-08;-2,35703587532044E-08;100 nA
0,650634765625;255,042095356081;1,13525390625E-09;0,649993896484375;7;493;2,66586989164352E-08;-2,35703587532044E-08;100 nA
0,70068359375;255,542583354817;1,123046875E-09;0,699859619140625;7;494;2,66586989164352E-08;-2,35703587532044E-08;100 nA
0,750732421875;256,043071353553;1,1474609375E-09;0,74981689453125;7;495;2,66586989164352E-08;-2,35703587532044E-08;100 nA
0,80078125;256,54355935229;1,2237548828125E-09;0,799560546875;7;496;2,66586989164352E-08;-2,35703587532044E-08;100 nA
0,850830078125;257,044047351026;1,361083984375E-09;0,849609375;7;497;2,66586989164352E-08;-2,35703587532044E-08;100 nA
0,90087890625;257,544535349763;1,5472412109375E-09;0,899658203125;7;498;2,66586989164352E-08;-2,35703587532044E-08;100 nA
0,950927734375;258,045023348499;1,7852783203125E-09;0,94940185546875;7;499;2,66586989164352E-08;-2,35703587532044E-08;100 nA
1,0009765625;258,545511347235;2,1148681640625E-09;0,99945068359375;7;500;2,66586989164352E-08;-2,35703587532044E-08;100 nA
0,950927734375;259,045999345972;1,080322265625E-09;0,94970703125;7;501;2,66586989164352E-08;-2,35703587532044E-08;100 nA
0,90087890625;259,546487344708;5,7373046875E-10;0,899658203125;7;502;2,66586989164352E-08;-2,35703587532044E-08;100 nA
0,850830078125;260,046975343445;2,74658203125E-10;0,84991455078125;7;503;2,66586989164352E-08;-2,35703587532044E-08;100 nA
0,80078125;260,547463342181;8,544921875E-11;0,799560546875;7;504;2,66586989164352E-08;-2,35703587532044E-08;100 nA
0,750732421875;261,047951340917;-4,2724609375E-11;0,74981689453125;7;505;2,66586989164352E-08;-2,35703587532044E-08;100 nA
0,70068359375;261,548439339654;-1,373291015625E-10;0,69989013671875;7;506;2,66586989164352E-08;-2,35703587532044E-08;100 nA
0,650634765625;262,04892733839;-2,38037109375E-10;0,64996337890625;7;507;2,66586989164352E-08;-2,35703587532044E-08;100 nA
0,6005859375;262,549415337126;-2,960205078125E-10;0,600067138671875;7;508;2,66586989164352E-08;-2,35703587532044E-08;100 nA
0,550537109375;263,049903335863;-3,265380859375E-10;0,550079345703125;7;509;2,66586989164352E-08;-2,35703587532044E-08;100 nA
0,50048828125;263,550391334599;-3,692626953125E-10;0,50006103515625;7;510;2,66586989164352E-08;-2,35703587532044E-08;100 nA
0,450439453125;264,050879333336;-4,33349609375E-10;0,45013427734375;7;511;2,66586989164352E-08;-2,35703587532044E-08;100 nA
0,400390625;264,551367332072;-5,06591796875E-10;0,400054931640625;7;512;2,66586989164352E-08;-2,35703587532044E-08;100 nA
0,350341796875;265,051855330808;-5,859375E-10;0,35009765625;7;513;2,66586989164352E-08;-2,35703587532044E-08;100 nA
0,30029296875;265,552343329545;-6,805419921875E-10;0,300079345703125;7;514;2,66586989164352E-08;-2,35703587532044E-08;100 nA
0,250244140625;266,052831328281;-8,056640625E-10;0,250030517578125;7;515;2,66586989164352E-08;-2,35703587532044E-08;100 nA
0,2001953125;266,553319327018;-1,1688232421875E-09;0,200103759765625;7;516;2,66586989164352E-08;-2,35703587532044E-08;100 nA
0,150146484375;267,053807325754;-2,4871826171875E-09;0,150054931640625;7;517;2,66586989164352E-08;-2,35703587532044E-08;100 nA
0,10009765625;267,55429532449;-2,874755859375E-09;0,10003662109375;7;518;2,66586989164352E-08;-2,35703587532044E-08;100 nA
0,050048828125;268,054783323227;-1,9378662109375E-09;0,050079345703125;7;519;2,66586989164352E-08;-2,35703587532044E-08;100 nA
0;268,555271321963;-1,5594482421875E-09;0,000134277343750003;7;520;2,66586989164352E-08;-2,35703587532044E-08;100 nA
-0,050048828125;269,0557593207;-1,4556884765625E-09;-0,049835205078125;7;521;2,66586989164352E-08;-2,35703587532044E-08;100 nA
-0,10009765625;269,556247319436;-1,409912109375E-09;-0,099700927734375;7;522;2,66586989164352E-08;-2,35703587532044E-08;100 nA
-0,150146484375;270,056735318172;-1,40380859375E-09;-0,149566650390625;7;523;2,66586989164352E-08;-2,35703587532044E-08;100 nA
-0,2001953125;270,557223316909;-1,42822265625E-09;-0,199462890625;7;524;2,66586989164352E-08;-2,35703587532044E-08;100 nA
-0,250244140625;271,057711315645;-1,458740234375E-09;-0,249359130859375;7;525;2,66586989164352E-08;-2,35703587532044E-08;100 nA
-0,30029296875;271,558199314381;-1,5167236328125E-09;-0,29925537109375;7;526;2,66586989164352E-08;-2,35703587532044E-08;100 nA
-0,350341796875;272,058687313118;-1,5838623046875E-09;-0,349212646484375;7;527;2,66586989164352E-08;-2,35703587532044E-08;100 nA
-0,400390625;272,559175311854;-1,69677734375E-09;-0,3990478515625;7;528;2,66586989164352E-08;-2,35703587532044E-08;100 nA
-0,450439453125;273,059663310591;-1,8402099609375E-09;-0,448974609375;7;529;2,66586989164352E-08;-2,35703587532044E-08;100 nA
-0,50048828125;273,560151309327;-1,953125E-09;-0,49884033203125;7;530;2,66586989164352E-08;-2,35703587532044E-08;100 nA
-0,550537109375;274,060639308063;-2,0111083984375E-09;-0,54876708984375;7;531;2,66586989164352E-08;-2,35703587532044E-08;100 nA
-0,6005859375;274,5611273068;-1,9775390625E-09;-0,5986328125;7;532;2,66586989164352E-08;-2,35703587532044E-08;100 nA
-0,650634765625;275,061615305536;-1,8707275390625E-09;-0,6485595703125;7;533;2,66586989164352E-08;-2,35703587532044E-08;100 nA
-0,70068359375;275,562103304273;-1,72119140625E-09;-0,698577880859375;7;534;2,66586989164352E-08;-2,35703587532044E-08;100 nA
-0,750732421875;276,062591303009;-1,641845703125E-09;-0,748565673828125;7;535;2,66586989164352E-08;-2,35703587532044E-08;100 nA
-0,80078125;276,563079301745;-1,6143798828125E-09;-0,79864501953125;7;536;2,66586989164352E-08;-2,35703587532044E-08;100 nA
-0,850830078125;277,063567300482;-1,47705078125E-09;-0,8489990234375;7;537;2,66586989164352E-08;-2,35703587532044E-08;100 nA
-0,90087890625;277,564055299218;-1,2786865234375E-09;-0,8990478515625;7;538;2,66586989164352E-08;-2,35703587532044E-08;100 nA
-0,950927734375;278,064543297955;-1,2054443359375E-09;-0,9490966796875;7;539;2,66586989164352E-08;-2,35703587532044E-08;100 nA
-1,0009765625;278,565031296691;-1,226806640625E-09;-0,99884033203125;7;540;2,66586989164352E-08;-2,35703587532044E-08;100 nA
-0,950927734375;279,065519295427;-6,134033203125E-10;-0,94879150390625;7;541;2,66586989164352E-08;-2,35703587532044E-08;100 nA
-0,90087890625;279,566007294164;-2,593994140625E-10;-0,8984375;7;542;2,66586989164352E-08;-2,35703587532044E-08;100 nA
-0,850830078125;280,0664952929;6,103515625E-12;-0,84869384765625;7;543;2,66586989164352E-08;-2,35703587532044E-08;100 nA
-0,80078125;280,566983291636;2,197265625E-10;-0,79864501953125;7;544;2,66586989164352E-08;-2,35703587532044E-08;100 nA
-0,750732421875;281,067471290373;4,150390625E-10;-0,74859619140625;7;545;2,66586989164352E-08;-2,35703587532044E-08;100 nA
-0,70068359375;281,567959289109;5,67626953125E-10;-0,698516845703125;7;546;2,66586989164352E-08;-2,35703587532044E-08;100 nA
-0,650634765625;282,068447287846;7,080078125E-10;-0,648529052734375;7;547;2,66586989164352E-08;-2,35703587532044E-08;100 nA
-0,6005859375;282,568935286582;8,7890625E-10;-0,598602294921875;7;548;2,66586989164352E-08;-2,35703587532044E-08;100 nA
-0,550537109375;283,069423285318;1,0772705078125E-09;-0,54876708984375;7;549;2,66586989164352E-08;-2,35703587532044E-08;100 nA
-0,50048828125;283,569911284055;1,2725830078125E-09;-0,498870849609375;7;550;2,66586989164352E-08;-2,35703587532044E-08;100 nA
-0,450439453125;284,070399282791;1,4404296875E-09;-0,448974609375;7;551;2,66586989164352E-08;-2,35703587532044E-08;100 nA
-0,400390625;284,570887281528;1,5472412109375E-09;-0,399078369140625;7;552;2,66586989164352E-08;-2,35703587532044E-08;100 nA
-0,350341796875;285,071375280264;1,6082763671875E-09;-0,349212646484375;7;553;2,66586989164352E-08;-2,35703587532044E-08;100 nA
-0,30029296875;285,571863279;1,629638671875E-09;-0,299224853515625;7;554;2,66586989164352E-08;-2,35703587532044E-08;100 nA
-0,250244140625;286,072351277737;1,5960693359375E-09;-0,249359130859375;7;555;2,66586989164352E-08;-2,35703587532044E-08;100 nA
-0,2001953125;286,572839276473;1,5350341796875E-09;-0,199432373046875;7;556;2,66586989164352E-08;-2,35703587532044E-08;100 nA
-0,150146484375;287,07332727521;1,4801025390625E-09;-0,149505615234375;7;557;2,66586989164352E-08;-2,35703587532044E-08;100 nA
-0,10009765625;287,573815273946;1,42822265625E-09;-0,09967041015625;7;558;2,66586989164352E-08;-2,35703587532044E-08;100 nA
-0,050048828125;288,074303272682;1,40380859375E-09;-0,049835205078125;7;559;2,66586989164352E-08;-2,35703587532044E-08;100 nA
0;288,574791271419;1,40380859375E-09;0,000134277343750003;7;560;2,66586989164352E-08;-2,35703587532044E-08;100 nA
0,050048828125;289,075279270155;1,4495849609375E-09;0,050048828125;8;561;2,65960767865181E-08;-2,27180868387222E-08;100 nA
0,10009765625;289,575767268891;1,544189453125E-09;0,100067138671875;8;562;2,65960767865181E-08;-2,27180868387222E-08;100 nA
0,150146484375;290,076255267628;2,2918701171875E-09;0,1500244140625;8;563;2,65960767865181E-08;-2,27180868387222E-08;100 nA
0,2001953125;290,576743266364;2,1514892578125E-09;0,2000732421875;8;564;2,65960767865181E-08;-2,27180868387222E-08;100 nA
0,250244140625;291,077231265101;1,8524169921875E-09;0,250030517578125;8;565;2,65960767865181E-08;-2,27180868387222E-08;100 nA
0,30029296875;291,577719263837;1,727294921875E-09;0,30010986328125;8;566;2,65960767865181E-08;-2,27180868387222E-08;100 nA
0,350341796875;292,078207262573;1,6448974609375E-09;0,350067138671875;8;567;2,65960767865181E-08;-2,27180868387222E-08;100 nA
0,400390625;292,57869526131;1,5380859375E-09;0,400115966796875;8;568;2,65960767865181E-08;-2,27180868387222E-08;100 nA
0,450439453125;293,079183260046;1,4129638671875E-09;0,450164794921875;8;569;2,65960767865181E-08;-2,27180868387222E-08;100 nA
0,50048828125;293,579671258783;1,3092041015625E-09;0,500091552734375;8;570;2,65960767865181E-08;-2,27180868387222E-08;100 nA
0,550537109375;294,080159257519;1,2298583984375E-09;0,55010986328125;8;571;2,65960767865181E-08;-2,27180868387222E-08;100 nA
0,6005859375;294,580647256255;1,171875E-09;0,60009765625;8;572;2,65960767865181E-08;-2,27180868387222E-08;100 nA
0,650634765625;295,081135254992;1,1322021484375E-09;0,6500244140625;8;573;2,65960767865181E-08;-2,27180868387222E-08;100 nA
0,70068359375;295,581623253728;1,129150390625E-09;0,699859619140625;8;574;2,65960767865181E-08;-2,27180868387222E-08;100 nA
0,750732421875;296,082111252465;1,15966796875E-09;0,74981689453125;8;575;2,65960767865181E-08;-2,27180868387222E-08;100 nA
0,80078125;296,582599251201;1,2420654296875E-09;0,8001708984375;8;576;2,65960767865181E-08;-2,27180868387222E-08;100 nA
0,850830078125;297,083087249937;1,385498046875E-09;0,849609375;8;577;2,65960767865181E-08;-2,27180868387222E-08;100 nA
0,90087890625;297,583575248674;1,580810546875E-09;0,89996337890625;8;578;2,65960767865181E-08;-2,27180868387222E-08;100 nA
0,950927734375;298,08406324741;1,8157958984375E-09;0,94940185546875;8;579;2,65960767865181E-08;-2,27180868387222E-08;100 nA
1,0009765625;298,584551246146;2,1636962890625E-09;0,9991455078125;8;580;2,65960767865181E-08;-2,27180868387222E-08;100 nA
0,950927734375;299,085039244883;1,1199951171875E-09;0,94940185546875;8;581;2,65960767865181E-08;-2,27180868387222E-08;100 nA
0,90087890625;299,585527243619;6,072998046875E-10;0,89935302734375;8;582;2,65960767865181E-08;-2,27180868387222E-08;100 nA
0,850830078125;300,086015242356;3,021240234375E-10;0,8489990234375;8;583;2,65960767865181E-08;-2,27180868387222E-08;100 nA
0,80078125;300,586503241092;1,129150390625E-10;0,79986572265625;8;584;2,65960767865181E-08;-2,27180868387222E-08;100 nA
0,750732421875;301,086991239828;-1,52587890625E-11;0,749786376953125;8;585;2,65960767865181E-08;-2,27180868387222E-08;100 nA
0,70068359375;301,587479238565;-1,190185546875E-10;0,699920654296875;8;586;2,65960767865181E-08;-2,27180868387222E-08;100 nA
0,650634765625;302,087967237301;-2,01416015625E-10;0,6500244140625;8;587;2,65960767865181E-08;-2,27180868387222E-08;100 nA
0,6005859375;302,588455236038;-2,5634765625E-10;0,600067138671875;8;588;2,65960767865181E-08;-2,27180868387222E-08;100 nA
0,550537109375;303,088943234774;-2,838134765625E-10;0,550079345703125;8;589;2,65960767865181E-08;-2,27180868387222E-08;100 nA
0,50048828125;303,58943123351;-3,0517578125E-10;0,500091552734375;8;590;2,65960767865181E-08;-2,27180868387222E-08;100 nA
0,450439453125;304,089919232247;-3,72314453125E-10;0,450103759765625;8;591;2,65960767865181E-08;-2,27180868387222E-08;100 nA
0,400390625;304,590407230983;-4,57763671875E-10;0,400054931640625;8;592;2,65960767865181E-08;-2,27180868387222E-08;100 nA
0,350341796875;305,09089522972;-5,523681640625E-10;0,35009765625;8;593;2,65960767865181E-08;-2,27180868387222E-08;100 nA
0,30029296875;305,591383228456;-6,195068359375E-10;0,30010986328125;8;594;2,65960767865181E-08;-2,27180868387222E-08;100 nA
0,250244140625;306,091871227192;-7,293701171875E-10;0,250091552734375;8;595;2,65960767865181E-08;-2,27180868387222E-08;100 nA
0,2001953125;306,592359225929;-1,080322265625E-09;0,200103759765625;8;596;2,65960767865181E-08;-2,27180868387222E-08;100 nA
0,150146484375;307,092847224665;-2,337646484375E-09;0,1500244140625;8;597;2,65960767865181E-08;-2,27180868387222E-08;100 nA
0,10009765625;307,593335223401;-2,8564453125E-09;0,100067138671875;8;598;2,65960767865181E-08;-2,27180868387222E-08;100 nA
0,050048828125;308,093823222138;-1,898193359375E-09;0,050048828125;8;599;2,65960767865181E-08;-2,27180868387222E-08;100 nA
0;308,594311220874;-1,519775390625E-09;0,000125122070312497;8;600;2,65960767865181E-08;-2,27180868387222E-08;100 nA
-0,050048828125;309,094799219611;-1,4068603515625E-09;-0,049835205078125;8;601;2,65960767865181E-08;-2,27180868387222E-08;100 nA
-0,10009765625;309,595287218347;-1,3671875E-09;-0,099639892578125;8;602;2,65960767865181E-08;-2,27180868387222E-08;100 nA
-0,150146484375;310,095775217083;-1,348876953125E-09;-0,14959716796875;8;603;2,65960767865181E-08;-2,27180868387222E-08;100 nA
-0,2001953125;310,59626321582;-1,3641357421875E-09;-0,199462890625;8;604;2,65960767865181E-08;-2,27180868387222E-08;100 nA
-0,250244140625;311,096751214556;-1,4068603515625E-09;-0,24932861328125;8;605;2,65960767865181E-08;-2,27180868387222E-08;100 nA
-0,30029296875;311,597239213293;-1,4617919921875E-09;-0,299224853515625;8;606;2,65960767865181E-08;-2,27180868387222E-08;100 nA
-0,350341796875;312,097727212029;-1,52587890625E-09;-0,34912109375;8;607;2,65960767865181E-08;-2,27180868387222E-08;100 nA
-0,400390625;312,598215210765;-1,64794921875E-09;-0,399078369140625;8;608;2,65960767865181E-08;-2,27180868387222E-08;100 nA
-0,450439453125;313,098703209502;-1,8280029296875E-09;-0,448944091796875;8;609;2,65960767865181E-08;-2,27180868387222E-08;100 nA
-0,50048828125;313,599191208238;-1,9317626953125E-09;-0,49884033203125;8;610;2,65960767865181E-08;-2,27180868387222E-08;100 nA
-0,550537109375;314,099679206975;-1,9744873046875E-09;-0,548736572265625;8;611;2,65960767865181E-08;-2,27180868387222E-08;100 nA
-0,6005859375;314,600167205711;-1,922607421875E-09;-0,5986328125;8;612;2,65960767865181E-08;-2,27180868387222E-08;100 nA
-0,650634765625;315,100655204447;-1,824951171875E-09;-0,648590087890625;8;613;2,65960767865181E-08;-2,27180868387222E-08;100 nA
-0,70068359375;315,601143203184;-1,6937255859375E-09;-0,698516845703125;8;614;2,65960767865181E-08;-2,27180868387222E-08;100 nA
-0,750732421875;316,10163120192;-1,6143798828125E-09;-0,74859619140625;8;615;2,65960767865181E-08;-2,27180868387222E-08;100 nA
-0,80078125;316,602119200656;-1,580810546875E-09;-0,79864501953125;8;616;2,65960767865181E-08;-2,27180868387222E-08;100 nA
-0,850830078125;317,102607199393;-1,422119140625E-09;-0,8489990234375;8;617;2,65960767865181E-08;-2,27180868387222E-08;100 nA
-0,90087890625;317,603095198129;-1,226806640625E-09;-0,8984375;8;618;2,65960767865181E-08;-2,27180868387222E-08;100 nA
-0,950927734375;318,103583196866;-1,171875E-09;-0,94879150390625;8;619;2,65960767865181E-08;-2,27180868387222E-08;100 nA
-1,0009765625;318,604071195602;-1,20849609375E-09;-0,9991455078125;8;620;2,65960767865181E-08;-2,27180868387222E-08;100 nA
-0,950927734375;319,104559194338;-6,04248046875E-10;-0,948486328125;8;621;2,65960767865181E-08;-2,27180868387222E-08;100 nA
-0,90087890625;319,605047193075;-2,532958984375E-10;-0,89874267578125;8;622;2,65960767865181E-08;-2,27180868387222E-08;100 nA
-0,850830078125;320,105535191811;3,0517578125E-12;-0,84869384765625;8;623;2,65960767865181E-08;-2,27180868387222E-08;100 nA
-0,80078125;320,606023190548;2,197265625E-10;-0,79864501953125;8;624;2,65960767865181E-08;-2,27180868387222E-08;100 nA
-0,750732421875;321,106511189284;4,21142578125E-10;-0,748565673828125;8;625;2,65960767865181E-08;-2,27180868387222E-08;100 nA
-0,70068359375;321,60699918802;5,79833984375E-10;-0,698516845703125;8;626;2,65960767865181E-08;-2,27180868387222E-08;100 nA
-0,650634765625;322,107487186757;7,171630859375E-10;-0,648529052734375;8;627;2,65960767865181E-08;-2,27180868387222E-08;100 nA
-0,6005859375;322,607975185493;8,72802734375E-10;-0,598663330078125;8;628;2,65960767865181E-08;-2,27180868387222E-08;100 nA
-0,550537109375;323,10846318423;1,0711669921875E-09;-0,54876708984375;8;629;2,65960767865181E-08;-2,27180868387222E-08;100 nA
-0,50048828125;323,608951182966;1,2542724609375E-09;-0,49884033203125;8;630;2,65960767865181E-08;-2,27180868387222E-08;100 nA
-0,450439453125;324,109439181702;1,4190673828125E-09;-0,448944091796875;8;631;2,65960767865181E-08;-2,27180868387222E-08;100 nA
-0,400390625;324,609927180439;1,5411376953125E-09;-0,39910888671875;8;632;2,65960767865181E-08;-2,27180868387222E-08;100 nA
-0,350341796875;325,110415179175;1,57470703125E-09;-0,349212646484375;8;633;2,65960767865181E-08;-2,27180868387222E-08;100 nA
-0,30029296875;325,610903177912;1,605224609375E-09;-0,29931640625;8;634;2,65960767865181E-08;-2,27180868387222E-08;100 nA
-0,250244140625;326,111391176648;1,5960693359375E-09;-0,24932861328125;8;635;2,65960767865181E-08;-2,27180868387222E-08;100 nA
-0,2001953125;326,611879175384;1,5350341796875E-09;-0,199432373046875;8;636;2,65960767865181E-08;-2,27180868387222E-08;100 nA
-0,150146484375;327,112367174121;1,4495849609375E-09;-0,14959716796875;8;637;2,65960767865181E-08;-2,27180868387222E-08;100 nA
-0,10009765625;327,612855172857;1,4129638671875E-09;-0,09967041015625;8;638;2,65960767865181E-08;-2,27180868387222E-08;100 nA
-0,050048828125;328,113343171593;1,40380859375E-09;-0,0498046875;8;639;2,65960767865181E-08;-2,27180868387222E-08;100 nA
0;328,61383117033;1,3885498046875E-09;0,000143432617187494;8;640;2,65960767865181E-08;-2,27180868387222E-08;100 nA
0,050048828125;329,114319169066;1,409912109375E-09;0,050079345703125;9;641;2,64127925038338E-08;-2,2282786667347E-08;100 nA
0,10009765625;329,614807167803;1,495361328125E-09;0,10003662109375;9;642;2,64127925038338E-08;-2,2282786667347E-08;100 nA
0,150146484375;330,115295166539;2,2674560546875E-09;0,1500244140625;9;643;2,64127925038338E-08;-2,2282786667347E-08;100 nA
0,2001953125;330,615783165275;2,08740234375E-09;0,2000732421875;9;644;2,64127925038338E-08;-2,2282786667347E-08;100 nA
0,250244140625;331,116271164012;1,79443359375E-09;0,250030517578125;9;645;2,64127925038338E-08;-2,2282786667347E-08;100 nA
0,30029296875;331,616759162748;1,666259765625E-09;0,300079345703125;9;646;2,64127925038338E-08;-2,2282786667347E-08;100 nA
0,350341796875;332,117247161485;1,5899658203125E-09;0,350128173828125;9;647;2,64127925038338E-08;-2,2282786667347E-08;100 nA
0,400390625;332,617735160221;1,483154296875E-09;0,40008544921875;9;648;2,64127925038338E-08;-2,2282786667347E-08;100 nA
0,450439453125;333,118223158957;1,3702392578125E-09;0,450042724609375;9;649;2,64127925038338E-08;-2,2282786667347E-08;100 nA
0,50048828125;333,618711157694;1,2542724609375E-09;0,50006103515625;9;650;2,64127925038338E-08;-2,2282786667347E-08;100 nA
0,550537109375;334,11919915643;1,20849609375E-09;0,550048828125;9;651;2,64127925038338E-08;-2,2282786667347E-08;100 nA
0,6005859375;334,619687155167;1,1505126953125E-09;0,60003662109375;9;652;2,64127925038338E-08;-2,2282786667347E-08;100 nA
0,650634765625;335,120175153903;1,1260986328125E-09;0,649993896484375;9;653;2,64127925038338E-08;-2,2282786667347E-08;100 nA
0,70068359375;335,620663152639;1,116943359375E-09;0,699920654296875;9;654;2,64127925038338E-08;-2,2282786667347E-08;100 nA
0,750732421875;336,121151151376;1,1474609375E-09;0,749847412109375;9;655;2,64127925038338E-08;-2,2282786667347E-08;100 nA
0,80078125;336,621639150112;1,2359619140625E-09;0,8001708984375;9;656;2,64127925038338E-08;-2,2282786667347E-08;100 nA
0,850830078125;337,122127148848;1,3763427734375E-09;0,84930419921875;9;657;2,64127925038338E-08;-2,2282786667347E-08;100 nA
0,90087890625;337,622615147585;1,568603515625E-09;0,899658203125;9;658;2,64127925038338E-08;-2,2282786667347E-08;100 nA
0,950927734375;338,123103146321;1,8218994140625E-09;0,94940185546875;9;659;2,64127925038338E-08;-2,2282786667347E-08;100 nA
1,0009765625;338,623591145058;2,1636962890625E-09;0,999755859375;9;660;2,64127925038338E-08;-2,2282786667347E-08;100 nA
0,950927734375;339,124079143794;1,116943359375E-09;0,9490966796875;9;661;2,64127925038338E-08;-2,2282786667347E-08;100 nA
0,90087890625;339,62456714253;5,9814453125E-10;0,89996337890625;9;662;2,64127925038338E-08;-2,2282786667347E-08;100 nA
0,850830078125;340,125055141267;3,021240234375E-10;0,84991455078125;9;663;2,64127925038338E-08;-2,2282786667347E-08;100 nA
0,80078125;340,625543140003;9,46044921875E-11;0,8001708984375;9;664;2,64127925038338E-08;-2,2282786667347E-08;100 nA
0,750732421875;341,12603113874;-2,74658203125E-11;0,749847412109375;9;665;2,64127925038338E-08;-2,2282786667347E-08;100 nA
0,70068359375;341,626519137476;-1,251220703125E-10;0,699920654296875;9;666;2,64127925038338E-08;-2,2282786667347E-08;100 nA
0,650634765625;342,127007136212;-2,044677734375E-10;0,6500244140625;9;667;2,64127925038338E-08;-2,2282786667347E-08;100 nA
0,6005859375;342,627495134949;-2,593994140625E-10;0,600067138671875;9;668;2,64127925038338E-08;-2,2282786667347E-08;100 nA
0,550537109375;343,127983133685;-2,899169921875E-10;0,550079345703125;9;669;2,64127925038338E-08;-2,2282786667347E-08;100 nA
0,50048828125;343,628471132422;-3,326416015625E-10;0,500091552734375;9;670;2,64127925038338E-08;-2,2282786667347E-08;100 nA
0,450439453125;344,128959131158;-3,875732421875E-10;0,450103759765625;9;671;2,64127925038338E-08;-2,2282786667347E-08;100 nA
0,400390625;344,629447129894;-4,608154296875E-10;0,40008544921875;9;672;2,64127925038338E-08;-2,2282786667347E-08;100 nA
0,350341796875;345,129935128631;-5,37109375E-10;0,35009765625;9;673;2,64127925038338E-08;-2,2282786667347E-08;100 nA
0,30029296875;345,630423127367;-6,2255859375E-10;0,300079345703125;9;674;2,64127925038338E-08;-2,2282786667347E-08;100 nA
0,250244140625;346,130911126103;-7,32421875E-10;0,2501220703125;9;675;2,64127925038338E-08;-2,2282786667347E-08;100 nA
0,2001953125;346,63139912484;-1,0589599609375E-09;0,200042724609375;9;676;2,64127925038338E-08;-2,2282786667347E-08;100 nA
0,150146484375;347,131887123576;-2,25830078125E-09;0,15008544921875;9;677;2,64127925038338E-08;-2,2282786667347E-08;100 nA
0,10009765625;347,632375122313;-2,911376953125E-09;0,10003662109375;9;678;2,64127925038338E-08;-2,2282786667347E-08;100 nA
0,050048828125;348,132863121049;-1,9378662109375E-09;0,050079345703125;9;679;2,64127925038338E-08;-2,2282786667347E-08;100 nA
0;348,633351119785;-1,5350341796875E-09;0,000125122070312497;9;680;2,64127925038338E-08;-2,2282786667347E-08;100 nA
-0,050048828125;349,133839118522;-1,40380859375E-09;-0,0498046875;9;681;2,64127925038338E-08;-2,2282786667347E-08;100 nA
-0,10009765625;349,634327117258;-1,33056640625E-09;-0,09967041015625;9;682;2,64127925038338E-08;-2,2282786667347E-08;100 nA
-0,150146484375;350,134815115995;-1,324462890625E-09;-0,1495361328125;9;683;2,64127925038338E-08;-2,2282786667347E-08;100 nA
-0,2001953125;350,635303114731;-1,3519287109375E-09;-0,199432373046875;9;684;2,64127925038338E-08;-2,2282786667347E-08;100 nA
-0,250244140625;351,135791113467;-1,3946533203125E-09;-0,24932861328125;9;685;2,64127925038338E-08;-2,2282786667347E-08;100 nA
-0,30029296875;351,636279112204;-1,4556884765625E-09;-0,299224853515625;9;686;2,64127925038338E-08;-2,2282786667347E-08;100 nA
-0,350341796875;352,13676711094;-1,52587890625E-09;-0,34918212890625;9;687;2,64127925038338E-08;-2,2282786667347E-08;100 nA
-0,400390625;352,637255109677;-1,6357421875E-09;-0,399078369140625;9;688;2,64127925038338E-08;-2,2282786667347E-08;100 nA
-0,450439453125;353,137743108413;-1,7791748046875E-09;-0,448944091796875;9;689;2,64127925038338E-08;-2,2282786667347E-08;100 nA
-0,50048828125;353,638231107149;-1,873779296875E-09;-0,498809814453125;9;690;2,64127925038338E-08;-2,2282786667347E-08;100 nA
-0,550537109375;354,138719105886;-1,910400390625E-09;-0,5487060546875;9;691;2,64127925038338E-08;-2,2282786667347E-08;100 nA
-0,6005859375;354,639207104622;-1,8524169921875E-09;-0,59857177734375;9;692;2,64127925038338E-08;-2,2282786667347E-08;100 nA
-0,650634765625;355,139695103358;-1,7364501953125E-09;-0,6485595703125;9;693;2,64127925038338E-08;-2,2282786667347E-08;100 nA
-0,70068359375;355,640183102095;-1,6143798828125E-09;-0,69854736328125;9;694;2,64127925038338E-08;-2,2282786667347E-08;100 nA
-0,750732421875;356,140671100831;-1,55029296875E-09;-0,748565673828125;9;695;2,64127925038338E-08;-2,2282786667347E-08;100 nA
-0,80078125;356,641159099568;-1,5045166015625E-09;-0,79864501953125;9;696;2,64127925038338E-08;-2,2282786667347E-08;100 nA
-0,850830078125;357,141647098304;-1,3427734375E-09;-0,8489990234375;9;697;2,64127925038338E-08;-2,2282786667347E-08;100 nA
-0,90087890625;357,64213509704;-1,1566162109375E-09;-0,89874267578125;9;698;2,64127925038338E-08;-2,2282786667347E-08;100 nA
-0,950927734375;358,142623095777;-1,11083984375E-09;-0,948486328125;9;699;2,64127925038338E-08;-2,2282786667347E-08;100 nA
-1,0009765625;358,643111094513;-1,1505126953125E-09;-0,9991455078125;9;700;2,64127925038338E-08;-2,2282786667347E-08;100 nA
-0,950927734375;359,14359909325;-5,92041015625E-10;-0,948486328125;9;701;2,64127925038338E-08;-2,2282786667347E-08;100 nA
-0,90087890625;359,644087091986;-2,44140625E-10;-0,8990478515625;9;702;2,64127925038338E-08;-2,2282786667347E-08;100 nA
-0,850830078125;360,144575090722;2,13623046875E-11;-0,84869384765625;9;703;2,64127925038338E-08;-2,2282786667347E-08;100 nA
-0,80078125;360,645063089459;2,410888671875E-10;-0,79803466796875;9;704;2,64127925038338E-08;-2,2282786667347E-08;100 nA
-0,750732421875;361,145551088195;4,364013671875E-10;-0,748504638671875;9;705;2,64127925038338E-08;-2,2282786667347E-08;100 nA
-0,70068359375;361,646039086932;5,92041015625E-10;-0,69854736328125;9;706;2,64127925038338E-08;-2,2282786667347E-08;100 nA
-0,650634765625;362,146527085668;7,2021484375E-10;-0,648590087890625;9;707;2,64127925038338E-08;-2,2282786667347E-08;100 nA
-0,6005859375;362,647015084404;8,85009765625E-10;-0,598663330078125;9;708;2,64127925038338E-08;-2,2282786667347E-08;100 nA
-0,550537109375;363,147503083141;1,0711669921875E-09;-0,54876708984375;9;709;2,64127925038338E-08;-2,2282786667347E-08;100 nA
-0,50048828125;363,647991081877;1,263427734375E-09;-0,49884033203125;9;710;2,64127925038338E-08;-2,2282786667347E-08;100 nA
-0,450439453125;364,148479080613;1,42822265625E-09;-0,449005126953125;9;711;2,64127925038338E-08;-2,2282786667347E-08;100 nA
-0,400390625;364,64896707935;1,55029296875E-09;-0,39910888671875;9;712;2,64127925038338E-08;-2,2282786667347E-08;100 nA
-0,350341796875;365,149455078086;1,6143798828125E-09;-0,34918212890625;9;713;2,64127925038338E-08;-2,2282786667347E-08;100 nA
-0,30029296875;365,649943076823;1,6265869140625E-09;-0,299285888671875;9;714;2,64127925038338E-08;-2,2282786667347E-08;100 nA
-0,250244140625;366,150431075559;1,6021728515625E-09;-0,249298095703125;9;715;2,64127925038338E-08;-2,2282786667347E-08;100 nA
-0,2001953125;366,650919074295;1,55029296875E-09;-0,199462890625;9;716;2,64127925038338E-08;-2,2282786667347E-08;100 nA
-0,150146484375;367,151407073032;1,4801025390625E-09;-0,1495361328125;9;717;2,64127925038338E-08;-2,2282786667347E-08;100 nA
-0,10009765625;367,651895071768;1,434326171875E-09;-0,099700927734375;9;718;2,64127925038338E-08;-2,2282786667347E-08;100 nA
-0,050048828125;368,152383070505;1,409912109375E-09;-0,0498046875;9;719;2,64127925038338E-08;-2,2282786667347E-08;100 nA
0;368,652871069241;1,4007568359375E-09;0,000134277343750003;9;720;2,64127925038338E-08;-2,2282786667347E-08;100 nA
0,050048828125;369,153359067977;1,42822265625E-09;0,050140380859375;10;721;2,63379514217377E-08;-2,25867331027985E-08;100 nA
0,10009765625;369,653847066714;1,52587890625E-09;0,10009765625;10;722;2,63379514217377E-08;-2,25867331027985E-08;100 nA
0,150146484375;370,15433506545;2,288818359375E-09;0,15008544921875;10;723;2,63379514217377E-08;-2,25867331027985E-08;100 nA
0,2001953125;370,654823064187;2,0721435546875E-09;0,2000732421875;10;724;2,63379514217377E-08;-2,25867331027985E-08;100 nA
0,250244140625;371,155311062923;1,776123046875E-09;0,250030517578125;10;725;2,63379514217377E-08;-2,25867331027985E-08;100 nA
0,30029296875;371,655799061659;1,654052734375E-09;0,300079345703125;10;726;2,63379514217377E-08;-2,25867331027985E-08;100 nA
0,350341796875;372,156287060396;1,5716552734375E-09;0,35009765625;10;727;2,63379514217377E-08;-2,25867331027985E-08;100 nA
0,400390625;372,656775059132;1,458740234375E-09;0,400115966796875;10;728;2,63379514217377E-08;-2,25867331027985E-08;100 nA
0,450439453125;373,157263057868;1,3397216796875E-09;0,4500732421875;10;729;2,63379514217377E-08;-2,25867331027985E-08;100 nA
0,50048828125;373,657751056605;1,2359619140625E-09;0,50006103515625;10;730;2,63379514217377E-08;-2,25867331027985E-08;100 nA
0,550537109375;374,158239055341;1,15966796875E-09;0,550079345703125;10;731;2,63379514217377E-08;-2,25867331027985E-08;100 nA
0,6005859375;374,658727054078;1,1016845703125E-09;0,60009765625;10;732;2,63379514217377E-08;-2,25867331027985E-08;100 nA
0,650634765625;375,159215052814;1,068115234375E-09;0,649993896484375;10;733;2,63379514217377E-08;-2,25867331027985E-08;100 nA
0,70068359375;375,65970305155;1,068115234375E-09;0,69989013671875;10;734;2,63379514217377E-08;-2,25867331027985E-08;100 nA
0,750732421875;376,160191050287;1,0955810546875E-09;0,74981689453125;10;735;2,63379514217377E-08;-2,25867331027985E-08;100 nA
0,80078125;376,660679049023;1,1871337890625E-09;0,79986572265625;10;736;2,63379514217377E-08;-2,25867331027985E-08;100 nA
0,850830078125;377,16116704776;1,3275146484375E-09;0,84991455078125;10;737;2,63379514217377E-08;-2,25867331027985E-08;100 nA
0,90087890625;377,661655046496;1,495361328125E-09;0,89935302734375;10;738;2,63379514217377E-08;-2,25867331027985E-08;100 nA
0,950927734375;378,162143045232;1,763916015625E-09;0,95001220703125;10;739;2,63379514217377E-08;-2,25867331027985E-08;100 nA
1,0009765625;378,662631043969;2,1270751953125E-09;0,99945068359375;10;740;2,63379514217377E-08;-2,25867331027985E-08;100 nA
0,950927734375;379,163119042705;1,0833740234375E-09;0,94940185546875;10;741;2,63379514217377E-08;-2,25867331027985E-08;100 nA
0,90087890625;379,663607041442;5,43212890625E-10;0,899658203125;10;742;2,63379514217377E-08;-2,25867331027985E-08;100 nA
0,850830078125;380,164095040178;2,3193359375E-10;0,849609375;10;743;2,63379514217377E-08;-2,25867331027985E-08;100 nA
0,80078125;380,664583038914;5,4931640625E-11;0,79986572265625;10;744;2,63379514217377E-08;-2,25867331027985E-08;100 nA
0,750732421875;381,165071037651;-7,01904296875E-11;0,749786376953125;10;745;2,63379514217377E-08;-2,25867331027985E-08;100 nA
0,70068359375;381,665559036387;-1,77001953125E-10;0,69989013671875;10;746;2,63379514217377E-08;-2,25867331027985E-08;100 nA
0,650634765625;382,166047035123;-2,593994140625E-10;0,650054931640625;10;747;2,63379514217377E-08;-2,25867331027985E-08;100 nA
0,6005859375;382,66653503386;-2,899169921875E-10;0,60009765625;10;748;2,63379514217377E-08;-2,25867331027985E-08;100 nA
0,550537109375;383,167023032596;-3,173828125E-10;0,55010986328125;10;749;2,63379514217377E-08;-2,25867331027985E-08;100 nA
0,50048828125;383,667511031333;-3,692626953125E-10;0,5;10;750;2,63379514217377E-08;-2,25867331027985E-08;100 nA
0,450439453125;384,167999030069;-4,119873046875E-10;0,4500732421875;10;751;2,63379514217377E-08;-2,25867331027985E-08;100 nA
0,400390625;384,668487028805;-4,7607421875E-10;0,40008544921875;10;752;2,63379514217377E-08;-2,25867331027985E-08;100 nA
0,350341796875;385,168975027542;-5,55419921875E-10;0,350067138671875;10;753;2,63379514217377E-08;-2,25867331027985E-08;100 nA
0,30029296875;385,669463026278;-6,439208984375E-10;0,300018310546875;10;754;2,63379514217377E-08;-2,25867331027985E-08;100 nA
0,250244140625;386,169951025015;-7,50732421875E-10;0,250030517578125;10;755;2,63379514217377E-08;-2,25867331027985E-08;100 nA
0,2001953125;386,670439023751;-1,0589599609375E-09;0,2000732421875;10;756;2,63379514217377E-08;-2,25867331027985E-08;100 nA
0,150146484375;387,170927022487;-2,215576171875E-09;0,150115966796875;10;757;2,63379514217377E-08;-2,25867331027985E-08;100 nA
0,10009765625;387,671415021224;-2,978515625E-09;0,100067138671875;10;758;2,63379514217377E-08;-2,25867331027985E-08;100 nA
0,050048828125;388,17190301996;-1,9866943359375E-09;0,050048828125;10;759;2,63379514217377E-08;-2,25867331027985E-08;100 nA
0;388,672391018697;-1,556396484375E-09;0,000134277343750003;10;760;2,63379514217377E-08;-2,25867331027985E-08;100 nA
-0,050048828125;389,172879017433;-1,434326171875E-09;-0,049774169921875;10;761;2,63379514217377E-08;-2,25867331027985E-08;100 nA
-0,10009765625;389,673367016169;-1,3824462890625E-09;-0,09967041015625;10;762;2,63379514217377E-08;-2,25867331027985E-08;100 nA
-0,150146484375;390,173855014906;-1,3671875E-09;-0,14959716796875;10;763;2,63379514217377E-08;-2,25867331027985E-08;100 nA
-0,2001953125;390,674343013642;-1,3824462890625E-09;-0,19940185546875;10;764;2,63379514217377E-08;-2,25867331027985E-08;100 nA
-0,250244140625;391,174831012378;-1,4190673828125E-09;-0,24932861328125;10;765;2,63379514217377E-08;-2,25867331027985E-08;100 nA
-0,30029296875;391,675319011115;-1,46484375E-09;-0,299285888671875;10;766;2,63379514217377E-08;-2,25867331027985E-08;100 nA
-0,350341796875;392,175807009851;-1,556396484375E-09;-0,34912109375;10;767;2,63379514217377E-08;-2,25867331027985E-08;100 nA
-0,400390625;392,676295008588;-1,6693115234375E-09;-0,3990478515625;10;768;2,63379514217377E-08;-2,25867331027985E-08;100 nA
-0,450439453125;393,176783007324;-1,800537109375E-09;-0,44891357421875;10;769;2,63379514217377E-08;-2,25867331027985E-08;100 nA
-0,50048828125;393,67727100606;-1,89208984375E-09;-0,498809814453125;10;770;2,63379514217377E-08;-2,25867331027985E-08;100 nA
-0,550537109375;394,177759004797;-1,9134521484375E-09;-0,548797607421875;10;771;2,63379514217377E-08;-2,25867331027985E-08;100 nA
-0,6005859375;394,678247003533;-1,849365234375E-09;-0,5986328125;10;772;2,63379514217377E-08;-2,25867331027985E-08;100 nA
-0,650634765625;395,17873500227;-1,74560546875E-09;-0,648590087890625;10;773;2,63379514217377E-08;-2,25867331027985E-08;100 nA
-0,70068359375;395,679223001006;-1,6143798828125E-09;-0,69854736328125;10;774;2,63379514217377E-08;-2,25867331027985E-08;100 nA
-0,750732421875;396,179710999742;-1,5472412109375E-09;-0,748565673828125;10;775;2,63379514217377E-08;-2,25867331027985E-08;100 nA
-0,80078125;396,680198998479;-1,4862060546875E-09;-0,79864501953125;10;776;2,63379514217377E-08;-2,25867331027985E-08;100 nA
-0,850830078125;397,180686997215;-1,300048828125E-09;-0,84869384765625;10;777;2,63379514217377E-08;-2,25867331027985E-08;100 nA
-0,90087890625;397,681174995952;-1,13525390625E-09;-0,89935302734375;10;778;2,63379514217377E-08;-2,25867331027985E-08;100 nA
-0,950927734375;398,181662994688;-1,1077880859375E-09;-0,94879150390625;10;779;2,63379514217377E-08;-2,25867331027985E-08;100 nA
-1,0009765625;398,682150993424;-1,1505126953125E-09;-0,99945068359375;10;780;2,63379514217377E-08;-2,25867331027985E-08;100 nA
-0,950927734375;399,182638992161;-5,67626953125E-10;-0,94818115234375;10;781;2,63379514217377E-08;-2,25867331027985E-08;100 nA
-0,90087890625;399,683126990897;-2,25830078125E-10;-0,8990478515625;10;782;2,63379514217377E-08;-2,25867331027985E-08;100 nA
-0,850830078125;400,183614989634;4,2724609375E-11;-0,84869384765625;10;783;2,63379514217377E-08;-2,25867331027985E-08;100 nA
-0,80078125;400,68410298837;2,593994140625E-10;-0,79833984375;10;784;2,63379514217377E-08;-2,25867331027985E-08;100 nA
-0,750732421875;401,184590987106;4,608154296875E-10;-0,74853515625;10;785;2,63379514217377E-08;-2,25867331027985E-08;100 nA
-0,70068359375;401,685078985843;6,134033203125E-10;-0,698577880859375;10;786;2,63379514217377E-08;-2,25867331027985E-08;100 nA
-0,650634765625;402,185566984579;7,4462890625E-10;-0,64849853515625;10;787;2,63379514217377E-08;-2,25867331027985E-08;100 nA
-0,6005859375;402,686054983315;9,124755859375E-10;-0,598602294921875;10;788;2,63379514217377E-08;-2,25867331027985E-08;100 nA
-0,550537109375;403,186542982052;1,1016845703125E-09;-0,54876708984375;10;789;2,63379514217377E-08;-2,25867331027985E-08;100 nA
-0,50048828125;403,687030980788;1,2908935546875E-09;-0,49884033203125;10;790;2,63379514217377E-08;-2,25867331027985E-08;100 nA
-0,450439453125;404,187518979525;1,47705078125E-09;-0,448883056640625;10;791;2,63379514217377E-08;-2,25867331027985E-08;100 nA
-0,400390625;404,688006978261;1,5899658203125E-09;-0,3990478515625;10;792;2,63379514217377E-08;-2,25867331027985E-08;100 nA
-0,350341796875;405,188494976997;1,654052734375E-09;-0,34918212890625;10;793;2,63379514217377E-08;-2,25867331027985E-08;100 nA
-0,30029296875;405,688982975734;1,6754150390625E-09;-0,29925537109375;10;794;2,63379514217377E-08;-2,25867331027985E-08;100 nA
-0,250244140625;406,18947097447;1,6448974609375E-09;-0,249359130859375;10;795;2,63379514217377E-08;-2,25867331027985E-08;100 nA
-0,2001953125;406,689958973207;1,59912109375E-09;-0,199493408203125;10;796;2,63379514217377E-08;-2,25867331027985E-08;100 nA
-0,150146484375;407,190446971943;1,5350341796875E-09;-0,149566650390625;10;797;2,63379514217377E-08;-2,25867331027985E-08;100 nA
-0,10009765625;407,690934970679;1,4678955078125E-09;-0,099761962890625;10;798;2,63379514217377E-08;-2,25867331027985E-08;100 nA
-0,050048828125;408,191422969416;1,446533203125E-09;-0,0498046875;10;799;2,63379514217377E-08;-2,25867331027985E-08;100 nA
0;408,691910968152;1,4495849609375E-09;0,0001220703125;10;800;2,63379514217377E-08;-2,25867331027985E-08;100 nA
