Potential applied (V);Time (s);WE(1).Current (A);WE(1).Potential (V);Scan;Index;Q+;Q-;Current range
0,050048828125;7,39369198133272;2,435302734375E-09;0,050079345703125;1;1;1,01625025272369E-07;-1,49401128292084E-07;100 nA
0,10009765625;7,89417998006911;4,0069580078125E-09;0,10009765625;1;2;1,01625025272369E-07;-1,49401128292084E-07;100 nA
0,150146484375;8,3946679788055;5,28564453125E-09;0,150115966796875;1;3;1,01625025272369E-07;-1,49401128292084E-07;100 nA
0,2001953125;8,89515597754189;6,43310546875E-09;0,200042724609375;1;4;1,01625025272369E-07;-1,49401128292084E-07;100 nA
0,250244140625;9,39564397627828;6,9366455078125E-09;0,250030517578125;1;5;1,01625025272369E-07;-1,49401128292084E-07;100 nA
0,30029296875;9,89613197501467;5,816650390625E-09;0,300140380859375;1;6;1,01625025272369E-07;-1,49401128292084E-07;100 nA
0,350341796875;10,3966199737511;4,8797607421875E-09;0,350067138671875;1;7;1,01625025272369E-07;-1,49401128292084E-07;100 nA
0,400390625;10,8971079724874;4,5379638671875E-09;0,400115966796875;1;8;1,01625025272369E-07;-1,49401128292084E-07;100 nA
0,450439453125;11,3975959712238;4,4464111328125E-09;0,450103759765625;1;9;1,01625025272369E-07;-1,49401128292084E-07;100 nA
0,50048828125;11,8980839699602;4,510498046875E-09;0,500152587890625;1;10;1,01625025272369E-07;-1,49401128292084E-07;100 nA
0,550537109375;12,3985719686966;4,6539306640625E-09;0,55010986328125;1;11;1,01625025272369E-07;-1,49401128292084E-07;100 nA
0,6005859375;12,899059967433;4,89501953125E-09;0,600067138671875;1;12;1,01625025272369E-07;-1,49401128292084E-07;100 nA
0,650634765625;13,3995479661694;5,2001953125E-09;0,650115966796875;1;13;1,01625025272369E-07;-1,49401128292084E-07;100 nA
0,70068359375;13,9000359649058;5,4962158203125E-09;0,699920654296875;1;14;1,01625025272369E-07;-1,49401128292084E-07;100 nA
0,750732421875;14,4005239636422;5,77392578125E-09;0,749908447265625;1;15;1,01625025272369E-07;-1,49401128292084E-07;100 nA
0,80078125;14,9010119623786;6,036376953125E-09;0,79986572265625;1;16;1,01625025272369E-07;-1,49401128292084E-07;100 nA
0,850830078125;15,401499961115;6,3507080078125E-09;0,84991455078125;1;17;1,01625025272369E-07;-1,49401128292084E-07;100 nA
0,90087890625;15,9019879598513;6,854248046875E-09;0,89935302734375;1;18;1,01625025272369E-07;-1,49401128292084E-07;100 nA
0,950927734375;16,4024759585877;7,58056640625E-09;0,94970703125;1;19;1,01625025272369E-07;-1,49401128292084E-07;100 nA
1,0009765625;16,9029639573241;8,6669921875E-09;0,99945068359375;1;20;1,01625025272369E-07;-1,49401128292084E-07;100 nA
0,950927734375;17,4034519560605;6,103515625E-09;0,94970703125;1;21;1,01625025272369E-07;-1,49401128292084E-07;100 nA
0,90087890625;17,9039399547969;4,6112060546875E-09;0,9002685546875;1;22;1,01625025272369E-07;-1,49401128292084E-07;100 nA
0,850830078125;18,4044279535333;3,4942626953125E-09;0,84991455078125;1;23;1,01625025272369E-07;-1,49401128292084E-07;100 nA
0,80078125;18,9049159522697;2,63671875E-09;0,79986572265625;1;24;1,01625025272369E-07;-1,49401128292084E-07;100 nA
0,750732421875;19,4054039510061;1,9287109375E-09;0,74993896484375;1;25;1,01625025272369E-07;-1,49401128292084E-07;100 nA
0,70068359375;19,9058919497425;1,3946533203125E-09;0,700042724609375;1;26;1,01625025272369E-07;-1,49401128292084E-07;100 nA
0,650634765625;20,4063799484788;1,0162353515625E-09;0,650146484375;1;27;1,01625025272369E-07;-1,49401128292084E-07;100 nA
0,6005859375;20,9068679472152;7,110595703125E-10;0,60015869140625;1;28;1,01625025272369E-07;-1,49401128292084E-07;100 nA
0,550537109375;21,4073559459516;4,33349609375E-10;0,550140380859375;1;29;1,01625025272369E-07;-1,49401128292084E-07;100 nA
0,50048828125;21,907843944688;1,495361328125E-10;0,5001220703125;1;30;1,01625025272369E-07;-1,49401128292084E-07;100 nA
0,450439453125;22,4083319434244;-1,708984375E-10;0,45013427734375;1;31;1,01625025272369E-07;-1,49401128292084E-07;100 nA
0,400390625;22,9088199421608;-6,134033203125E-10;0,400146484375;1;32;1,01625025272369E-07;-1,49401128292084E-07;100 nA
0,350341796875;23,4093079408972;-1,18408203125E-09;0,3502197265625;1;33;1,01625025272369E-07;-1,49401128292084E-07;100 nA
0,30029296875;23,9097959396336;-1,8890380859375E-09;0,300140380859375;1;34;1,01625025272369E-07;-1,49401128292084E-07;100 nA
0,250244140625;24,41028393837;-2,9205322265625E-09;0,2501220703125;1;35;1,01625025272369E-07;-1,49401128292084E-07;100 nA
0,2001953125;24,9107719371063;-4,638671875E-09;0,20013427734375;1;36;1,01625025272369E-07;-1,49401128292084E-07;100 nA
0,150146484375;25,4112599358427;-6,982421875E-09;0,150146484375;1;37;1,01625025272369E-07;-1,49401128292084E-07;100 nA
0,10009765625;25,9117479345791;-7,99560546875E-09;0,10015869140625;1;38;1,01625025272369E-07;-1,49401128292084E-07;100 nA
0,050048828125;26,4122359333155;-8,123779296875E-09;0,050140380859375;1;39;1,01625025272369E-07;-1,49401128292084E-07;100 nA
0;26,9127239320519;-8,184814453125E-09;0,000158691406249994;1;40;1,01625025272369E-07;-1,49401128292084E-07;100 nA
-0,050048828125;27,4132119307883;-8,3953857421875E-09;-0,04974365234375;1;41;1,01625025272369E-07;-1,49401128292084E-07;100 nA
-0,10009765625;27,9136999295247;-8,746337890625E-09;-0,099639892578125;1;42;1,01625025272369E-07;-1,49401128292084E-07;100 nA
-0,150146484375;28,4141879282611;-9,16748046875E-09;-0,149566650390625;1;43;1,01625025272369E-07;-1,49401128292084E-07;100 nA
-0,2001953125;28,9146759269975;-9,7015380859375E-09;-0,199432373046875;1;44;1,01625025272369E-07;-1,49401128292084E-07;100 nA
-0,250244140625;29,4151639257339;-1,041259765625E-08;-0,249267578125;1;45;1,01625025272369E-07;-1,49401128292084E-07;100 nA
-0,30029296875;29,9156519244702;-1,12945556640625E-08;-0,2991943359375;1;46;1,01625025272369E-07;-1,49401128292084E-07;100 nA
-0,350341796875;30,4161399232066;-1,22100830078125E-08;-0,349151611328125;1;47;1,01625025272369E-07;-1,49401128292084E-07;100 nA
-0,400390625;30,916627921943;-1,27716064453125E-08;-0,3990478515625;1;48;1,01625025272369E-07;-1,49401128292084E-07;100 nA
-0,450439453125;31,4171159206794;-1,32415771484375E-08;-0,448883056640625;1;49;1,01625025272369E-07;-1,49401128292084E-07;100 nA
-0,50048828125;31,9176039194158;-1,38092041015625E-08;-0,498809814453125;1;50;1,01625025272369E-07;-1,49401128292084E-07;100 nA
-0,550537109375;32,4180919181522;-1,43310546875E-08;-0,548736572265625;1;51;1,01625025272369E-07;-1,49401128292084E-07;100 nA
-0,6005859375;32,9185799168886;-1,4630126953125E-08;-0,598663330078125;1;52;1,01625025272369E-07;-1,49401128292084E-07;100 nA
-0,650634765625;33,419067915625;-1,4263916015625E-08;-0,6485595703125;1;53;1,01625025272369E-07;-1,49401128292084E-07;100 nA
-0,70068359375;33,9195559143614;-1,31744384765625E-08;-0,6986083984375;1;54;1,01625025272369E-07;-1,49401128292084E-07;100 nA
-0,750732421875;34,4200439130977;-1,18743896484375E-08;-0,74859619140625;1;55;1,01625025272369E-07;-1,49401128292084E-07;100 nA
-0,80078125;34,9205319118341;-1,07696533203125E-08;-0,79864501953125;1;56;1,01625025272369E-07;-1,49401128292084E-07;100 nA
-0,850830078125;35,4210199105705;-9,8358154296875E-09;-0,84869384765625;1;57;1,01625025272369E-07;-1,49401128292084E-07;100 nA
-0,90087890625;35,9215079093069;-9,1278076171875E-09;-0,89874267578125;1;58;1,01625025272369E-07;-1,49401128292084E-07;100 nA
-0,950927734375;36,4219959080433;-8,563232421875E-09;-0,9490966796875;1;59;1,01625025272369E-07;-1,49401128292084E-07;100 nA
-1,0009765625;36,9224839067797;-8,4228515625E-09;-0,9991455078125;1;60;1,01625025272369E-07;-1,49401128292084E-07;100 nA
-0,950927734375;37,4229719055161;-6,884765625E-09;-0,948486328125;1;61;1,01625025272369E-07;-1,49401128292084E-07;100 nA
-0,90087890625;37,9234599042525;-5,865478515625E-09;-0,8990478515625;1;62;1,01625025272369E-07;-1,49401128292084E-07;100 nA
-0,850830078125;38,4239479029889;-5,06591796875E-09;-0,84808349609375;1;63;1,01625025272369E-07;-1,49401128292084E-07;100 nA
-0,80078125;38,9244359017252;-4,3609619140625E-09;-0,79864501953125;1;64;1,01625025272369E-07;-1,49401128292084E-07;100 nA
-0,750732421875;39,4249239004616;-3,6102294921875E-09;-0,748626708984375;1;65;1,01625025272369E-07;-1,49401128292084E-07;100 nA
-0,70068359375;39,925411899198;-2,74658203125E-09;-0,698638916015625;1;66;1,01625025272369E-07;-1,49401128292084E-07;100 nA
-0,650634765625;40,4258998979344;-1,7852783203125E-09;-0,648651123046875;1;67;1,01625025272369E-07;-1,49401128292084E-07;100 nA
-0,6005859375;40,9263878966708;-7,4462890625E-10;-0,598724365234375;1;68;1,01625025272369E-07;-1,49401128292084E-07;100 nA
-0,550537109375;41,4268758954072;4,486083984375E-10;-0,548858642578125;1;69;1,01625025272369E-07;-1,49401128292084E-07;100 nA
-0,50048828125;41,9273638941436;1,776123046875E-09;-0,498870849609375;1;70;1,01625025272369E-07;-1,49401128292084E-07;100 nA
-0,450439453125;42,42785189288;3,1646728515625E-09;-0,448974609375;1;71;1,01625025272369E-07;-1,49401128292084E-07;100 nA
-0,400390625;42,9283398916164;4,5257568359375E-09;-0,39910888671875;1;72;1,01625025272369E-07;-1,49401128292084E-07;100 nA
-0,350341796875;43,4288278903528;5,6976318359375E-09;-0,349212646484375;1;73;1,01625025272369E-07;-1,49401128292084E-07;100 nA
-0,30029296875;43,9293158890891;6,622314453125E-09;-0,29931640625;1;74;1,01625025272369E-07;-1,49401128292084E-07;100 nA
-0,250244140625;44,4298038878255;7,2540283203125E-09;-0,2493896484375;1;75;1,01625025272369E-07;-1,49401128292084E-07;100 nA
-0,2001953125;44,9302918865619;7,7301025390625E-09;-0,199493408203125;1;76;1,01625025272369E-07;-1,49401128292084E-07;100 nA
-0,150146484375;45,4307798852983;8,0078125E-09;-0,149566650390625;1;77;1,01625025272369E-07;-1,49401128292084E-07;100 nA
-0,10009765625;45,9312678840347;8,0902099609375E-09;-0,099700927734375;1;78;1,01625025272369E-07;-1,49401128292084E-07;100 nA
-0,050048828125;46,4317558827711;8,160400390625E-09;-0,0498046875;1;79;1,01625025272369E-07;-1,49401128292084E-07;100 nA
0;46,9322438815075;8,2977294921875E-09;0,000112915039062494;1;80;1,01625025272369E-07;-1,49401128292084E-07;100 nA
0,050048828125;47,4327318802439;8,514404296875E-09;0,050048828125;2;81;1,32815428078175E-07;-1,38940177857876E-07;100 nA
0,10009765625;47,9332198789803;8,8104248046875E-09;0,10003662109375;2;82;1,32815428078175E-07;-1,38940177857876E-07;100 nA
0,150146484375;48,4337078777166;9,19189453125E-09;0,15008544921875;2;83;1,32815428078175E-07;-1,38940177857876E-07;100 nA
0,2001953125;48,934195876453;9,4940185546875E-09;0,200103759765625;2;84;1,32815428078175E-07;-1,38940177857876E-07;100 nA
0,250244140625;49,4346838751894;8,3831787109375E-09;0,250091552734375;2;85;1,32815428078175E-07;-1,38940177857876E-07;100 nA
0,30029296875;49,9351718739258;7,0770263671875E-09;0,300018310546875;2;86;1,32815428078175E-07;-1,38940177857876E-07;100 nA
0,350341796875;50,4356598726622;6,5093994140625E-09;0,350128173828125;2;87;1,32815428078175E-07;-1,38940177857876E-07;100 nA
0,400390625;50,9361478713986;6,2774658203125E-09;0,40008544921875;2;88;1,32815428078175E-07;-1,38940177857876E-07;100 nA
0,450439453125;51,436635870135;6,158447265625E-09;0,450103759765625;2;89;1,32815428078175E-07;-1,38940177857876E-07;100 nA
0,50048828125;51,9371238688714;6,1248779296875E-09;0,5001220703125;2;90;1,32815428078175E-07;-1,38940177857876E-07;100 nA
0,550537109375;52,4376118676078;6,2469482421875E-09;0,55010986328125;2;91;1,32815428078175E-07;-1,38940177857876E-07;100 nA
0,6005859375;52,9380998663441;6,451416015625E-09;0,600128173828125;2;92;1,32815428078175E-07;-1,38940177857876E-07;100 nA
0,650634765625;53,4385878650805;6,7108154296875E-09;0,650054931640625;2;93;1,32815428078175E-07;-1,38940177857876E-07;100 nA
0,70068359375;53,9390758638169;6,976318359375E-09;0,699981689453125;2;94;1,32815428078175E-07;-1,38940177857876E-07;100 nA
0,750732421875;54,4395638625533;7,21435546875E-09;0,749847412109375;2;95;1,32815428078175E-07;-1,38940177857876E-07;100 nA
0,80078125;54,9400518612897;7,4920654296875E-09;0,79986572265625;2;96;1,32815428078175E-07;-1,38940177857876E-07;100 nA
0,850830078125;55,4405398600261;7,91015625E-09;0,8502197265625;2;97;1,32815428078175E-07;-1,38940177857876E-07;100 nA
0,90087890625;55,9410278587625;8,5601806640625E-09;0,899658203125;2;98;1,32815428078175E-07;-1,38940177857876E-07;100 nA
0,950927734375;56,4415158574989;9,5489501953125E-09;0,94970703125;2;99;1,32815428078175E-07;-1,38940177857876E-07;100 nA
1,0009765625;56,9420038562353;1,0919189453125E-08;1,00006103515625;2;100;1,32815428078175E-07;-1,38940177857876E-07;100 nA
0,950927734375;57,4424918549716;7,904052734375E-09;0,94940185546875;2;101;1,32815428078175E-07;-1,38940177857876E-07;100 nA
0,90087890625;57,942979853708;6,2530517578125E-09;0,89996337890625;2;102;1,32815428078175E-07;-1,38940177857876E-07;100 nA
0,850830078125;58,4434678524444;5,21240234375E-09;0,84991455078125;2;103;1,32815428078175E-07;-1,38940177857876E-07;100 nA
0,80078125;58,9439558511808;4,443359375E-09;0,799560546875;2;104;1,32815428078175E-07;-1,38940177857876E-07;100 nA
0,750732421875;59,4444438499172;3,778076171875E-09;0,74993896484375;2;105;1,32815428078175E-07;-1,38940177857876E-07;100 nA
0,70068359375;59,9449318486536;3,204345703125E-09;0,699981689453125;2;106;1,32815428078175E-07;-1,38940177857876E-07;100 nA
0,650634765625;60,44541984739;2,72216796875E-09;0,650115966796875;2;107;1,32815428078175E-07;-1,38940177857876E-07;100 nA
0,6005859375;60,9459078461264;2,276611328125E-09;0,60015869140625;2;108;1,32815428078175E-07;-1,38940177857876E-07;100 nA
0,550537109375;61,4463958448628;1,8463134765625E-09;0,550140380859375;2;109;1,32815428078175E-07;-1,38940177857876E-07;100 nA
0,50048828125;61,9468838435992;1,4007568359375E-09;0,50018310546875;2;110;1,32815428078175E-07;-1,38940177857876E-07;100 nA
0,450439453125;62,4473718423355;9,521484375E-10;0,450164794921875;2;111;1,32815428078175E-07;-1,38940177857876E-07;100 nA
0,400390625;62,9478598410719;4,2724609375E-10;0,400177001953125;2;112;1,32815428078175E-07;-1,38940177857876E-07;100 nA
0,350341796875;63,4483478398083;-2,197265625E-10;0,35015869140625;2;113;1,32815428078175E-07;-1,38940177857876E-07;100 nA
0,30029296875;63,9488358385447;-1,0009765625E-09;0,30010986328125;2;114;1,32815428078175E-07;-1,38940177857876E-07;100 nA
0,250244140625;64,4493238372811;-1,9256591796875E-09;0,2501220703125;2;115;1,32815428078175E-07;-1,38940177857876E-07;100 nA
0,2001953125;64,9498118360175;-3,375244140625E-09;0,20013427734375;2;116;1,32815428078175E-07;-1,38940177857876E-07;100 nA
0,150146484375;65,4502998347539;-5,6427001953125E-09;0,15008544921875;2;117;1,32815428078175E-07;-1,38940177857876E-07;100 nA
0,10009765625;65,9507878334903;-7,6385498046875E-09;0,100128173828125;2;118;1,32815428078175E-07;-1,38940177857876E-07;100 nA
0,050048828125;66,4512758322267;-7,989501953125E-09;0,0501708984375;2;119;1,32815428078175E-07;-1,38940177857876E-07;100 nA
0;66,951763830963;-8,135986328125E-09;0,0001678466796875;2;120;1,32815428078175E-07;-1,38940177857876E-07;100 nA
-0,050048828125;67,4522518296994;-8,3343505859375E-09;-0,049774169921875;2;121;1,32815428078175E-07;-1,38940177857876E-07;100 nA
-0,10009765625;67,9527398284358;-8,6944580078125E-09;-0,099700927734375;2;122;1,32815428078175E-07;-1,38940177857876E-07;100 nA
-0,150146484375;68,4532278271722;-9,0911865234375E-09;-0,1495361328125;2;123;1,32815428078175E-07;-1,38940177857876E-07;100 nA
-0,2001953125;68,9537158259086;-9,564208984375E-09;-0,199462890625;2;124;1,32815428078175E-07;-1,38940177857876E-07;100 nA
-0,250244140625;69,454203824645;-1,01654052734375E-08;-0,249298095703125;2;125;1,32815428078175E-07;-1,38940177857876E-07;100 nA
-0,30029296875;69,9546918233814;-1,09100341796875E-08;-0,299224853515625;2;126;1,32815428078175E-07;-1,38940177857876E-07;100 nA
-0,350341796875;70,4551798221178;-1,1761474609375E-08;-0,349212646484375;2;127;1,32815428078175E-07;-1,38940177857876E-07;100 nA
-0,400390625;70,9556678208542;-1,23260498046875E-08;-0,3990478515625;2;128;1,32815428078175E-07;-1,38940177857876E-07;100 nA
-0,450439453125;71,4561558195905;-1,2725830078125E-08;-0,44891357421875;2;129;1,32815428078175E-07;-1,38940177857876E-07;100 nA
-0,50048828125;71,9566438183269;-1,3201904296875E-08;-0,49884033203125;2;130;1,32815428078175E-07;-1,38940177857876E-07;100 nA
-0,550537109375;72,4571318170633;-1,3592529296875E-08;-0,548736572265625;2;131;1,32815428078175E-07;-1,38940177857876E-07;100 nA
-0,6005859375;72,9576198157997;-1,351318359375E-08;-0,598663330078125;2;132;1,32815428078175E-07;-1,38940177857876E-07;100 nA
-0,650634765625;73,4581078145361;-1,27197265625E-08;-0,648590087890625;2;133;1,32815428078175E-07;-1,38940177857876E-07;100 nA
-0,70068359375;73,9585958132725;-1,1553955078125E-08;-0,698577880859375;2;134;1,32815428078175E-07;-1,38940177857876E-07;100 nA
-0,750732421875;74,4590838120089;-1,046142578125E-08;-0,748565673828125;2;135;1,32815428078175E-07;-1,38940177857876E-07;100 nA
-0,80078125;74,9595718107453;-9,5672607421875E-09;-0,7989501953125;2;136;1,32815428078175E-07;-1,38940177857876E-07;100 nA
-0,850830078125;75,4600598094817;-8,837890625E-09;-0,84869384765625;2;137;1,32815428078175E-07;-1,38940177857876E-07;100 nA
-0,90087890625;75,9605478082181;-8,2763671875E-09;-0,89874267578125;2;138;1,32815428078175E-07;-1,38940177857876E-07;100 nA
-0,950927734375;76,4610358069544;-8,0078125E-09;-0,948486328125;2;139;1,32815428078175E-07;-1,38940177857876E-07;100 nA
-1,0009765625;76,9615238056908;-8,0474853515625E-09;-0,99884033203125;2;140;1,32815428078175E-07;-1,38940177857876E-07;100 nA
-0,950927734375;77,4620118044272;-6,6436767578125E-09;-0,94879150390625;2;141;1,32815428078175E-07;-1,38940177857876E-07;100 nA
-0,90087890625;77,9624998031636;-5,6976318359375E-09;-0,8984375;2;142;1,32815428078175E-07;-1,38940177857876E-07;100 nA
-0,850830078125;78,4629878019;-4,91943359375E-09;-0,84869384765625;2;143;1,32815428078175E-07;-1,38940177857876E-07;100 nA
-0,80078125;78,9634758006364;-4,2388916015625E-09;-0,7989501953125;2;144;1,32815428078175E-07;-1,38940177857876E-07;100 nA
-0,750732421875;79,4639637993728;-3,546142578125E-09;-0,748626708984375;2;145;1,32815428078175E-07;-1,38940177857876E-07;100 nA
-0,70068359375;79,9644517981092;-2,7313232421875E-09;-0,6986083984375;2;146;1,32815428078175E-07;-1,38940177857876E-07;100 nA
-0,650634765625;80,4649397968456;-1,79443359375E-09;-0,648681640625;2;147;1,32815428078175E-07;-1,38940177857876E-07;100 nA
-0,6005859375;80,9654277955819;-7,568359375E-10;-0,598663330078125;2;148;1,32815428078175E-07;-1,38940177857876E-07;100 nA
-0,550537109375;81,4659157943183;3,509521484375E-10;-0,548858642578125;2;149;1,32815428078175E-07;-1,38940177857876E-07;100 nA
-0,50048828125;81,9664037930547;1,66015625E-09;-0,498931884765625;2;150;1,32815428078175E-07;-1,38940177857876E-07;100 nA
-0,450439453125;82,4668917917911;3,0731201171875E-09;-0,448944091796875;2;151;1,32815428078175E-07;-1,38940177857876E-07;100 nA
-0,400390625;82,9673797905275;4,449462890625E-09;-0,399139404296875;2;152;1,32815428078175E-07;-1,38940177857876E-07;100 nA
-0,350341796875;83,4678677892639;5,65185546875E-09;-0,349212646484375;2;153;1,32815428078175E-07;-1,38940177857876E-07;100 nA
-0,30029296875;83,9683557880003;6,6162109375E-09;-0,299346923828125;2;154;1,32815428078175E-07;-1,38940177857876E-07;100 nA
-0,250244140625;84,4688437867367;7,330322265625E-09;-0,249420166015625;2;155;1,32815428078175E-07;-1,38940177857876E-07;100 nA
-0,2001953125;84,9693317854731;7,8399658203125E-09;-0,19952392578125;2;156;1,32815428078175E-07;-1,38940177857876E-07;100 nA
-0,150146484375;85,4698197842094;8,2000732421875E-09;-0,149627685546875;2;157;1,32815428078175E-07;-1,38940177857876E-07;100 nA
-0,10009765625;85,9703077829458;8,31298828125E-09;-0,0997314453125;2;158;1,32815428078175E-07;-1,38940177857876E-07;100 nA
-0,050048828125;86,4707957816822;8,380126953125E-09;-0,049835205078125;2;159;1,32815428078175E-07;-1,38940177857876E-07;100 nA
0;86,9712837804186;8,514404296875E-09;0,000109863281249997;2;160;1,32815428078175E-07;-1,38940177857876E-07;100 nA
0,050048828125;87,471771779155;8,7432861328125E-09;0,050079345703125;3;161;1,35845728218555E-07;-1,36548317968845E-07;100 nA
0,10009765625;87,9722597778914;9,04541015625E-09;0,100067138671875;3;162;1,35845728218555E-07;-1,36548317968845E-07;100 nA
0,150146484375;88,4727477766278;9,4390869140625E-09;0,150054931640625;3;163;1,35845728218555E-07;-1,36548317968845E-07;100 nA
0,2001953125;88,9732357753642;9,619140625E-09;0,200164794921875;3;164;1,35845728218555E-07;-1,36548317968845E-07;100 nA
0,250244140625;89,4737237741006;8,3099365234375E-09;0,25006103515625;3;165;1,35845728218555E-07;-1,36548317968845E-07;100 nA
0,30029296875;89,974211772837;7,1258544921875E-09;0,300018310546875;3;166;1,35845728218555E-07;-1,36548317968845E-07;100 nA
0,350341796875;90,4746997715733;6,658935546875E-09;0,35009765625;3;167;1,35845728218555E-07;-1,36548317968845E-07;100 nA
0,400390625;90,9751877703097;6,4422607421875E-09;0,400054931640625;3;168;1,35845728218555E-07;-1,36548317968845E-07;100 nA
0,450439453125;91,4756757690461;6,341552734375E-09;0,45013427734375;3;169;1,35845728218555E-07;-1,36548317968845E-07;100 nA
0,50048828125;91,9761637677825;6,34765625E-09;0,50006103515625;3;170;1,35845728218555E-07;-1,36548317968845E-07;100 nA
0,550537109375;92,4766517665189;6,4605712890625E-09;0,5501708984375;3;171;1,35845728218555E-07;-1,36548317968845E-07;100 nA
0,6005859375;92,9771397652553;6,689453125E-09;0,60009765625;3;172;1,35845728218555E-07;-1,36548317968845E-07;100 nA
0,650634765625;93,4776277639917;6,9580078125E-09;0,650054931640625;3;173;1,35845728218555E-07;-1,36548317968845E-07;100 nA
0,70068359375;93,9781157627281;7,208251953125E-09;0,699920654296875;3;174;1,35845728218555E-07;-1,36548317968845E-07;100 nA
0,750732421875;94,4786037614645;7,4371337890625E-09;0,7498779296875;3;175;1,35845728218555E-07;-1,36548317968845E-07;100 nA
0,80078125;94,9790917602008;7,733154296875E-09;0,79925537109375;3;176;1,35845728218555E-07;-1,36548317968845E-07;100 nA
0,850830078125;95,4795797589372;8,148193359375E-09;0,84991455078125;3;177;1,35845728218555E-07;-1,36548317968845E-07;100 nA
0,90087890625;95,9800677576736;8,837890625E-09;0,899658203125;3;178;1,35845728218555E-07;-1,36548317968845E-07;100 nA
0,950927734375;96,48055575641;9,869384765625E-09;0,95001220703125;3;179;1,35845728218555E-07;-1,36548317968845E-07;100 nA
1,0009765625;96,9810437551464;1,12762451171875E-08;0,999755859375;3;180;1,35845728218555E-07;-1,36548317968845E-07;100 nA
0,950927734375;97,4815317538828;8,1146240234375E-09;0,9503173828125;3;181;1,35845728218555E-07;-1,36548317968845E-07;100 nA
0,90087890625;97,9820197526192;6,3934326171875E-09;0,89996337890625;3;182;1,35845728218555E-07;-1,36548317968845E-07;100 nA
0,850830078125;98,4825077513556;5,31005859375E-09;0,84991455078125;3;183;1,35845728218555E-07;-1,36548317968845E-07;100 nA
0,80078125;98,982995750092;4,5501708984375E-09;0,79986572265625;3;184;1,35845728218555E-07;-1,36548317968845E-07;100 nA
0,750732421875;99,4834837488283;3,90625E-09;0,749908447265625;3;185;1,35845728218555E-07;-1,36548317968845E-07;100 nA
0,70068359375;99,9839717475647;3,3203125E-09;0,699951171875;3;186;1,35845728218555E-07;-1,36548317968845E-07;100 nA
0,650634765625;100,484459746301;2,8472900390625E-09;0,650054931640625;3;187;1,35845728218555E-07;-1,36548317968845E-07;100 nA
0,6005859375;100,984947745038;2,4169921875E-09;0,60015869140625;3;188;1,35845728218555E-07;-1,36548317968845E-07;100 nA
0,550537109375;101,485435743774;2,001953125E-09;0,5501708984375;3;189;1,35845728218555E-07;-1,36548317968845E-07;100 nA
0,50048828125;101,98592374251;1,5716552734375E-09;0,500152587890625;3;190;1,35845728218555E-07;-1,36548317968845E-07;100 nA
0,450439453125;102,486411741247;1,123046875E-09;0,450103759765625;3;191;1,35845728218555E-07;-1,36548317968845E-07;100 nA
0,400390625;102,986899739983;6,134033203125E-10;0,400177001953125;3;192;1,35845728218555E-07;-1,36548317968845E-07;100 nA
0,350341796875;103,487387738719;-6,103515625E-12;0,35015869140625;3;193;1,35845728218555E-07;-1,36548317968845E-07;100 nA
0,30029296875;103,987875737456;-7,568359375E-10;0,30010986328125;3;194;1,35845728218555E-07;-1,36548317968845E-07;100 nA
0,250244140625;104,488363736192;-1,6571044921875E-09;0,2501220703125;3;195;1,35845728218555E-07;-1,36548317968845E-07;100 nA
0,2001953125;104,988851734929;-3,057861328125E-09;0,200103759765625;3;196;1,35845728218555E-07;-1,36548317968845E-07;100 nA
0,150146484375;105,489339733665;-5,2276611328125E-09;0,150146484375;3;197;1,35845728218555E-07;-1,36548317968845E-07;100 nA
0,10009765625;105,989827732401;-7,4127197265625E-09;0,100189208984375;3;198;1,35845728218555E-07;-1,36548317968845E-07;100 nA
0,050048828125;106,490315731138;-7,8826904296875E-09;0,050140380859375;3;199;1,35845728218555E-07;-1,36548317968845E-07;100 nA
0;106,990803729874;-8,0596923828125E-09;0,000180053710937503;3;200;1,35845728218555E-07;-1,36548317968845E-07;100 nA
-0,050048828125;107,491291728611;-8,245849609375E-09;-0,04974365234375;3;201;1,35845728218555E-07;-1,36548317968845E-07;100 nA
-0,10009765625;107,991779727347;-8,612060546875E-09;-0,099639892578125;3;202;1,35845728218555E-07;-1,36548317968845E-07;100 nA
-0,150146484375;108,492267726083;-9,0240478515625E-09;-0,149566650390625;3;203;1,35845728218555E-07;-1,36548317968845E-07;100 nA
-0,2001953125;108,99275572482;-9,503173828125E-09;-0,199493408203125;3;204;1,35845728218555E-07;-1,36548317968845E-07;100 nA
-0,250244140625;109,493243723556;-1,00921630859375E-08;-0,249359130859375;3;205;1,35845728218555E-07;-1,36548317968845E-07;100 nA
-0,30029296875;109,993731722293;-1,083984375E-08;-0,29925537109375;3;206;1,35845728218555E-07;-1,36548317968845E-07;100 nA
-0,350341796875;110,494219721029;-1,17034912109375E-08;-0,349151611328125;3;207;1,35845728218555E-07;-1,36548317968845E-07;100 nA
-0,400390625;110,994707719765;-1,23046875E-08;-0,39910888671875;3;208;1,35845728218555E-07;-1,36548317968845E-07;100 nA
-0,450439453125;111,495195718502;-1,2689208984375E-08;-0,448944091796875;3;209;1,35845728218555E-07;-1,36548317968845E-07;100 nA
-0,50048828125;111,995683717238;-1,31317138671875E-08;-0,49884033203125;3;210;1,35845728218555E-07;-1,36548317968845E-07;100 nA
-0,550537109375;112,496171715974;-1,34613037109375E-08;-0,548797607421875;3;211;1,35845728218555E-07;-1,36548317968845E-07;100 nA
-0,6005859375;112,996659714711;-1,32232666015625E-08;-0,598663330078125;3;212;1,35845728218555E-07;-1,36548317968845E-07;100 nA
-0,650634765625;113,497147713447;-1,23321533203125E-08;-0,648590087890625;3;213;1,35845728218555E-07;-1,36548317968845E-07;100 nA
-0,70068359375;113,997635712184;-1,1163330078125E-08;-0,6986083984375;3;214;1,35845728218555E-07;-1,36548317968845E-07;100 nA
-0,750732421875;114,49812371092;-1,01409912109375E-08;-0,74853515625;3;215;1,35845728218555E-07;-1,36548317968845E-07;100 nA
-0,80078125;114,998611709656;-9,3017578125E-09;-0,79864501953125;3;216;1,35845728218555E-07;-1,36548317968845E-07;100 nA
-0,850830078125;115,499099708393;-8,636474609375E-09;-0,848388671875;3;217;1,35845728218555E-07;-1,36548317968845E-07;100 nA
-0,90087890625;115,999587707129;-8,09326171875E-09;-0,8990478515625;3;218;1,35845728218555E-07;-1,36548317968845E-07;100 nA
-0,950927734375;116,500075705866;-7,91015625E-09;-0,948486328125;3;219;1,35845728218555E-07;-1,36548317968845E-07;100 nA
-1,0009765625;117,000563704602;-7,9742431640625E-09;-0,99884033203125;3;220;1,35845728218555E-07;-1,36548317968845E-07;100 nA
-0,950927734375;117,501051703338;-6,60400390625E-09;-0,948486328125;3;221;1,35845728218555E-07;-1,36548317968845E-07;100 nA
-0,90087890625;118,001539702075;-5,657958984375E-09;-0,8984375;3;222;1,35845728218555E-07;-1,36548317968845E-07;100 nA
-0,850830078125;118,502027700811;-4,9072265625E-09;-0,84869384765625;3;223;1,35845728218555E-07;-1,36548317968845E-07;100 nA
-0,80078125;119,002515699548;-4,2327880859375E-09;-0,7989501953125;3;224;1,35845728218555E-07;-1,36548317968845E-07;100 nA
-0,750732421875;119,503003698284;-3,570556640625E-09;-0,7486572265625;3;225;1,35845728218555E-07;-1,36548317968845E-07;100 nA
-0,70068359375;120,00349169702;-2,7618408203125E-09;-0,69866943359375;3;226;1,35845728218555E-07;-1,36548317968845E-07;100 nA
-0,650634765625;120,503979695757;-1,837158203125E-09;-0,648651123046875;3;227;1,35845728218555E-07;-1,36548317968845E-07;100 nA
-0,6005859375;121,004467694493;-8,148193359375E-10;-0,5987548828125;3;228;1,35845728218555E-07;-1,36548317968845E-07;100 nA
-0,550537109375;121,504955693229;3,265380859375E-10;-0,54876708984375;3;229;1,35845728218555E-07;-1,36548317968845E-07;100 nA
-0,50048828125;122,005443691966;1,6204833984375E-09;-0,4989013671875;3;230;1,35845728218555E-07;-1,36548317968845E-07;100 nA
-0,450439453125;122,505931690702;3,01513671875E-09;-0,44903564453125;3;231;1,35845728218555E-07;-1,36548317968845E-07;100 nA
-0,400390625;123,006419689439;4,3853759765625E-09;-0,399139404296875;3;232;1,35845728218555E-07;-1,36548317968845E-07;100 nA
-0,350341796875;123,506907688175;5,6304931640625E-09;-0,3492431640625;3;233;1,35845728218555E-07;-1,36548317968845E-07;100 nA
-0,30029296875;124,007395686911;6,622314453125E-09;-0,299285888671875;3;234;1,35845728218555E-07;-1,36548317968845E-07;100 nA
-0,250244140625;124,507883685648;7,3486328125E-09;-0,249420166015625;3;235;1,35845728218555E-07;-1,36548317968845E-07;100 nA
-0,2001953125;125,008371684384;7,879638671875E-09;-0,199462890625;3;236;1,35845728218555E-07;-1,36548317968845E-07;100 nA
-0,150146484375;125,508859683121;8,251953125E-09;-0,149566650390625;3;237;1,35845728218555E-07;-1,36548317968845E-07;100 nA
-0,10009765625;126,009347681857;8,4075927734375E-09;-0,099700927734375;3;238;1,35845728218555E-07;-1,36548317968845E-07;100 nA
-0,050048828125;126,509835680593;8,4808349609375E-09;-0,0498046875;3;239;1,35845728218555E-07;-1,36548317968845E-07;100 nA
0;127,01032367933;8,5968017578125E-09;0,000112915039062494;3;240;1,35845728218555E-07;-1,36548317968845E-07;100 nA
0,050048828125;127,510811678066;8,8348388671875E-09;0,050048828125;4;241;1,36514715850353E-07;-1,3535849750042E-07;100 nA
0,10009765625;128,011299676803;9,1461181640625E-09;0,100067138671875;4;242;1,36514715850353E-07;-1,3535849750042E-07;100 nA
0,150146484375;128,511787675539;9,5428466796875E-09;0,1500244140625;4;243;1,36514715850353E-07;-1,3535849750042E-07;100 nA
0,2001953125;129,012275674275;9,65576171875E-09;0,20013427734375;4;244;1,36514715850353E-07;-1,3535849750042E-07;100 nA
0,250244140625;129,512763673012;8,2763671875E-09;0,250091552734375;4;245;1,36514715850353E-07;-1,3535849750042E-07;100 nA
0,30029296875;130,013251671748;7,1533203125E-09;0,300140380859375;4;246;1,36514715850353E-07;-1,3535849750042E-07;100 nA
0,350341796875;130,513739670484;6,7413330078125E-09;0,35015869140625;4;247;1,36514715850353E-07;-1,3535849750042E-07;100 nA
0,400390625;131,014227669221;6,5155029296875E-09;0,400146484375;4;248;1,36514715850353E-07;-1,3535849750042E-07;100 nA
0,450439453125;131,514715667957;6,439208984375E-09;0,45013427734375;4;249;1,36514715850353E-07;-1,3535849750042E-07;100 nA
0,50048828125;132,015203666694;6,4453125E-09;0,5001220703125;4;250;1,36514715850353E-07;-1,3535849750042E-07;100 nA
0,550537109375;132,51569166543;6,585693359375E-09;0,550140380859375;4;251;1,36514715850353E-07;-1,3535849750042E-07;100 nA
0,6005859375;133,016179664166;6,817626953125E-09;0,600067138671875;4;252;1,36514715850353E-07;-1,3535849750042E-07;100 nA
0,650634765625;133,516667662903;7,0831298828125E-09;0,650054931640625;4;253;1,36514715850353E-07;-1,3535849750042E-07;100 nA
0,70068359375;134,017155661639;7,3333740234375E-09;0,699981689453125;4;254;1,36514715850353E-07;-1,3535849750042E-07;100 nA
0,750732421875;134,517643660376;7,5439453125E-09;0,749847412109375;4;255;1,36514715850353E-07;-1,3535849750042E-07;100 nA
0,80078125;135,018131659112;7,830810546875E-09;0,799560546875;4;256;1,36514715850353E-07;-1,3535849750042E-07;100 nA
0,850830078125;135,518619657848;8,258056640625E-09;0,84991455078125;4;257;1,36514715850353E-07;-1,3535849750042E-07;100 nA
0,90087890625;136,019107656585;8,9263916015625E-09;0,899658203125;4;258;1,36514715850353E-07;-1,3535849750042E-07;100 nA
0,950927734375;136,519595655321;9,9700927734375E-09;0,94970703125;4;259;1,36514715850353E-07;-1,3535849750042E-07;100 nA
1,0009765625;137,020083654058;1,13555908203125E-08;1,00006103515625;4;260;1,36514715850353E-07;-1,3535849750042E-07;100 nA
0,950927734375;137,520571652794;8,1146240234375E-09;0,94970703125;4;261;1,36514715850353E-07;-1,3535849750042E-07;100 nA
0,90087890625;138,02105965153;6,3934326171875E-09;0,89996337890625;4;262;1,36514715850353E-07;-1,3535849750042E-07;100 nA
0,850830078125;138,521547650267;5,316162109375E-09;0,8502197265625;4;263;1,36514715850353E-07;-1,3535849750042E-07;100 nA
0,80078125;139,022035649003;4,522705078125E-09;0,79925537109375;4;264;1,36514715850353E-07;-1,3535849750042E-07;100 nA
0,750732421875;139,522523647739;3,8848876953125E-09;0,7498779296875;4;265;1,36514715850353E-07;-1,3535849750042E-07;100 nA
0,70068359375;140,023011646476;3,3050537109375E-09;0,70001220703125;4;266;1,36514715850353E-07;-1,3535849750042E-07;100 nA
0,650634765625;140,523499645212;2,825927734375E-09;0,650054931640625;4;267;1,36514715850353E-07;-1,3535849750042E-07;100 nA
0,6005859375;141,023987643949;2,398681640625E-09;0,60003662109375;4;268;1,36514715850353E-07;-1,3535849750042E-07;100 nA
0,550537109375;141,524475642685;1,9866943359375E-09;0,5501708984375;4;269;1,36514715850353E-07;-1,3535849750042E-07;100 nA
0,50048828125;142,024963641421;1,5594482421875E-09;0,500091552734375;4;270;1,36514715850353E-07;-1,3535849750042E-07;100 nA
0,450439453125;142,525451640158;1,1474609375E-09;0,45013427734375;4;271;1,36514715850353E-07;-1,3535849750042E-07;100 nA
0,400390625;143,025939638894;6,53076171875E-10;0,400177001953125;4;272;1,36514715850353E-07;-1,3535849750042E-07;100 nA
0,350341796875;143,526427637631;3,662109375E-11;0,350128173828125;4;273;1,36514715850353E-07;-1,3535849750042E-07;100 nA
0,30029296875;144,026915636367;-6,9580078125E-10;0,300140380859375;4;274;1,36514715850353E-07;-1,3535849750042E-07;100 nA
0,250244140625;144,527403635103;-1,5960693359375E-09;0,2501220703125;4;275;1,36514715850353E-07;-1,3535849750042E-07;100 nA
0,2001953125;145,02789163384;-2,947998046875E-09;0,2000732421875;4;276;1,36514715850353E-07;-1,3535849750042E-07;100 nA
0,150146484375;145,528379632576;-5,0933837890625E-09;0,150146484375;4;277;1,36514715850353E-07;-1,3535849750042E-07;100 nA
0,10009765625;146,028867631313;-7,33642578125E-09;0,10015869140625;4;278;1,36514715850353E-07;-1,3535849750042E-07;100 nA
0,050048828125;146,529355630049;-7,8643798828125E-09;0,0501708984375;4;279;1,36514715850353E-07;-1,3535849750042E-07;100 nA
0;147,029843628785;-8,04443359375E-09;0,000161743164062506;4;280;1,36514715850353E-07;-1,3535849750042E-07;100 nA
-0,050048828125;147,530331627522;-8,21533203125E-09;-0,049688720703125;4;281;1,36514715850353E-07;-1,3535849750042E-07;100 nA
-0,10009765625;148,030819626258;-8,5601806640625E-09;-0,09967041015625;4;282;1,36514715850353E-07;-1,3535849750042E-07;100 nA
-0,150146484375;148,531307624995;-8,9752197265625E-09;-0,1495361328125;4;283;1,36514715850353E-07;-1,3535849750042E-07;100 nA
-0,2001953125;149,031795623731;-9,4512939453125E-09;-0,199432373046875;4;284;1,36514715850353E-07;-1,3535849750042E-07;100 nA
-0,250244140625;149,532283622467;-1,00067138671875E-08;-0,24932861328125;4;285;1,36514715850353E-07;-1,3535849750042E-07;100 nA
-0,30029296875;150,032771621204;-1,07452392578125E-08;-0,2991943359375;4;286;1,36514715850353E-07;-1,3535849750042E-07;100 nA
-0,350341796875;150,53325961994;-1,15814208984375E-08;-0,349151611328125;4;287;1,36514715850353E-07;-1,3535849750042E-07;100 nA
-0,400390625;151,033747618676;-1,22467041015625E-08;-0,399017333984375;4;288;1,36514715850353E-07;-1,3535849750042E-07;100 nA
-0,450439453125;151,534235617413;-1,26312255859375E-08;-0,44891357421875;4;289;1,36514715850353E-07;-1,3535849750042E-07;100 nA
-0,50048828125;152,034723616149;-1,3043212890625E-08;-0,498809814453125;4;290;1,36514715850353E-07;-1,3535849750042E-07;100 nA
-0,550537109375;152,535211614886;-1,33087158203125E-08;-0,54876708984375;4;291;1,36514715850353E-07;-1,3535849750042E-07;100 nA
-0,6005859375;153,035699613622;-1,300048828125E-08;-0,598663330078125;4;292;1,36514715850353E-07;-1,3535849750042E-07;100 nA
-0,650634765625;153,536187612358;-1,20635986328125E-08;-0,6485595703125;4;293;1,36514715850353E-07;-1,3535849750042E-07;100 nA
-0,70068359375;154,036675611095;-1,09130859375E-08;-0,698577880859375;4;294;1,36514715850353E-07;-1,3535849750042E-07;100 nA
-0,750732421875;154,537163609831;-9,9334716796875E-09;-0,748504638671875;4;295;1,36514715850353E-07;-1,3535849750042E-07;100 nA
-0,80078125;155,037651608568;-9,130859375E-09;-0,79833984375;4;296;1,36514715850353E-07;-1,3535849750042E-07;100 nA
-0,850830078125;155,538139607304;-8,50830078125E-09;-0,84869384765625;4;297;1,36514715850353E-07;-1,3535849750042E-07;100 nA
-0,90087890625;156,03862760604;-7,9986572265625E-09;-0,8984375;4;298;1,36514715850353E-07;-1,3535849750042E-07;100 nA
-0,950927734375;156,539115604777;-7,8826904296875E-09;-0,948486328125;4;299;1,36514715850353E-07;-1,3535849750042E-07;100 nA
-1,0009765625;157,039603603513;-7,9559326171875E-09;-0,99884033203125;4;300;1,36514715850353E-07;-1,3535849750042E-07;100 nA
-0,950927734375;157,54009160225;-6,610107421875E-09;-0,94879150390625;4;301;1,36514715850353E-07;-1,3535849750042E-07;100 nA
-0,90087890625;158,040579600986;-5,7037353515625E-09;-0,8990478515625;4;302;1,36514715850353E-07;-1,3535849750042E-07;100 nA
-0,850830078125;158,541067599722;-4,9468994140625E-09;-0,84930419921875;4;303;1,36514715850353E-07;-1,3535849750042E-07;100 nA
-0,80078125;159,041555598459;-4,2694091796875E-09;-0,7989501953125;4;304;1,36514715850353E-07;-1,3535849750042E-07;100 nA
-0,750732421875;159,542043597195;-3,5888671875E-09;-0,748626708984375;4;305;1,36514715850353E-07;-1,3535849750042E-07;100 nA
-0,70068359375;160,042531595931;-2,8167724609375E-09;-0,6986083984375;4;306;1,36514715850353E-07;-1,3535849750042E-07;100 nA
-0,650634765625;160,543019594668;-1,898193359375E-09;-0,648590087890625;4;307;1,36514715850353E-07;-1,3535849750042E-07;100 nA
-0,6005859375;161,043507593404;-8,880615234375E-10;-0,598663330078125;4;308;1,36514715850353E-07;-1,3535849750042E-07;100 nA
-0,550537109375;161,543995592141;2,288818359375E-10;-0,548828125;4;309;1,36514715850353E-07;-1,3535849750042E-07;100 nA
-0,50048828125;162,044483590877;1,513671875E-09;-0,498931884765625;4;310;1,36514715850353E-07;-1,3535849750042E-07;100 nA
-0,450439453125;162,544971589613;2,9144287109375E-09;-0,44903564453125;4;311;1,36514715850353E-07;-1,3535849750042E-07;100 nA
-0,400390625;163,04545958835;4,2999267578125E-09;-0,399139404296875;4;312;1,36514715850353E-07;-1,3535849750042E-07;100 nA
-0,350341796875;163,545947587086;5,5633544921875E-09;-0,349212646484375;4;313;1,36514715850353E-07;-1,3535849750042E-07;100 nA
-0,30029296875;164,046435585823;6,585693359375E-09;-0,29931640625;4;314;1,36514715850353E-07;-1,3535849750042E-07;100 nA
-0,250244140625;164,546923584559;7,330322265625E-09;-0,2493896484375;4;315;1,36514715850353E-07;-1,3535849750042E-07;100 nA
-0,2001953125;165,047411583295;7,867431640625E-09;-0,19952392578125;4;316;1,36514715850353E-07;-1,3535849750042E-07;100 nA
-0,150146484375;165,547899582032;8,2672119140625E-09;-0,149658203125;4;317;1,36514715850353E-07;-1,3535849750042E-07;100 nA
-0,10009765625;166,048387580768;8,4442138671875E-09;-0,099761962890625;4;318;1,36514715850353E-07;-1,3535849750042E-07;100 nA
-0,050048828125;166,548875579505;8,50830078125E-09;-0,049896240234375;4;319;1,36514715850353E-07;-1,3535849750042E-07;100 nA
0;167,049363578241;8,6395263671875E-09;0,000119018554687503;4;320;1,36514715850353E-07;-1,3535849750042E-07;100 nA
0,050048828125;167,549851576977;8,868408203125E-09;0,050018310546875;5;321;1,36807970702648E-07;-1,34944580495358E-07;100 nA
0,10009765625;168,050339575714;9,1888427734375E-09;0,10009765625;5;322;1,36807970702648E-07;-1,34944580495358E-07;100 nA
0,150146484375;168,55082757445;9,6038818359375E-09;0,150115966796875;5;323;1,36807970702648E-07;-1,34944580495358E-07;100 nA
0,2001953125;169,051315573186;9,66796875E-09;0,200042724609375;5;324;1,36807970702648E-07;-1,34944580495358E-07;100 nA
0,250244140625;169,551803571923;8,2916259765625E-09;0,250152587890625;5;325;1,36807970702648E-07;-1,34944580495358E-07;100 nA
0,30029296875;170,052291570659;7,1807861328125E-09;0,300048828125;5;326;1,36807970702648E-07;-1,34944580495358E-07;100 nA
0,350341796875;170,552779569396;6,781005859375E-09;0,35009765625;5;327;1,36807970702648E-07;-1,34944580495358E-07;100 nA
0,400390625;171,053267568132;6,573486328125E-09;0,400146484375;5;328;1,36807970702648E-07;-1,34944580495358E-07;100 nA
0,450439453125;171,553755566868;6,4971923828125E-09;0,450103759765625;5;329;1,36807970702648E-07;-1,34944580495358E-07;100 nA
0,50048828125;172,054243565605;6,512451171875E-09;0,500152587890625;5;330;1,36807970702648E-07;-1,34944580495358E-07;100 nA
0,550537109375;172,554731564341;6,658935546875E-09;0,550140380859375;5;331;1,36807970702648E-07;-1,34944580495358E-07;100 nA
0,6005859375;173,055219563078;6,884765625E-09;0,60009765625;5;332;1,36807970702648E-07;-1,34944580495358E-07;100 nA
0,650634765625;173,555707561814;7,1380615234375E-09;0,6500244140625;5;333;1,36807970702648E-07;-1,34944580495358E-07;100 nA
0,70068359375;174,05619556055;7,3883056640625E-09;0,70001220703125;5;334;1,36807970702648E-07;-1,34944580495358E-07;100 nA
0,750732421875;174,556683559287;7,6019287109375E-09;0,7498779296875;5;335;1,36807970702648E-07;-1,34944580495358E-07;100 nA
0,80078125;175,057171558023;7,861328125E-09;0,8001708984375;5;336;1,36807970702648E-07;-1,34944580495358E-07;100 nA
0,850830078125;175,55765955676;8,28857421875E-09;0,8502197265625;5;337;1,36807970702648E-07;-1,34944580495358E-07;100 nA
0,90087890625;176,058147555496;8,9508056640625E-09;0,899658203125;5;338;1,36807970702648E-07;-1,34944580495358E-07;100 nA
0,950927734375;176,558635554232;9,94873046875E-09;0,95001220703125;5;339;1,36807970702648E-07;-1,34944580495358E-07;100 nA
1,0009765625;177,059123552969;1,134033203125E-08;0,999755859375;5;340;1,36807970702648E-07;-1,34944580495358E-07;100 nA
0,950927734375;177,559611551705;8,14208984375E-09;0,95001220703125;5;341;1,36807970702648E-07;-1,34944580495358E-07;100 nA
0,90087890625;178,060099550441;6,3873291015625E-09;0,89996337890625;5;342;1,36807970702648E-07;-1,34944580495358E-07;100 nA
0,850830078125;178,560587549178;5,3070068359375E-09;0,849609375;5;343;1,36807970702648E-07;-1,34944580495358E-07;100 nA
0,80078125;179,061075547914;4,5318603515625E-09;0,799560546875;5;344;1,36807970702648E-07;-1,34944580495358E-07;100 nA
0,750732421875;179,561563546651;3,8818359375E-09;0,749847412109375;5;345;1,36807970702648E-07;-1,34944580495358E-07;100 nA
0,70068359375;180,062051545387;3,2989501953125E-09;0,699920654296875;5;346;1,36807970702648E-07;-1,34944580495358E-07;100 nA
0,650634765625;180,562539544123;2,81982421875E-09;0,650054931640625;5;347;1,36807970702648E-07;-1,34944580495358E-07;100 nA
0,6005859375;181,06302754286;2,4139404296875E-09;0,600128173828125;5;348;1,36807970702648E-07;-1,34944580495358E-07;100 nA
0,550537109375;181,563515541596;1,98974609375E-09;0,550079345703125;5;349;1,36807970702648E-07;-1,34944580495358E-07;100 nA
0,50048828125;182,064003540333;1,5716552734375E-09;0,500152587890625;5;350;1,36807970702648E-07;-1,34944580495358E-07;100 nA
0,450439453125;182,564491539069;1,13525390625E-09;0,45013427734375;5;351;1,36807970702648E-07;-1,34944580495358E-07;100 nA
0,400390625;183,064979537805;6,34765625E-10;0,400115966796875;5;352;1,36807970702648E-07;-1,34944580495358E-07;100 nA
0,350341796875;183,565467536542;7,62939453125E-11;0,350128173828125;5;353;1,36807970702648E-07;-1,34944580495358E-07;100 nA
0,30029296875;184,065955535278;-6,7138671875E-10;0,300079345703125;5;354;1,36807970702648E-07;-1,34944580495358E-07;100 nA
0,250244140625;184,566443534015;-1,5655517578125E-09;0,2501220703125;5;355;1,36807970702648E-07;-1,34944580495358E-07;100 nA
0,2001953125;185,066931532751;-2,89306640625E-09;0,2000732421875;5;356;1,36807970702648E-07;-1,34944580495358E-07;100 nA
0,150146484375;185,567419531487;-5,0323486328125E-09;0,150115966796875;5;357;1,36807970702648E-07;-1,34944580495358E-07;100 nA
0,10009765625;186,067907530224;-7,3089599609375E-09;0,100128173828125;5;358;1,36807970702648E-07;-1,34944580495358E-07;100 nA
0,050048828125;186,56839552896;-7,879638671875E-09;0,050201416015625;5;359;1,36807970702648E-07;-1,34944580495358E-07;100 nA
0;187,068883527696;-8,0596923828125E-09;0,000164794921875003;5;360;1,36807970702648E-07;-1,34944580495358E-07;100 nA
-0,050048828125;187,569371526433;-8,233642578125E-09;-0,04974365234375;5;361;1,36807970702648E-07;-1,34944580495358E-07;100 nA
-0,10009765625;188,069859525169;-8,5784912109375E-09;-0,099639892578125;5;362;1,36807970702648E-07;-1,34944580495358E-07;100 nA
-0,150146484375;188,570347523906;-8,9874267578125E-09;-0,149566650390625;5;363;1,36807970702648E-07;-1,34944580495358E-07;100 nA
-0,2001953125;189,070835522642;-9,4451904296875E-09;-0,199462890625;5;364;1,36807970702648E-07;-1,34944580495358E-07;100 nA
-0,250244140625;189,571323521378;-1,002197265625E-08;-0,249298095703125;5;365;1,36807970702648E-07;-1,34944580495358E-07;100 nA
-0,30029296875;190,071811520115;-1,07391357421875E-08;-0,299224853515625;5;366;1,36807970702648E-07;-1,34944580495358E-07;100 nA
-0,350341796875;190,572299518851;-1,158447265625E-08;-0,349212646484375;5;367;1,36807970702648E-07;-1,34944580495358E-07;100 nA
-0,400390625;191,072787517588;-1,2261962890625E-08;-0,3990478515625;5;368;1,36807970702648E-07;-1,34944580495358E-07;100 nA
-0,450439453125;191,573275516324;-1,2628173828125E-08;-0,44891357421875;5;369;1,36807970702648E-07;-1,34944580495358E-07;100 nA
-0,50048828125;192,07376351506;-1,30157470703125E-08;-0,49884033203125;5;370;1,36807970702648E-07;-1,34944580495358E-07;100 nA
-0,550537109375;192,574251513797;-1,32476806640625E-08;-0,54876708984375;5;371;1,36807970702648E-07;-1,34944580495358E-07;100 nA
-0,6005859375;193,074739512533;-1,287841796875E-08;-0,5986328125;5;372;1,36807970702648E-07;-1,34944580495358E-07;100 nA
-0,650634765625;193,57522751127;-1,19110107421875E-08;-0,6485595703125;5;373;1,36807970702648E-07;-1,34944580495358E-07;100 nA
-0,70068359375;194,075715510006;-1,07696533203125E-08;-0,698577880859375;5;374;1,36807970702648E-07;-1,34944580495358E-07;100 nA
-0,750732421875;194,576203508742;-9,8114013671875E-09;-0,74853515625;5;375;1,36807970702648E-07;-1,34944580495358E-07;100 nA
-0,80078125;195,076691507479;-9,0423583984375E-09;-0,79864501953125;5;376;1,36807970702648E-07;-1,34944580495358E-07;100 nA
-0,850830078125;195,577179506215;-8,43505859375E-09;-0,8489990234375;5;377;1,36807970702648E-07;-1,34944580495358E-07;100 nA
-0,90087890625;196,077667504951;-7,9498291015625E-09;-0,8990478515625;5;378;1,36807970702648E-07;-1,34944580495358E-07;100 nA
-0,950927734375;196,578155503688;-7,82470703125E-09;-0,9490966796875;5;379;1,36807970702648E-07;-1,34944580495358E-07;100 nA
-1,0009765625;197,078643502424;-7,91015625E-09;-0,9991455078125;5;380;1,36807970702648E-07;-1,34944580495358E-07;100 nA
-0,950927734375;197,579131501161;-6,5948486328125E-09;-0,94879150390625;5;381;1,36807970702648E-07;-1,34944580495358E-07;100 nA
-0,90087890625;198,079619499897;-5,7098388671875E-09;-0,89874267578125;5;382;1,36807970702648E-07;-1,34944580495358E-07;100 nA
-0,850830078125;198,580107498633;-4,9591064453125E-09;-0,84869384765625;5;383;1,36807970702648E-07;-1,34944580495358E-07;100 nA
-0,80078125;199,08059549737;-4,2877197265625E-09;-0,7989501953125;5;384;1,36807970702648E-07;-1,34944580495358E-07;100 nA
-0,750732421875;199,581083496106;-3,6163330078125E-09;-0,748565673828125;5;385;1,36807970702648E-07;-1,34944580495358E-07;100 nA
-0,70068359375;200,081571494843;-2,862548828125E-09;-0,69866943359375;5;386;1,36807970702648E-07;-1,34944580495358E-07;100 nA
-0,650634765625;200,582059493579;-1,953125E-09;-0,648590087890625;5;387;1,36807970702648E-07;-1,34944580495358E-07;100 nA
-0,6005859375;201,082547492315;-9,552001953125E-10;-0,5986328125;5;388;1,36807970702648E-07;-1,34944580495358E-07;100 nA
-0,550537109375;201,583035491052;1,922607421875E-10;-0,548828125;5;389;1,36807970702648E-07;-1,34944580495358E-07;100 nA
-0,50048828125;202,083523489788;1,4617919921875E-09;-0,498931884765625;5;390;1,36807970702648E-07;-1,34944580495358E-07;100 nA
-0,450439453125;202,584011488525;2,86865234375E-09;-0,44903564453125;5;391;1,36807970702648E-07;-1,34944580495358E-07;100 nA
-0,400390625;203,084499487261;4,2572021484375E-09;-0,399078369140625;5;392;1,36807970702648E-07;-1,34944580495358E-07;100 nA
-0,350341796875;203,584987485997;5,5084228515625E-09;-0,349212646484375;5;393;1,36807970702648E-07;-1,34944580495358E-07;100 nA
-0,30029296875;204,085475484734;6,5582275390625E-09;-0,29931640625;5;394;1,36807970702648E-07;-1,34944580495358E-07;100 nA
-0,250244140625;204,58596348347;7,318115234375E-09;-0,249359130859375;5;395;1,36807970702648E-07;-1,34944580495358E-07;100 nA
-0,2001953125;205,086451482206;7,8582763671875E-09;-0,199554443359375;5;396;1,36807970702648E-07;-1,34944580495358E-07;100 nA
-0,150146484375;205,586939480943;8,2733154296875E-09;-0,149627685546875;5;397;1,36807970702648E-07;-1,34944580495358E-07;100 nA
-0,10009765625;206,087427479679;8,453369140625E-09;-0,099761962890625;5;398;1,36807970702648E-07;-1,34944580495358E-07;100 nA
-0,050048828125;206,587915478416;8,5296630859375E-09;-0,049835205078125;5;399;1,36807970702648E-07;-1,34944580495358E-07;100 nA
0;207,088403477152;8,6517333984375E-09;0,000112915039062494;5;400;1,36807970702648E-07;-1,34944580495358E-07;100 nA
0,050048828125;207,588891475888;8,892822265625E-09;0,05010986328125;6;401;1,37365460395813E-07;-1,34686455130577E-07;100 nA
0,10009765625;208,089379474625;9,21630859375E-09;0,10009765625;6;402;1,37365460395813E-07;-1,34686455130577E-07;100 nA
0,150146484375;208,589867473361;9,6282958984375E-09;0,150115966796875;6;403;1,37365460395813E-07;-1,34686455130577E-07;100 nA
0,2001953125;209,090355472098;9,6893310546875E-09;0,2000732421875;6;404;1,37365460395813E-07;-1,34686455130577E-07;100 nA
0,250244140625;209,590843470834;8,2916259765625E-09;0,250091552734375;6;405;1,37365460395813E-07;-1,34686455130577E-07;100 nA
0,30029296875;210,09133146957;7,2113037109375E-09;0,300048828125;6;406;1,37365460395813E-07;-1,34686455130577E-07;100 nA
0,350341796875;210,591819468307;6,8145751953125E-09;0,35015869140625;6;407;1,37365460395813E-07;-1,34686455130577E-07;100 nA
0,400390625;211,092307467043;6,6131591796875E-09;0,40008544921875;6;408;1,37365460395813E-07;-1,34686455130577E-07;100 nA
0,450439453125;211,59279546578;6,549072265625E-09;0,450103759765625;6;409;1,37365460395813E-07;-1,34686455130577E-07;100 nA
0,50048828125;212,093283464516;6,5673828125E-09;0,5001220703125;6;410;1,37365460395813E-07;-1,34686455130577E-07;100 nA
0,550537109375;212,593771463252;6,6986083984375E-09;0,55010986328125;6;411;1,37365460395813E-07;-1,34686455130577E-07;100 nA
0,6005859375;213,094259461989;6,9244384765625E-09;0,600128173828125;6;412;1,37365460395813E-07;-1,34686455130577E-07;100 nA
0,650634765625;213,594747460725;7,171630859375E-09;0,6500244140625;6;413;1,37365460395813E-07;-1,34686455130577E-07;100 nA
0,70068359375;214,095235459461;7,427978515625E-09;0,699951171875;6;414;1,37365460395813E-07;-1,34686455130577E-07;100 nA
0,750732421875;214,595723458198;7,647705078125E-09;0,749908447265625;6;415;1,37365460395813E-07;-1,34686455130577E-07;100 nA
0,80078125;215,096211456934;7,9071044921875E-09;0,799560546875;6;416;1,37365460395813E-07;-1,34686455130577E-07;100 nA
0,850830078125;215,596699455671;8,2916259765625E-09;0,8502197265625;6;417;1,37365460395813E-07;-1,34686455130577E-07;100 nA
0,90087890625;216,097187454407;8,9324951171875E-09;0,9002685546875;6;418;1,37365460395813E-07;-1,34686455130577E-07;100 nA
0,950927734375;216,597675453143;9,942626953125E-09;0,94970703125;6;419;1,37365460395813E-07;-1,34686455130577E-07;100 nA
1,0009765625;217,09816345188;1,136474609375E-08;0,999755859375;6;420;1,37365460395813E-07;-1,34686455130577E-07;100 nA
0,950927734375;217,598651450616;8,1512451171875E-09;0,94940185546875;6;421;1,37365460395813E-07;-1,34686455130577E-07;100 nA
0,90087890625;218,099139449353;6,4056396484375E-09;0,89996337890625;6;422;1,37365460395813E-07;-1,34686455130577E-07;100 nA
0,850830078125;218,599627448089;5,3314208984375E-09;0,8502197265625;6;423;1,37365460395813E-07;-1,34686455130577E-07;100 nA
0,80078125;219,100115446825;4,5501708984375E-09;0,79986572265625;6;424;1,37365460395813E-07;-1,34686455130577E-07;100 nA
0,750732421875;219,600603445562;3,9031982421875E-09;0,7498779296875;6;425;1,37365460395813E-07;-1,34686455130577E-07;100 nA
0,70068359375;220,101091444298;3,33251953125E-09;0,699920654296875;6;426;1,37365460395813E-07;-1,34686455130577E-07;100 nA
0,650634765625;220,601579443035;2,86865234375E-09;0,6500244140625;6;427;1,37365460395813E-07;-1,34686455130577E-07;100 nA
0,6005859375;221,102067441771;2,4139404296875E-09;0,60009765625;6;428;1,37365460395813E-07;-1,34686455130577E-07;100 nA
0,550537109375;221,602555440507;2,008056640625E-09;0,550140380859375;6;429;1,37365460395813E-07;-1,34686455130577E-07;100 nA
0,50048828125;222,103043439244;1,5716552734375E-09;0,500152587890625;6;430;1,37365460395813E-07;-1,34686455130577E-07;100 nA
0,450439453125;222,60353143798;1,1444091796875E-09;0,4500732421875;6;431;1,37365460395813E-07;-1,34686455130577E-07;100 nA
0,400390625;223,104019436717;6,500244140625E-10;0,400115966796875;6;432;1,37365460395813E-07;-1,34686455130577E-07;100 nA
0,350341796875;223,604507435453;4,57763671875E-11;0,350128173828125;6;433;1,37365460395813E-07;-1,34686455130577E-07;100 nA
0,30029296875;224,104995434189;-6,927490234375E-10;0,300140380859375;6;434;1,37365460395813E-07;-1,34686455130577E-07;100 nA
0,250244140625;224,605483432926;-1,568603515625E-09;0,250091552734375;6;435;1,37365460395813E-07;-1,34686455130577E-07;100 nA
0,2001953125;225,105971431662;-2,874755859375E-09;0,200042724609375;6;436;1,37365460395813E-07;-1,34686455130577E-07;100 nA
0,150146484375;225,606459430398;-4,998779296875E-09;0,150115966796875;6;437;1,37365460395813E-07;-1,34686455130577E-07;100 nA
0,10009765625;226,106947429135;-7,3028564453125E-09;0,100128173828125;6;438;1,37365460395813E-07;-1,34686455130577E-07;100 nA
0,050048828125;226,607435427871;-7,9010009765625E-09;0,05010986328125;6;439;1,37365460395813E-07;-1,34686455130577E-07;100 nA
0;227,107923426608;-8,074951171875E-09;0,000155639648437497;6;440;1,37365460395813E-07;-1,34686455130577E-07;100 nA
-0,050048828125;227,608411425344;-8,251953125E-09;-0,049774169921875;6;441;1,37365460395813E-07;-1,34686455130577E-07;100 nA
-0,10009765625;228,10889942408;-8,5968017578125E-09;-0,099639892578125;6;442;1,37365460395813E-07;-1,34686455130577E-07;100 nA
-0,150146484375;228,609387422817;-9,0057373046875E-09;-0,149566650390625;6;443;1,37365460395813E-07;-1,34686455130577E-07;100 nA
-0,2001953125;229,109875421553;-9,4818115234375E-09;-0,199462890625;6;444;1,37365460395813E-07;-1,34686455130577E-07;100 nA
-0,250244140625;229,61036342029;-1,0052490234375E-08;-0,249359130859375;6;445;1,37365460395813E-07;-1,34686455130577E-07;100 nA
-0,30029296875;230,110851419026;-1,07635498046875E-08;-0,29925537109375;6;446;1,37365460395813E-07;-1,34686455130577E-07;100 nA
-0,350341796875;230,611339417762;-1,16241455078125E-08;-0,349151611328125;6;447;1,37365460395813E-07;-1,34686455130577E-07;100 nA
-0,400390625;231,111827416499;-1,22772216796875E-08;-0,3990478515625;6;448;1,37365460395813E-07;-1,34686455130577E-07;100 nA
-0,450439453125;231,612315415235;-1,2646484375E-08;-0,448944091796875;6;449;1,37365460395813E-07;-1,34686455130577E-07;100 nA
-0,50048828125;232,112803413972;-1,30279541015625E-08;-0,498809814453125;6;450;1,37365460395813E-07;-1,34686455130577E-07;100 nA
-0,550537109375;232,613291412708;-1,32354736328125E-08;-0,54876708984375;6;451;1,37365460395813E-07;-1,34686455130577E-07;100 nA
-0,6005859375;233,113779411444;-1,2823486328125E-08;-0,59869384765625;6;452;1,37365460395813E-07;-1,34686455130577E-07;100 nA
-0,650634765625;233,614267410181;-1,1834716796875E-08;-0,64862060546875;6;453;1,37365460395813E-07;-1,34686455130577E-07;100 nA
-0,70068359375;234,114755408917;-1,07025146484375E-08;-0,698486328125;6;454;1,37365460395813E-07;-1,34686455130577E-07;100 nA
-0,750732421875;234,615243407653;-9,75341796875E-09;-0,74859619140625;6;455;1,37365460395813E-07;-1,34686455130577E-07;100 nA
-0,80078125;235,11573140639;-8,9874267578125E-09;-0,79864501953125;6;456;1,37365460395813E-07;-1,34686455130577E-07;100 nA
-0,850830078125;235,616219405126;-8,3984375E-09;-0,84869384765625;6;457;1,37365460395813E-07;-1,34686455130577E-07;100 nA
-0,90087890625;236,116707403863;-7,9193115234375E-09;-0,89813232421875;6;458;1,37365460395813E-07;-1,34686455130577E-07;100 nA
-0,950927734375;236,617195402599;-7,794189453125E-09;-0,9490966796875;6;459;1,37365460395813E-07;-1,34686455130577E-07;100 nA
-1,0009765625;237,117683401335;-7,8826904296875E-09;-0,9991455078125;6;460;1,37365460395813E-07;-1,34686455130577E-07;100 nA
-0,950927734375;237,618171400072;-6,55517578125E-09;-0,948486328125;6;461;1,37365460395813E-07;-1,34686455130577E-07;100 nA
-0,90087890625;238,118659398808;-5,6671142578125E-09;-0,89813232421875;6;462;1,37365460395813E-07;-1,34686455130577E-07;100 nA
-0,850830078125;238,619147397545;-4,931640625E-09;-0,84930419921875;6;463;1,37365460395813E-07;-1,34686455130577E-07;100 nA
-0,80078125;239,119635396281;-4,241943359375E-09;-0,79864501953125;6;464;1,37365460395813E-07;-1,34686455130577E-07;100 nA
-0,750732421875;239,620123395017;-3,5797119140625E-09;-0,748626708984375;6;465;1,37365460395813E-07;-1,34686455130577E-07;100 nA
-0,70068359375;240,120611393754;-2,813720703125E-09;-0,6986083984375;6;466;1,37365460395813E-07;-1,34686455130577E-07;100 nA
-0,650634765625;240,62109939249;-1,9256591796875E-09;-0,64862060546875;6;467;1,37365460395813E-07;-1,34686455130577E-07;100 nA
-0,6005859375;241,121587391227;-9,21630859375E-10;-0,598663330078125;6;468;1,37365460395813E-07;-1,34686455130577E-07;100 nA
-0,550537109375;241,622075389963;2,13623046875E-10;-0,54876708984375;6;469;1,37365460395813E-07;-1,34686455130577E-07;100 nA
-0,50048828125;242,122563388699;1,47705078125E-09;-0,49896240234375;6;470;1,37365460395813E-07;-1,34686455130577E-07;100 nA
-0,450439453125;242,623051387436;2,8778076171875E-09;-0,449005126953125;6;471;1,37365460395813E-07;-1,34686455130577E-07;100 nA
-0,400390625;243,123539386172;4,278564453125E-09;-0,399078369140625;6;472;1,37365460395813E-07;-1,34686455130577E-07;100 nA
-0,350341796875;243,624027384908;5,548095703125E-09;-0,349212646484375;6;473;1,37365460395813E-07;-1,34686455130577E-07;100 nA
-0,30029296875;244,124515383645;6,5948486328125E-09;-0,29931640625;6;474;1,37365460395813E-07;-1,34686455130577E-07;100 nA
-0,250244140625;244,625003382381;7,3486328125E-09;-0,2493896484375;6;475;1,37365460395813E-07;-1,34686455130577E-07;100 nA
-0,2001953125;245,125491381118;7,9132080078125E-09;-0,199462890625;6;476;1,37365460395813E-07;-1,34686455130577E-07;100 nA
-0,150146484375;245,625979379854;8,3160400390625E-09;-0,149566650390625;6;477;1,37365460395813E-07;-1,34686455130577E-07;100 nA
-0,10009765625;246,12646737859;8,4930419921875E-09;-0,09967041015625;6;478;1,37365460395813E-07;-1,34686455130577E-07;100 nA
-0,050048828125;246,626955377327;8,563232421875E-09;-0,049835205078125;6;479;1,37365460395813E-07;-1,34686455130577E-07;100 nA
0;247,127443376063;8,67919921875E-09;0,000115966796875006;6;480;1,37365460395813E-07;-1,34686455130577E-07;100 nA
0,050048828125;247,6279313748;8,9111328125E-09;0,050018310546875;7;481;1,36914886534214E-07;-1,34535245597363E-07;100 nA
0,10009765625;248,128419373536;9,2254638671875E-09;0,100128173828125;7;482;1,36914886534214E-07;-1,34535245597363E-07;100 nA
0,150146484375;248,628907372272;9,63134765625E-09;0,1500244140625;7;483;1,36914886534214E-07;-1,34535245597363E-07;100 nA
0,2001953125;249,129395371009;9,6923828125E-09;0,2000732421875;7;484;1,36914886534214E-07;-1,34535245597363E-07;100 nA
0,250244140625;249,629883369745;8,28857421875E-09;0,250091552734375;7;485;1,36914886534214E-07;-1,34535245597363E-07;100 nA
0,30029296875;250,130371368482;7,2021484375E-09;0,300079345703125;7;486;1,36914886534214E-07;-1,34535245597363E-07;100 nA
0,350341796875;250,630859367218;6,8115234375E-09;0,35009765625;7;487;1,36914886534214E-07;-1,34535245597363E-07;100 nA
0,400390625;251,131347365954;6,610107421875E-09;0,400146484375;7;488;1,36914886534214E-07;-1,34535245597363E-07;100 nA
0,450439453125;251,631835364691;6,5216064453125E-09;0,45013427734375;7;489;1,36914886534214E-07;-1,34535245597363E-07;100 nA
0,50048828125;252,132323363427;6,54296875E-09;0,5001220703125;7;490;1,36914886534214E-07;-1,34535245597363E-07;100 nA
0,550537109375;252,632811362163;6,6619873046875E-09;0,550140380859375;7;491;1,36914886534214E-07;-1,34535245597363E-07;100 nA
0,6005859375;253,1332993609;6,87255859375E-09;0,60009765625;7;492;1,36914886534214E-07;-1,34535245597363E-07;100 nA
0,650634765625;253,633787359636;7,12890625E-09;0,65008544921875;7;493;1,36914886534214E-07;-1,34535245597363E-07;100 nA
0,70068359375;254,134275358373;7,373046875E-09;0,699951171875;7;494;1,36914886534214E-07;-1,34535245597363E-07;100 nA
0,750732421875;254,634763357109;7,5714111328125E-09;0,74981689453125;7;495;1,36914886534214E-07;-1,34535245597363E-07;100 nA
0,80078125;255,135251355845;7,830810546875E-09;0,79986572265625;7;496;1,36914886534214E-07;-1,34535245597363E-07;100 nA
0,850830078125;255,635739354582;8,2000732421875E-09;0,85052490234375;7;497;1,36914886534214E-07;-1,34535245597363E-07;100 nA
0,90087890625;256,136227353318;8,85009765625E-09;0,89996337890625;7;498;1,36914886534214E-07;-1,34535245597363E-07;100 nA
0,950927734375;256,636715352055;9,869384765625E-09;0,9503173828125;7;499;1,36914886534214E-07;-1,34535245597363E-07;100 nA
1,0009765625;257,137203350791;1,1285400390625E-08;0,999755859375;7;500;1,36914886534214E-07;-1,34535245597363E-07;100 nA
0,950927734375;257,637691349527;8,11767578125E-09;0,94970703125;7;501;1,36914886534214E-07;-1,34535245597363E-07;100 nA
0,90087890625;258,138179348264;6,365966796875E-09;0,89996337890625;7;502;1,36914886534214E-07;-1,34535245597363E-07;100 nA
0,850830078125;258,638667347;5,3009033203125E-09;0,84930419921875;7;503;1,36914886534214E-07;-1,34535245597363E-07;100 nA
0,80078125;259,139155345737;4,5196533203125E-09;0,8001708984375;7;504;1,36914886534214E-07;-1,34535245597363E-07;100 nA
0,750732421875;259,639643344473;3,8909912109375E-09;0,7498779296875;7;505;1,36914886534214E-07;-1,34535245597363E-07;100 nA
0,70068359375;260,140131343209;3,3538818359375E-09;0,699951171875;7;506;1,36914886534214E-07;-1,34535245597363E-07;100 nA
0,650634765625;260,640619341946;2,8961181640625E-09;0,650054931640625;7;507;1,36914886534214E-07;-1,34535245597363E-07;100 nA
0,6005859375;261,141107340682;2,471923828125E-09;0,60015869140625;7;508;1,36914886534214E-07;-1,34535245597363E-07;100 nA
0,550537109375;261,641595339418;2,06298828125E-09;0,55010986328125;7;509;1,36914886534214E-07;-1,34535245597363E-07;100 nA
0,50048828125;262,142083338155;1,641845703125E-09;0,500152587890625;7;510;1,36914886534214E-07;-1,34535245597363E-07;100 nA
0,450439453125;262,642571336891;1,2054443359375E-09;0,45013427734375;7;511;1,36914886534214E-07;-1,34535245597363E-07;100 nA
0,400390625;263,143059335628;7,171630859375E-10;0,400115966796875;7;512;1,36914886534214E-07;-1,34535245597363E-07;100 nA
0,350341796875;263,643547334364;1,068115234375E-10;0,350128173828125;7;513;1,36914886534214E-07;-1,34535245597363E-07;100 nA
0,30029296875;264,1440353331;-6,195068359375E-10;0,300140380859375;7;514;1,36914886534214E-07;-1,34535245597363E-07;100 nA
0,250244140625;264,644523331837;-1,50146484375E-09;0,250152587890625;7;515;1,36914886534214E-07;-1,34535245597363E-07;100 nA
0,2001953125;265,145011330573;-2,8228759765625E-09;0,200103759765625;7;516;1,36914886534214E-07;-1,34535245597363E-07;100 nA
0,150146484375;265,64549932931;-4,937744140625E-09;0,150115966796875;7;517;1,36914886534214E-07;-1,34535245597363E-07;100 nA
0,10009765625;266,145987328046;-7,244873046875E-09;0,100128173828125;7;518;1,36914886534214E-07;-1,34535245597363E-07;100 nA
0,050048828125;266,646475326782;-7,82470703125E-09;0,050140380859375;7;519;1,36914886534214E-07;-1,34535245597363E-07;100 nA
0;267,146963325519;-8,0108642578125E-09;0,000158691406249994;7;520;1,36914886534214E-07;-1,34535245597363E-07;100 nA
-0,050048828125;267,647451324255;-8,203125E-09;-0,049700927734375;7;521;1,36914886534214E-07;-1,34535245597363E-07;100 nA
-0,10009765625;268,147939322992;-8,5357666015625E-09;-0,099609375;7;522;1,36914886534214E-07;-1,34535245597363E-07;100 nA
-0,150146484375;268,648427321728;-8,953857421875E-09;-0,149566650390625;7;523;1,36914886534214E-07;-1,34535245597363E-07;100 nA
-0,2001953125;269,148915320464;-9,429931640625E-09;-0,199432373046875;7;524;1,36914886534214E-07;-1,34535245597363E-07;100 nA
-0,250244140625;269,649403319201;-1,00067138671875E-08;-0,2493896484375;7;525;1,36914886534214E-07;-1,34535245597363E-07;100 nA
-0,30029296875;270,149891317937;-1,07147216796875E-08;-0,29925537109375;7;526;1,36914886534214E-07;-1,34535245597363E-07;100 nA
-0,350341796875;270,650379316673;-1,158447265625E-08;-0,349151611328125;7;527;1,36914886534214E-07;-1,34535245597363E-07;100 nA
-0,400390625;271,15086731541;-1,2261962890625E-08;-0,399078369140625;7;528;1,36914886534214E-07;-1,34535245597363E-07;100 nA
-0,450439453125;271,651355314146;-1,2628173828125E-08;-0,448974609375;7;529;1,36914886534214E-07;-1,34535245597363E-07;100 nA
-0,50048828125;272,151843312883;-1,30096435546875E-08;-0,498870849609375;7;530;1,36914886534214E-07;-1,34535245597363E-07;100 nA
-0,550537109375;272,652331311619;-1,319580078125E-08;-0,548797607421875;7;531;1,36914886534214E-07;-1,34535245597363E-07;100 nA
-0,6005859375;273,152819310355;-1,27838134765625E-08;-0,5986328125;7;532;1,36914886534214E-07;-1,34535245597363E-07;100 nA
-0,650634765625;273,653307309092;-1,17919921875E-08;-0,64862060546875;7;533;1,36914886534214E-07;-1,34535245597363E-07;100 nA
-0,70068359375;274,153795307828;-1,06689453125E-08;-0,698516845703125;7;534;1,36914886534214E-07;-1,34535245597363E-07;100 nA
-0,750732421875;274,654283306565;-9,7320556640625E-09;-0,74859619140625;7;535;1,36914886534214E-07;-1,34535245597363E-07;100 nA
-0,80078125;275,154771305301;-8,9935302734375E-09;-0,79864501953125;7;536;1,36914886534214E-07;-1,34535245597363E-07;100 nA
-0,850830078125;275,655259304037;-8,41064453125E-09;-0,848388671875;7;537;1,36914886534214E-07;-1,34535245597363E-07;100 nA
-0,90087890625;276,155747302774;-7,9345703125E-09;-0,8984375;7;538;1,36914886534214E-07;-1,34535245597363E-07;100 nA
-0,950927734375;276,65623530151;-7,830810546875E-09;-0,94879150390625;7;539;1,36914886534214E-07;-1,34535245597363E-07;100 nA
-1,0009765625;277,156723300247;-7,9010009765625E-09;-0,9991455078125;7;540;1,36914886534214E-07;-1,34535245597363E-07;100 nA
-0,950927734375;277,657211298983;-6,634521484375E-09;-0,9490966796875;7;541;1,36914886534214E-07;-1,34535245597363E-07;100 nA
-0,90087890625;278,157699297719;-5,74951171875E-09;-0,8990478515625;7;542;1,36914886534214E-07;-1,34535245597363E-07;100 nA
-0,850830078125;278,658187296456;-5,0079345703125E-09;-0,84869384765625;7;543;1,36914886534214E-07;-1,34535245597363E-07;100 nA
-0,80078125;279,158675295192;-4,315185546875E-09;-0,79864501953125;7;544;1,36914886534214E-07;-1,34535245597363E-07;100 nA
-0,750732421875;279,659163293928;-3,6529541015625E-09;-0,748626708984375;7;545;1,36914886534214E-07;-1,34535245597363E-07;100 nA
-0,70068359375;280,159651292665;-2,9083251953125E-09;-0,698638916015625;7;546;1,36914886534214E-07;-1,34535245597363E-07;100 nA
-0,650634765625;280,660139291401;-2,008056640625E-09;-0,6485595703125;7;547;1,36914886534214E-07;-1,34535245597363E-07;100 nA
-0,6005859375;281,160627290138;-9,979248046875E-10;-0,598724365234375;7;548;1,36914886534214E-07;-1,34535245597363E-07;100 nA
-0,550537109375;281,661115288874;1,220703125E-10;-0,548828125;7;549;1,36914886534214E-07;-1,34535245597363E-07;100 nA
-0,50048828125;282,16160328761;1,4190673828125E-09;-0,498931884765625;7;550;1,36914886534214E-07;-1,34535245597363E-07;100 nA
-0,450439453125;282,662091286347;2,83203125E-09;-0,449005126953125;7;551;1,36914886534214E-07;-1,34535245597363E-07;100 nA
-0,400390625;283,162579285083;4,2144775390625E-09;-0,399139404296875;7;552;1,36914886534214E-07;-1,34535245597363E-07;100 nA
-0,350341796875;283,66306728382;5,5023193359375E-09;-0,349273681640625;7;553;1,36914886534214E-07;-1,34535245597363E-07;100 nA
-0,30029296875;284,163555282556;6,5460205078125E-09;-0,299285888671875;7;554;1,36914886534214E-07;-1,34535245597363E-07;100 nA
-0,250244140625;284,664043281292;7,318115234375E-09;-0,2493896484375;7;555;1,36914886534214E-07;-1,34535245597363E-07;100 nA
-0,2001953125;285,164531280029;7,879638671875E-09;-0,199493408203125;7;556;1,36914886534214E-07;-1,34535245597363E-07;100 nA
-0,150146484375;285,665019278765;8,28857421875E-09;-0,149658203125;7;557;1,36914886534214E-07;-1,34535245597363E-07;100 nA
-0,10009765625;286,165507277502;8,4747314453125E-09;-0,0997314453125;7;558;1,36914886534214E-07;-1,34535245597363E-07;100 nA
-0,050048828125;286,665995276238;8,551025390625E-09;-0,04986572265625;7;559;1,36914886534214E-07;-1,34535245597363E-07;100 nA
0;287,166483274974;8,6822509765625E-09;0,000103759765625003;7;560;1,36914886534214E-07;-1,34535245597363E-07;100 nA
0,050048828125;287,666971273711;8,917236328125E-09;0,050079345703125;8;561;1,37425027787685E-07;-1,34747549891472E-07;100 nA
0,10009765625;288,167459272447;9,24072265625E-09;0,100067138671875;8;562;1,37425027787685E-07;-1,34747549891472E-07;100 nA
0,150146484375;288,667947271183;9,6527099609375E-09;0,150054931640625;8;563;1,37425027787685E-07;-1,34747549891472E-07;100 nA
0,2001953125;289,16843526992;9,72900390625E-09;0,2000732421875;8;564;1,37425027787685E-07;-1,34747549891472E-07;100 nA
0,250244140625;289,668923268656;8,331298828125E-09;0,250030517578125;8;565;1,37425027787685E-07;-1,34747549891472E-07;100 nA
0,30029296875;290,169411267393;7,244873046875E-09;0,300079345703125;8;566;1,37425027787685E-07;-1,34747549891472E-07;100 nA
0,350341796875;290,669899266129;6,8511962890625E-09;0,350128173828125;8;567;1,37425027787685E-07;-1,34747549891472E-07;100 nA
0,400390625;291,170387264865;6,67724609375E-09;0,400115966796875;8;568;1,37425027787685E-07;-1,34747549891472E-07;100 nA
0,450439453125;291,670875263602;6,597900390625E-09;0,45013427734375;8;569;1,37425027787685E-07;-1,34747549891472E-07;100 nA
0,50048828125;292,171363262338;6,60400390625E-09;0,5001220703125;8;570;1,37425027787685E-07;-1,34747549891472E-07;100 nA
0,550537109375;292,671851261075;6,7169189453125E-09;0,550018310546875;8;571;1,37425027787685E-07;-1,34747549891472E-07;100 nA
0,6005859375;293,172339259811;6,9305419921875E-09;0,600128173828125;8;572;1,37425027787685E-07;-1,34747549891472E-07;100 nA
0,650634765625;293,672827258547;7,1990966796875E-09;0,650054931640625;8;573;1,37425027787685E-07;-1,34747549891472E-07;100 nA
0,70068359375;294,173315257284;7,440185546875E-09;0,699951171875;8;574;1,37425027787685E-07;-1,34747549891472E-07;100 nA
0,750732421875;294,67380325602;7,659912109375E-09;0,749847412109375;8;575;1,37425027787685E-07;-1,34747549891472E-07;100 nA
0,80078125;295,174291254757;7,8765869140625E-09;0,80047607421875;8;576;1,37425027787685E-07;-1,34747549891472E-07;100 nA
0,850830078125;295,674779253493;8,233642578125E-09;0,8502197265625;8;577;1,37425027787685E-07;-1,34747549891472E-07;100 nA
0,90087890625;296,175267252229;8,8531494140625E-09;0,899658203125;8;578;1,37425027787685E-07;-1,34747549891472E-07;100 nA
0,950927734375;296,675755250966;9,89990234375E-09;0,94940185546875;8;579;1,37425027787685E-07;-1,34747549891472E-07;100 nA
1,0009765625;297,176243249702;1,13006591796875E-08;0,999755859375;8;580;1,37425027787685E-07;-1,34747549891472E-07;100 nA
0,950927734375;297,676731248439;8,1268310546875E-09;0,95001220703125;8;581;1,37425027787685E-07;-1,34747549891472E-07;100 nA
0,90087890625;298,177219247175;6,4056396484375E-09;0,9002685546875;8;582;1,37425027787685E-07;-1,34747549891472E-07;100 nA
0,850830078125;298,677707245911;5,33447265625E-09;0,85052490234375;8;583;1,37425027787685E-07;-1,34747549891472E-07;100 nA
0,80078125;299,178195244648;4,5654296875E-09;0,799560546875;8;584;1,37425027787685E-07;-1,34747549891472E-07;100 nA
0,750732421875;299,678683243384;3,9154052734375E-09;0,749847412109375;8;585;1,37425027787685E-07;-1,34747549891472E-07;100 nA
0,70068359375;300,17917124212;3,3538818359375E-09;0,699981689453125;8;586;1,37425027787685E-07;-1,34747549891472E-07;100 nA
0,650634765625;300,679659240857;2,8778076171875E-09;0,650054931640625;8;587;1,37425027787685E-07;-1,34747549891472E-07;100 nA
0,6005859375;301,180147239593;2,459716796875E-09;0,600128173828125;8;588;1,37425027787685E-07;-1,34747549891472E-07;100 nA
0,550537109375;301,68063523833;2,0416259765625E-09;0,5501708984375;8;589;1,37425027787685E-07;-1,34747549891472E-07;100 nA
0,50048828125;302,181123237066;1,6143798828125E-09;0,500152587890625;8;590;1,37425027787685E-07;-1,34747549891472E-07;100 nA
0,450439453125;302,681611235802;1,177978515625E-09;0,45013427734375;8;591;1,37425027787685E-07;-1,34747549891472E-07;100 nA
0,400390625;303,182099234539;6,8359375E-10;0,400146484375;8;592;1,37425027787685E-07;-1,34747549891472E-07;100 nA
0,350341796875;303,682587233275;7,9345703125E-11;0,35015869140625;8;593;1,37425027787685E-07;-1,34747549891472E-07;100 nA
0,30029296875;304,183075232012;-6,561279296875E-10;0,300140380859375;8;594;1,37425027787685E-07;-1,34747549891472E-07;100 nA
0,250244140625;304,683563230748;-1,55029296875E-09;0,2501220703125;8;595;1,37425027787685E-07;-1,34747549891472E-07;100 nA
0,2001953125;305,184051229484;-2,86865234375E-09;0,2000732421875;8;596;1,37425027787685E-07;-1,34747549891472E-07;100 nA
0,150146484375;305,684539228221;-4,9774169921875E-09;0,150146484375;8;597;1,37425027787685E-07;-1,34747549891472E-07;100 nA
0,10009765625;306,185027226957;-7,293701171875E-09;0,10015869140625;8;598;1,37425027787685E-07;-1,34747549891472E-07;100 nA
0,050048828125;306,685515225694;-7,8948974609375E-09;0,0501708984375;8;599;1,37425027787685E-07;-1,34747549891472E-07;100 nA
0;307,18600322443;-8,0718994140625E-09;0,000164794921875003;8;600;1,37425027787685E-07;-1,34747549891472E-07;100 nA
-0,050048828125;307,686491223166;-8,251953125E-09;-0,04974365234375;8;601;1,37425027787685E-07;-1,34747549891472E-07;100 nA
-0,10009765625;308,186979221903;-8,587646484375E-09;-0,099639892578125;8;602;1,37425027787685E-07;-1,34747549891472E-07;100 nA
-0,150146484375;308,687467220639;-9,0179443359375E-09;-0,149566650390625;8;603;1,37425027787685E-07;-1,34747549891472E-07;100 nA
-0,2001953125;309,187955219375;-9,47265625E-09;-0,199432373046875;8;604;1,37425027787685E-07;-1,34747549891472E-07;100 nA
-0,250244140625;309,688443218112;-1,00616455078125E-08;-0,24932861328125;8;605;1,37425027787685E-07;-1,34747549891472E-07;100 nA
-0,30029296875;310,188931216848;-1,07818603515625E-08;-0,299224853515625;8;606;1,37425027787685E-07;-1,34747549891472E-07;100 nA
-0,350341796875;310,689419215585;-1,163330078125E-08;-0,349212646484375;8;607;1,37425027787685E-07;-1,34747549891472E-07;100 nA
-0,400390625;311,189907214321;-1,23046875E-08;-0,399078369140625;8;608;1,37425027787685E-07;-1,34747549891472E-07;100 nA
-0,450439453125;311,690395213057;-1,26708984375E-08;-0,448944091796875;8;609;1,37425027787685E-07;-1,34747549891472E-07;100 nA
-0,50048828125;312,190883211794;-1,30340576171875E-08;-0,4989013671875;8;610;1,37425027787685E-07;-1,34747549891472E-07;100 nA
-0,550537109375;312,69137121053;-1,3201904296875E-08;-0,548736572265625;8;611;1,37425027787685E-07;-1,34747549891472E-07;100 nA
-0,6005859375;313,191859209267;-1,27655029296875E-08;-0,59869384765625;8;612;1,37425027787685E-07;-1,34747549891472E-07;100 nA
-0,650634765625;313,692347208003;-1,1773681640625E-08;-0,648590087890625;8;613;1,37425027787685E-07;-1,34747549891472E-07;100 nA
-0,70068359375;314,192835206739;-1,06414794921875E-08;-0,6986083984375;8;614;1,37425027787685E-07;-1,34747549891472E-07;100 nA
-0,750732421875;314,693323205476;-9,7015380859375E-09;-0,748565673828125;8;615;1,37425027787685E-07;-1,34747549891472E-07;100 nA
-0,80078125;315,193811204212;-8,9630126953125E-09;-0,79864501953125;8;616;1,37425027787685E-07;-1,34747549891472E-07;100 nA
-0,850830078125;315,694299202949;-8,3892822265625E-09;-0,84869384765625;8;617;1,37425027787685E-07;-1,34747549891472E-07;100 nA
-0,90087890625;316,194787201685;-7,92236328125E-09;-0,89813232421875;8;618;1,37425027787685E-07;-1,34747549891472E-07;100 nA
-0,950927734375;316,695275200421;-7,7972412109375E-09;-0,948486328125;8;619;1,37425027787685E-07;-1,34747549891472E-07;100 nA
-1,0009765625;317,195763199158;-7,8857421875E-09;-0,99884033203125;8;620;1,37425027787685E-07;-1,34747549891472E-07;100 nA
-0,950927734375;317,696251197894;-6,585693359375E-09;-0,94879150390625;8;621;1,37425027787685E-07;-1,34747549891472E-07;100 nA
-0,90087890625;318,19673919663;-5,743408203125E-09;-0,89874267578125;8;622;1,37425027787685E-07;-1,34747549891472E-07;100 nA
-0,850830078125;318,697227195367;-4,9591064453125E-09;-0,8489990234375;8;623;1,37425027787685E-07;-1,34747549891472E-07;100 nA
-0,80078125;319,197715194103;-4,2816162109375E-09;-0,7989501953125;8;624;1,37425027787685E-07;-1,34747549891472E-07;100 nA
-0,750732421875;319,69820319284;-3,62548828125E-09;-0,74859619140625;8;625;1,37425027787685E-07;-1,34747549891472E-07;100 nA
-0,70068359375;320,198691191576;-2,8839111328125E-09;-0,698638916015625;8;626;1,37425027787685E-07;-1,34747549891472E-07;100 nA
-0,650634765625;320,699179190312;-1,9805908203125E-09;-0,64862060546875;8;627;1,37425027787685E-07;-1,34747549891472E-07;100 nA
-0,6005859375;321,199667189049;-1,0009765625E-09;-0,5986328125;8;628;1,37425027787685E-07;-1,34747549891472E-07;100 nA
-0,550537109375;321,700155187785;1,373291015625E-10;-0,548797607421875;8;629;1,37425027787685E-07;-1,34747549891472E-07;100 nA
-0,50048828125;322,200643186522;1,42822265625E-09;-0,49896240234375;8;630;1,37425027787685E-07;-1,34747549891472E-07;100 nA
-0,450439453125;322,701131185258;2,8350830078125E-09;-0,448974609375;8;631;1,37425027787685E-07;-1,34747549891472E-07;100 nA
-0,400390625;323,201619183994;4,2388916015625E-09;-0,399139404296875;8;632;1,37425027787685E-07;-1,34747549891472E-07;100 nA
-0,350341796875;323,702107182731;5,52978515625E-09;-0,3492431640625;8;633;1,37425027787685E-07;-1,34747549891472E-07;100 nA
-0,30029296875;324,202595181467;6,5643310546875E-09;-0,29931640625;8;634;1,37425027787685E-07;-1,34747549891472E-07;100 nA
-0,250244140625;324,703083180204;7,342529296875E-09;-0,249420166015625;8;635;1,37425027787685E-07;-1,34747549891472E-07;100 nA
-0,2001953125;325,20357117894;7,8887939453125E-09;-0,1995849609375;8;636;1,37425027787685E-07;-1,34747549891472E-07;100 nA
-0,150146484375;325,704059177676;8,2977294921875E-09;-0,14959716796875;8;637;1,37425027787685E-07;-1,34747549891472E-07;100 nA
-0,10009765625;326,204547176413;8,4747314453125E-09;-0,099700927734375;8;638;1,37425027787685E-07;-1,34747549891472E-07;100 nA
-0,050048828125;326,705035175149;8,5662841796875E-09;-0,04986572265625;8;639;1,37425027787685E-07;-1,34747549891472E-07;100 nA
0;327,205523173885;8,685302734375E-09;0,0001068115234375;8;640;1,37425027787685E-07;-1,34747549891472E-07;100 nA
0,050048828125;327,706011172622;8,929443359375E-09;0,050048828125;9;641;1,37421973049641E-07;-1,34700201451778E-07;100 nA
0,10009765625;328,206499171358;9,2437744140625E-09;0,100006103515625;9;642;1,37421973049641E-07;-1,34700201451778E-07;100 nA
0,150146484375;328,706987170095;9,65576171875E-09;0,15008544921875;9;643;1,37421973049641E-07;-1,34700201451778E-07;100 nA
0,2001953125;329,207475168831;9,7412109375E-09;0,200042724609375;9;644;1,37421973049641E-07;-1,34700201451778E-07;100 nA
0,250244140625;329,707963167567;8,3465576171875E-09;0,25006103515625;9;645;1,37421973049641E-07;-1,34700201451778E-07;100 nA
0,30029296875;330,208451166304;7,2662353515625E-09;0,30010986328125;9;646;1,37421973049641E-07;-1,34700201451778E-07;100 nA
0,350341796875;330,70893916504;6,8756103515625E-09;0,35009765625;9;647;1,37421973049641E-07;-1,34700201451778E-07;100 nA
0,400390625;331,209427163777;6,6802978515625E-09;0,400115966796875;9;648;1,37421973049641E-07;-1,34700201451778E-07;100 nA
0,450439453125;331,709915162513;6,597900390625E-09;0,45013427734375;9;649;1,37421973049641E-07;-1,34700201451778E-07;100 nA
0,50048828125;332,210403161249;6,622314453125E-09;0,500091552734375;9;650;1,37421973049641E-07;-1,34700201451778E-07;100 nA
0,550537109375;332,710891159986;6,7352294921875E-09;0,55010986328125;9;651;1,37421973049641E-07;-1,34700201451778E-07;100 nA
0,6005859375;333,211379158722;6,9427490234375E-09;0,60009765625;9;652;1,37421973049641E-07;-1,34700201451778E-07;100 nA
0,650634765625;333,711867157459;7,1929931640625E-09;0,650054931640625;9;653;1,37421973049641E-07;-1,34700201451778E-07;100 nA
0,70068359375;334,212355156195;7,43408203125E-09;0,699981689453125;9;654;1,37421973049641E-07;-1,34700201451778E-07;100 nA
0,750732421875;334,712843154931;7,6324462890625E-09;0,74981689453125;9;655;1,37421973049641E-07;-1,34700201451778E-07;100 nA
0,80078125;335,213331153668;7,843017578125E-09;0,79986572265625;9;656;1,37421973049641E-07;-1,34700201451778E-07;100 nA
0,850830078125;335,713819152404;8,2183837890625E-09;0,84991455078125;9;657;1,37421973049641E-07;-1,34700201451778E-07;100 nA
0,90087890625;336,21430715114;8,843994140625E-09;0,89996337890625;9;658;1,37421973049641E-07;-1,34700201451778E-07;100 nA
0,950927734375;336,714795149877;9,85107421875E-09;0,95001220703125;9;659;1,37421973049641E-07;-1,34700201451778E-07;100 nA
1,0009765625;337,215283148613;1,12579345703125E-08;0,999755859375;9;660;1,37421973049641E-07;-1,34700201451778E-07;100 nA
0,950927734375;337,71577114735;8,10546875E-09;0,94970703125;9;661;1,37421973049641E-07;-1,34700201451778E-07;100 nA
0,90087890625;338,216259146086;6,38427734375E-09;0,89996337890625;9;662;1,37421973049641E-07;-1,34700201451778E-07;100 nA
0,850830078125;338,716747144822;5,316162109375E-09;0,84991455078125;9;663;1,37421973049641E-07;-1,34700201451778E-07;100 nA
0,80078125;339,217235143559;4,5562744140625E-09;0,80047607421875;9;664;1,37421973049641E-07;-1,34700201451778E-07;100 nA
0,750732421875;339,717723142295;3,9093017578125E-09;0,749847412109375;9;665;1,37421973049641E-07;-1,34700201451778E-07;100 nA
0,70068359375;340,218211141032;3,350830078125E-09;0,699920654296875;9;666;1,37421973049641E-07;-1,34700201451778E-07;100 nA
0,650634765625;340,718699139768;2,874755859375E-09;0,65008544921875;9;667;1,37421973049641E-07;-1,34700201451778E-07;100 nA
0,6005859375;341,219187138504;2,447509765625E-09;0,600128173828125;9;668;1,37421973049641E-07;-1,34700201451778E-07;100 nA
0,550537109375;341,719675137241;2,03857421875E-09;0,5501708984375;9;669;1,37421973049641E-07;-1,34700201451778E-07;100 nA
0,50048828125;342,220163135977;1,6143798828125E-09;0,5001220703125;9;670;1,37421973049641E-07;-1,34700201451778E-07;100 nA
0,450439453125;342,720651134714;1,177978515625E-09;0,450164794921875;9;671;1,37421973049641E-07;-1,34700201451778E-07;100 nA
0,400390625;343,22113913345;6,805419921875E-10;0,40020751953125;9;672;1,37421973049641E-07;-1,34700201451778E-07;100 nA
0,350341796875;343,721627132186;7,01904296875E-11;0,350128173828125;9;673;1,37421973049641E-07;-1,34700201451778E-07;100 nA
0,30029296875;344,222115130923;-6,4697265625E-10;0,300048828125;9;674;1,37421973049641E-07;-1,34700201451778E-07;100 nA
0,250244140625;344,722603129659;-1,5411376953125E-09;0,2501220703125;9;675;1,37421973049641E-07;-1,34700201451778E-07;100 nA
0,2001953125;345,223091128395;-2,8411865234375E-09;0,2000732421875;9;676;1,37421973049641E-07;-1,34700201451778E-07;100 nA
0,150146484375;345,723579127132;-4,9713134765625E-09;0,150115966796875;9;677;1,37421973049641E-07;-1,34700201451778E-07;100 nA
0,10009765625;346,224067125868;-7,28759765625E-09;0,10009765625;9;678;1,37421973049641E-07;-1,34700201451778E-07;100 nA
0,050048828125;346,724555124605;-7,87353515625E-09;0,0501708984375;9;679;1,37421973049641E-07;-1,34700201451778E-07;100 nA
0;347,225043123341;-8,0535888671875E-09;0,0001678466796875;9;680;1,37421973049641E-07;-1,34700201451778E-07;100 nA
-0,050048828125;347,725531122077;-8,2305908203125E-09;-0,049774169921875;9;681;1,37421973049641E-07;-1,34700201451778E-07;100 nA
-0,10009765625;348,226019120814;-8,5784912109375E-09;-0,09967041015625;9;682;1,37421973049641E-07;-1,34700201451778E-07;100 nA
-0,150146484375;348,72650711955;-8,9874267578125E-09;-0,149566650390625;9;683;1,37421973049641E-07;-1,34700201451778E-07;100 nA
-0,2001953125;349,226995118287;-9,4573974609375E-09;-0,199371337890625;9;684;1,37421973049641E-07;-1,34700201451778E-07;100 nA
-0,250244140625;349,727483117023;-1,002197265625E-08;-0,249298095703125;9;685;1,37421973049641E-07;-1,34700201451778E-07;100 nA
-0,30029296875;350,227971115759;-1,0736083984375E-08;-0,29925537109375;9;686;1,37421973049641E-07;-1,34700201451778E-07;100 nA
-0,350341796875;350,728459114496;-1,1578369140625E-08;-0,349151611328125;9;687;1,37421973049641E-07;-1,34700201451778E-07;100 nA
-0,400390625;351,228947113232;-1,22772216796875E-08;-0,399078369140625;9;688;1,37421973049641E-07;-1,34700201451778E-07;100 nA
-0,450439453125;351,729435111969;-1,265869140625E-08;-0,448974609375;9;689;1,37421973049641E-07;-1,34700201451778E-07;100 nA
-0,50048828125;352,229923110705;-1,29913330078125E-08;-0,498809814453125;9;690;1,37421973049641E-07;-1,34700201451778E-07;100 nA
-0,550537109375;352,730411109441;-1,31683349609375E-08;-0,5487060546875;9;691;1,37421973049641E-07;-1,34700201451778E-07;100 nA
-0,6005859375;353,230899108178;-1,273193359375E-08;-0,598602294921875;9;692;1,37421973049641E-07;-1,34700201451778E-07;100 nA
-0,650634765625;353,731387106914;-1,17156982421875E-08;-0,6485595703125;9;693;1,37421973049641E-07;-1,34700201451778E-07;100 nA
-0,70068359375;354,23187510565;-1,0614013671875E-08;-0,69854736328125;9;694;1,37421973049641E-07;-1,34700201451778E-07;100 nA
-0,750732421875;354,732363104387;-9,6710205078125E-09;-0,74859619140625;9;695;1,37421973049641E-07;-1,34700201451778E-07;100 nA
-0,80078125;355,232851103123;-8,9599609375E-09;-0,7989501953125;9;696;1,37421973049641E-07;-1,34700201451778E-07;100 nA
-0,850830078125;355,73333910186;-8,392333984375E-09;-0,84869384765625;9;697;1,37421973049641E-07;-1,34700201451778E-07;100 nA
-0,90087890625;356,233827100596;-7,9345703125E-09;-0,8990478515625;9;698;1,37421973049641E-07;-1,34700201451778E-07;100 nA
-0,950927734375;356,734315099332;-7,830810546875E-09;-0,94879150390625;9;699;1,37421973049641E-07;-1,34700201451778E-07;100 nA
-1,0009765625;357,234803098069;-7,9071044921875E-09;-0,99853515625;9;700;1,37421973049641E-07;-1,34700201451778E-07;100 nA
-0,950927734375;357,735291096805;-6,640625E-09;-0,94879150390625;9;701;1,37421973049641E-07;-1,34700201451778E-07;100 nA
-0,90087890625;358,235779095542;-5,7708740234375E-09;-0,8984375;9;702;1,37421973049641E-07;-1,34700201451778E-07;100 nA
-0,850830078125;358,736267094278;-5,0262451171875E-09;-0,84869384765625;9;703;1,37421973049641E-07;-1,34700201451778E-07;100 nA
-0,80078125;359,236755093014;-4,339599609375E-09;-0,7989501953125;9;704;1,37421973049641E-07;-1,34700201451778E-07;100 nA
-0,750732421875;359,737243091751;-3,6865234375E-09;-0,74859619140625;9;705;1,37421973049641E-07;-1,34700201451778E-07;100 nA
-0,70068359375;360,237731090487;-2,947998046875E-09;-0,698577880859375;9;706;1,37421973049641E-07;-1,34700201451778E-07;100 nA
-0,650634765625;360,738219089224;-2,0416259765625E-09;-0,64862060546875;9;707;1,37421973049641E-07;-1,34700201451778E-07;100 nA
-0,6005859375;361,23870708796;-1,025390625E-09;-0,598724365234375;9;708;1,37421973049641E-07;-1,34700201451778E-07;100 nA
-0,550537109375;361,739195086696;1,15966796875E-10;-0,548828125;9;709;1,37421973049641E-07;-1,34700201451778E-07;100 nA
-0,50048828125;362,239683085433;1,409912109375E-09;-0,498870849609375;9;710;1,37421973049641E-07;-1,34700201451778E-07;100 nA
-0,450439453125;362,740171084169;2,8167724609375E-09;-0,449005126953125;9;711;1,37421973049641E-07;-1,34700201451778E-07;100 nA
-0,400390625;363,240659082905;4,2327880859375E-09;-0,399078369140625;9;712;1,37421973049641E-07;-1,34700201451778E-07;100 nA
-0,350341796875;363,741147081642;5,517578125E-09;-0,34918212890625;9;713;1,37421973049641E-07;-1,34700201451778E-07;100 nA
-0,30029296875;364,241635080378;6,573486328125E-09;-0,299346923828125;9;714;1,37421973049641E-07;-1,34700201451778E-07;100 nA
-0,250244140625;364,742123079115;7,354736328125E-09;-0,249420166015625;9;715;1,37421973049641E-07;-1,34700201451778E-07;100 nA
-0,2001953125;365,242611077851;7,9193115234375E-09;-0,199493408203125;9;716;1,37421973049641E-07;-1,34700201451778E-07;100 nA
-0,150146484375;365,743099076587;8,3343505859375E-09;-0,149627685546875;9;717;1,37421973049641E-07;-1,34700201451778E-07;100 nA
-0,10009765625;366,243587075324;8,514404296875E-09;-0,099700927734375;9;718;1,37421973049641E-07;-1,34700201451778E-07;100 nA
-0,050048828125;366,74407507406;8,60595703125E-09;-0,049835205078125;9;719;1,37421973049641E-07;-1,34700201451778E-07;100 nA
0;367,244563072797;8,7432861328125E-09;0,000158691406249994;9;720;1,37421973049641E-07;-1,34700201451778E-07;100 nA
0,050048828125;367,745051071533;8,9752197265625E-09;0,050048828125;10;721;1,37667879462242E-07;-1,3470783829689E-07;100 nA
0,10009765625;368,245539070269;9,3048095703125E-09;0,100067138671875;10;722;1,37667879462242E-07;-1,3470783829689E-07;100 nA
0,150146484375;368,746027069006;9,716796875E-09;0,1500244140625;10;723;1,37667879462242E-07;-1,3470783829689E-07;100 nA
0,2001953125;369,246515067742;9,808349609375E-09;0,200042724609375;10;724;1,37667879462242E-07;-1,3470783829689E-07;100 nA
0,250244140625;369,747003066479;8,4228515625E-09;0,250091552734375;10;725;1,37667879462242E-07;-1,3470783829689E-07;100 nA
0,30029296875;370,247491065215;7,318115234375E-09;0,300079345703125;10;726;1,37667879462242E-07;-1,3470783829689E-07;100 nA
0,350341796875;370,747979063951;6,927490234375E-09;0,35015869140625;10;727;1,37667879462242E-07;-1,3470783829689E-07;100 nA
0,400390625;371,248467062688;6,732177734375E-09;0,400115966796875;10;728;1,37667879462242E-07;-1,3470783829689E-07;100 nA
0,450439453125;371,748955061424;6,640625E-09;0,450103759765625;10;729;1,37667879462242E-07;-1,3470783829689E-07;100 nA
0,50048828125;372,249443060161;6,6375732421875E-09;0,5001220703125;10;730;1,37667879462242E-07;-1,3470783829689E-07;100 nA
0,550537109375;372,749931058897;6,7352294921875E-09;0,550140380859375;10;731;1,37667879462242E-07;-1,3470783829689E-07;100 nA
0,6005859375;373,250419057633;6,9366455078125E-09;0,600128173828125;10;732;1,37667879462242E-07;-1,3470783829689E-07;100 nA
0,650634765625;373,75090705637;7,18994140625E-09;0,6500244140625;10;733;1,37667879462242E-07;-1,3470783829689E-07;100 nA
0,70068359375;374,251395055106;7,4310302734375E-09;0,699951171875;10;734;1,37667879462242E-07;-1,3470783829689E-07;100 nA
0,750732421875;374,751883053842;7,60498046875E-09;0,74981689453125;10;735;1,37667879462242E-07;-1,3470783829689E-07;100 nA
0,80078125;375,252371052579;7,8125E-09;0,8001708984375;10;736;1,37667879462242E-07;-1,3470783829689E-07;100 nA
0,850830078125;375,752859051315;8,1787109375E-09;0,84991455078125;10;737;1,37667879462242E-07;-1,3470783829689E-07;100 nA
0,90087890625;376,253347050052;8,7982177734375E-09;0,899658203125;10;738;1,37667879462242E-07;-1,3470783829689E-07;100 nA
0,950927734375;376,753835048788;9,7808837890625E-09;0,94940185546875;10;739;1,37667879462242E-07;-1,3470783829689E-07;100 nA
1,0009765625;377,254323047524;1,11968994140625E-08;1,0003662109375;10;740;1,37667879462242E-07;-1,3470783829689E-07;100 nA
0,950927734375;377,754811046261;8,0474853515625E-09;0,9503173828125;10;741;1,37667879462242E-07;-1,3470783829689E-07;100 nA
0,90087890625;378,255299044997;6,3507080078125E-09;0,89996337890625;10;742;1,37667879462242E-07;-1,3470783829689E-07;100 nA
0,850830078125;378,755787043734;5,2825927734375E-09;0,8502197265625;10;743;1,37667879462242E-07;-1,3470783829689E-07;100 nA
0,80078125;379,25627504247;4,5379638671875E-09;0,799560546875;10;744;1,37667879462242E-07;-1,3470783829689E-07;100 nA
0,750732421875;379,756763041206;3,887939453125E-09;0,749847412109375;10;745;1,37667879462242E-07;-1,3470783829689E-07;100 nA
0,70068359375;380,257251039943;3,3416748046875E-09;0,699951171875;10;746;1,37667879462242E-07;-1,3470783829689E-07;100 nA
0,650634765625;380,757739038679;2,8656005859375E-09;0,6500244140625;10;747;1,37667879462242E-07;-1,3470783829689E-07;100 nA
0,6005859375;381,258227037416;2,4566650390625E-09;0,60015869140625;10;748;1,37667879462242E-07;-1,3470783829689E-07;100 nA
0,550537109375;381,758715036152;2,05078125E-09;0,550079345703125;10;749;1,37667879462242E-07;-1,3470783829689E-07;100 nA
0,50048828125;382,259203034888;1,629638671875E-09;0,500091552734375;10;750;1,37667879462242E-07;-1,3470783829689E-07;100 nA
0,450439453125;382,759691033625;1,2298583984375E-09;0,45013427734375;10;751;1,37667879462242E-07;-1,3470783829689E-07;100 nA
0,400390625;383,260179032361;7,38525390625E-10;0,400115966796875;10;752;1,37667879462242E-07;-1,3470783829689E-07;100 nA
0,350341796875;383,760667031097;1,312255859375E-10;0,35015869140625;10;753;1,37667879462242E-07;-1,3470783829689E-07;100 nA
0,30029296875;384,261155029834;-6,011962890625E-10;0,300048828125;10;754;1,37667879462242E-07;-1,3470783829689E-07;100 nA
0,250244140625;384,76164302857;-1,4892578125E-09;0,2501220703125;10;755;1,37667879462242E-07;-1,3470783829689E-07;100 nA
0,2001953125;385,262131027307;-2,813720703125E-09;0,200103759765625;10;756;1,37667879462242E-07;-1,3470783829689E-07;100 nA
0,150146484375;385,762619026043;-4,9468994140625E-09;0,150177001953125;10;757;1,37667879462242E-07;-1,3470783829689E-07;100 nA
0,10009765625;386,263107024779;-7,2509765625E-09;0,10015869140625;10;758;1,37667879462242E-07;-1,3470783829689E-07;100 nA
0,050048828125;386,763595023516;-7,8277587890625E-09;0,050140380859375;10;759;1,37667879462242E-07;-1,3470783829689E-07;100 nA
0;387,264083022252;-7,97119140625E-09;0,000164794921875003;10;760;1,37667879462242E-07;-1,3470783829689E-07;100 nA
-0,050048828125;387,764571020989;-8,184814453125E-09;-0,0496978759765625;10;761;1,37667879462242E-07;-1,3470783829689E-07;100 nA
-0,10009765625;388,265059019725;-8,5205078125E-09;-0,099639892578125;10;762;1,37667879462242E-07;-1,3470783829689E-07;100 nA
-0,150146484375;388,765547018461;-8,953857421875E-09;-0,149505615234375;10;763;1,37667879462242E-07;-1,3470783829689E-07;100 nA
-0,2001953125;389,266035017198;-9,4146728515625E-09;-0,199432373046875;10;764;1,37667879462242E-07;-1,3470783829689E-07;100 nA
-0,250244140625;389,766523015934;-1,00006103515625E-08;-0,249359130859375;10;765;1,37667879462242E-07;-1,3470783829689E-07;100 nA
-0,30029296875;390,267011014671;-1,07177734375E-08;-0,2991943359375;10;766;1,37667879462242E-07;-1,3470783829689E-07;100 nA
-0,350341796875;390,767499013407;-1,15692138671875E-08;-0,349212646484375;10;767;1,37667879462242E-07;-1,3470783829689E-07;100 nA
-0,400390625;391,267987012143;-1,22894287109375E-08;-0,399078369140625;10;768;1,37667879462242E-07;-1,3470783829689E-07;100 nA
-0,450439453125;391,76847501088;-1,2646484375E-08;-0,448944091796875;10;769;1,37667879462242E-07;-1,3470783829689E-07;100 nA
-0,50048828125;392,268963009616;-1,30096435546875E-08;-0,49884033203125;10;770;1,37667879462242E-07;-1,3470783829689E-07;100 nA
-0,550537109375;392,769451008352;-1,3189697265625E-08;-0,548797607421875;10;771;1,37667879462242E-07;-1,3470783829689E-07;100 nA
-0,6005859375;393,269939007089;-1,27471923828125E-08;-0,5986328125;10;772;1,37667879462242E-07;-1,3470783829689E-07;100 nA
-0,650634765625;393,770427005825;-1,17523193359375E-08;-0,648590087890625;10;773;1,37667879462242E-07;-1,3470783829689E-07;100 nA
-0,70068359375;394,270915004562;-1,0638427734375E-08;-0,6986083984375;10;774;1,37667879462242E-07;-1,3470783829689E-07;100 nA
-0,750732421875;394,771403003298;-9,7198486328125E-09;-0,748565673828125;10;775;1,37667879462242E-07;-1,3470783829689E-07;100 nA
-0,80078125;395,271891002034;-9,0057373046875E-09;-0,7989501953125;10;776;1,37667879462242E-07;-1,3470783829689E-07;100 nA
-0,850830078125;395,772379000771;-8,453369140625E-09;-0,84808349609375;10;777;1,37667879462242E-07;-1,3470783829689E-07;100 nA
-0,90087890625;396,272866999507;-7,9986572265625E-09;-0,8984375;10;778;1,37667879462242E-07;-1,3470783829689E-07;100 nA
-0,950927734375;396,773354998244;-7,8857421875E-09;-0,948486328125;10;779;1,37667879462242E-07;-1,3470783829689E-07;100 nA
-1,0009765625;397,27384299698;-7,965087890625E-09;-0,9991455078125;10;780;1,37667879462242E-07;-1,3470783829689E-07;100 nA
-0,950927734375;397,774330995716;-6,683349609375E-09;-0,94879150390625;10;781;1,37667879462242E-07;-1,3470783829689E-07;100 nA
-0,90087890625;398,274818994453;-5,8135986328125E-09;-0,89813232421875;10;782;1,37667879462242E-07;-1,3470783829689E-07;100 nA
-0,850830078125;398,775306993189;-5,0323486328125E-09;-0,84869384765625;10;783;1,37667879462242E-07;-1,3470783829689E-07;100 nA
-0,80078125;399,275794991926;-4,364013671875E-09;-0,79864501953125;10;784;1,37667879462242E-07;-1,3470783829689E-07;100 nA
-0,750732421875;399,776282990662;-3,704833984375E-09;-0,748626708984375;10;785;1,37667879462242E-07;-1,3470783829689E-07;100 nA
-0,70068359375;400,276770989398;-2,94189453125E-09;-0,6986083984375;10;786;1,37667879462242E-07;-1,3470783829689E-07;100 nA
-0,650634765625;400,777258988135;-2,03857421875E-09;-0,648590087890625;10;787;1,37667879462242E-07;-1,3470783829689E-07;100 nA
-0,6005859375;401,277746986871;-1,0101318359375E-09;-0,59869384765625;10;788;1,37667879462242E-07;-1,3470783829689E-07;100 nA
-0,550537109375;401,778234985607;1,0986328125E-10;-0,54876708984375;10;789;1,37667879462242E-07;-1,3470783829689E-07;100 nA
-0,50048828125;402,278722984344;1,409912109375E-09;-0,498870849609375;10;790;1,37667879462242E-07;-1,3470783829689E-07;100 nA
-0,450439453125;402,77921098308;2,8289794921875E-09;-0,449005126953125;10;791;1,37667879462242E-07;-1,3470783829689E-07;100 nA
-0,400390625;403,279698981817;4,2449951171875E-09;-0,399139404296875;10;792;1,37667879462242E-07;-1,3470783829689E-07;100 nA
-0,350341796875;403,780186980553;5,5328369140625E-09;-0,34930419921875;10;793;1,37667879462242E-07;-1,3470783829689E-07;100 nA
-0,30029296875;404,280674979289;6,597900390625E-09;-0,29931640625;10;794;1,37667879462242E-07;-1,3470783829689E-07;100 nA
-0,250244140625;404,781162978026;7,391357421875E-09;-0,24932861328125;10;795;1,37667879462242E-07;-1,3470783829689E-07;100 nA
-0,2001953125;405,281650976762;7,9559326171875E-09;-0,199493408203125;10;796;1,37667879462242E-07;-1,3470783829689E-07;100 nA
-0,150146484375;405,782138975499;8,36181640625E-09;-0,149627685546875;10;797;1,37667879462242E-07;-1,3470783829689E-07;100 nA
-0,10009765625;406,282626974235;8,5479736328125E-09;-0,0997314453125;10;798;1,37667879462242E-07;-1,3470783829689E-07;100 nA
-0,050048828125;406,783114972971;8,6273193359375E-09;-0,0498046875;10;799;1,37667879462242E-07;-1,3470783829689E-07;100 nA
0;407,283602971708;8,758544921875E-09;8,54492187500056E-05;10;800;1,37667879462242E-07;-1,3470783829689E-07;100 nA
