Potential applied (V);Time (s);WE(1).Current (A);WE(1).Potential (V);Scan;Index;Q+;Q-;Current range
0,050048828125;8,73674597794184;6,5948486328125E-09;0,050048828125;1;1;4,10567484796047E-07;-4,55490462481976E-07;100 nA
0,10009765625;9,23723397667823;9,8541259765625E-09;0,100067138671875;1;2;4,10567484796047E-07;-4,55490462481976E-07;100 nA
0,150146484375;9,73772197541462;1,0968017578125E-08;0,150054931640625;1;3;4,10567484796047E-07;-4,55490462481976E-07;100 nA
0,2001953125;10,238209974151;1,265869140625E-08;0,200042724609375;1;4;4,10567484796047E-07;-4,55490462481976E-07;100 nA
0,250244140625;10,7386979728874;1,4459228515625E-08;0,249969482421875;1;5;4,10567484796047E-07;-4,55490462481976E-07;100 nA
0,30029296875;11,2391859716238;1,624755859375E-08;0,29998779296875;1;6;4,10567484796047E-07;-4,55490462481976E-07;100 nA
0,350341796875;11,7396739703602;1,806640625E-08;0,35003662109375;1;7;4,10567484796047E-07;-4,55490462481976E-07;100 nA
0,400390625;12,2401619690966;1,97601318359375E-08;0,40008544921875;1;8;4,10567484796047E-07;-4,55490462481976E-07;100 nA
0,450439453125;12,740649967833;2,139892578125E-08;0,450103759765625;1;9;4,10567484796047E-07;-4,55490462481976E-07;100 nA
0,50048828125;13,2411379665693;2,3095703125E-08;0,499969482421875;1;10;4,10567484796047E-07;-4,55490462481976E-07;100 nA
0,550537109375;13,7416259653057;2,45086669921875E-08;0,550079345703125;1;11;4,10567484796047E-07;-4,55490462481976E-07;100 nA
0,6005859375;14,2421139640421;2,56011962890625E-08;0,60003662109375;1;12;4,10567484796047E-07;-4,55490462481976E-07;100 nA
0,650634765625;14,7426019627785;2,6788330078125E-08;0,64990234375;1;13;4,10567484796047E-07;-4,55490462481976E-07;100 nA
0,70068359375;15,2430899615149;2,81829833984375E-08;0,6998291015625;1;14;4,10567484796047E-07;-4,55490462481976E-07;100 nA
0,750732421875;15,7435779602513;2,9949951171875E-08;0,749755859375;1;15;4,10567484796047E-07;-4,55490462481976E-07;100 nA
0,80078125;16,2440659589877;3,1597900390625E-08;0,79986572265625;1;16;4,10567484796047E-07;-4,55490462481976E-07;100 nA
0,850830078125;16,7445539577241;3,34686279296875E-08;0,84991455078125;1;17;4,10567484796047E-07;-4,55490462481976E-07;100 nA
0,90087890625;17,2450419564605;3,570556640625E-08;0,899658203125;1;18;4,10567484796047E-07;-4,55490462481976E-07;100 nA
0,950927734375;17,7455299551968;3,82415771484375E-08;0,9490966796875;1;19;4,10567484796047E-07;-4,55490462481976E-07;100 nA
1,0009765625;18,2460179539332;4,107666015625E-08;0,99945068359375;1;20;4,10567484796047E-07;-4,55490462481976E-07;100 nA
0,950927734375;18,7465059526696;3,66302490234375E-08;0,94940185546875;1;21;4,10567484796047E-07;-4,55490462481976E-07;100 nA
0,90087890625;19,246993951406;3,34259033203125E-08;0,89935302734375;1;22;4,10567484796047E-07;-4,55490462481976E-07;100 nA
0,850830078125;19,7474819501424;3,08319091796875E-08;0,849609375;1;23;4,10567484796047E-07;-4,55490462481976E-07;100 nA
0,80078125;20,2479699488788;2,85491943359375E-08;0,79925537109375;1;24;4,10567484796047E-07;-4,55490462481976E-07;100 nA
0,750732421875;20,7484579476152;2,647705078125E-08;0,749755859375;1;25;4,10567484796047E-07;-4,55490462481976E-07;100 nA
0,70068359375;21,2489459463516;2,44476318359375E-08;0,699859619140625;1;26;4,10567484796047E-07;-4,55490462481976E-07;100 nA
0,650634765625;21,749433945088;2,24700927734375E-08;0,64996337890625;1;27;4,10567484796047E-07;-4,55490462481976E-07;100 nA
0,6005859375;22,2499219438243;2,05047607421875E-08;0,600067138671875;1;28;4,10567484796047E-07;-4,55490462481976E-07;100 nA
0,550537109375;22,7504099425607;1,8597412109375E-08;0,55010986328125;1;29;4,10567484796047E-07;-4,55490462481976E-07;100 nA
0,50048828125;23,2508979412971;1,671142578125E-08;0,5;1;30;4,10567484796047E-07;-4,55490462481976E-07;100 nA
0,450439453125;23,7513859400335;1,48681640625E-08;0,450103759765625;1;31;4,10567484796047E-07;-4,55490462481976E-07;100 nA
0,400390625;24,2518739387699;1,3006591796875E-08;0,400054931640625;1;32;4,10567484796047E-07;-4,55490462481976E-07;100 nA
0,350341796875;24,7523619375063;1,10931396484375E-08;0,35003662109375;1;33;4,10567484796047E-07;-4,55490462481976E-07;100 nA
0,30029296875;25,2528499362427;9,08203125E-09;0,300079345703125;1;34;4,10567484796047E-07;-4,55490462481976E-07;100 nA
0,250244140625;25,7533379349791;6,9580078125E-09;0,25006103515625;1;35;4,10567484796047E-07;-4,55490462481976E-07;100 nA
0,2001953125;26,2538259337155;4,6844482421875E-09;0,200042724609375;1;36;4,10567484796047E-07;-4,55490462481976E-07;100 nA
0,150146484375;26,7543139324519;2,276611328125E-09;0,1500244140625;1;37;4,10567484796047E-07;-4,55490462481976E-07;100 nA
0,10009765625;27,2548019311882;-5,0048828125E-10;0,100067138671875;1;38;4,10567484796047E-07;-4,55490462481976E-07;100 nA
0,050048828125;27,7552899299246;-5,072021484375E-09;0,050140380859375;1;39;4,10567484796047E-07;-4,55490462481976E-07;100 nA
0;28,255777928661;-1,40655517578125E-08;0,0001220703125;1;40;4,10567484796047E-07;-4,55490462481976E-07;100 nA
-0,050048828125;28,7562659273974;-1,26800537109375E-08;-0,04971923828125;1;41;4,10567484796047E-07;-4,55490462481976E-07;100 nA
-0,10009765625;29,2567539261338;-1,2628173828125E-08;-0,099639892578125;1;42;4,10567484796047E-07;-4,55490462481976E-07;100 nA
-0,150146484375;29,7572419248702;-1,4715576171875E-08;-0,1495361328125;1;43;4,10567484796047E-07;-4,55490462481976E-07;100 nA
-0,2001953125;30,2577299236066;-1,73309326171875E-08;-0,199462890625;1;44;4,10567484796047E-07;-4,55490462481976E-07;100 nA
-0,250244140625;30,758217922343;-1,9244384765625E-08;-0,249298095703125;1;45;4,10567484796047E-07;-4,55490462481976E-07;100 nA
-0,30029296875;31,2587059210794;-2,0526123046875E-08;-0,299224853515625;1;46;4,10567484796047E-07;-4,55490462481976E-07;100 nA
-0,350341796875;31,7591939198157;-2,203369140625E-08;-0,349151611328125;1;47;4,10567484796047E-07;-4,55490462481976E-07;100 nA
-0,400390625;32,2596819185521;-2,4041748046875E-08;-0,3990478515625;1;48;4,10567484796047E-07;-4,55490462481976E-07;100 nA
-0,450439453125;32,7601699172885;-2,61077880859375E-08;-0,448944091796875;1;49;4,10567484796047E-07;-4,55490462481976E-07;100 nA
-0,50048828125;33,2606579160249;-2,79205322265625E-08;-0,498748779296875;1;50;4,10567484796047E-07;-4,55490462481976E-07;100 nA
-0,550537109375;33,7611459147613;-2,93365478515625E-08;-0,5487060546875;1;51;4,10567484796047E-07;-4,55490462481976E-07;100 nA
-0,6005859375;34,2616339134977;-3,0615234375E-08;-0,598541259765625;1;52;4,10567484796047E-07;-4,55490462481976E-07;100 nA
-0,650634765625;34,7621219122341;-3,22021484375E-08;-0,648529052734375;1;53;4,10567484796047E-07;-4,55490462481976E-07;100 nA
-0,70068359375;35,2626099109705;-3,3917236328125E-08;-0,698577880859375;1;54;4,10567484796047E-07;-4,55490462481976E-07;100 nA
-0,750732421875;35,7630979097069;-3,577880859375E-08;-0,748443603515625;1;55;4,10567484796047E-07;-4,55490462481976E-07;100 nA
-0,80078125;36,2635859084432;-3,773193359375E-08;-0,79833984375;1;56;4,10567484796047E-07;-4,55490462481976E-07;100 nA
-0,850830078125;36,7640739071796;-3,97003173828125E-08;-0,84869384765625;1;57;4,10567484796047E-07;-4,55490462481976E-07;100 nA
-0,90087890625;37,264561905916;-4,168701171875E-08;-0,8984375;1;58;4,10567484796047E-07;-4,55490462481976E-07;100 nA
-0,950927734375;37,7650499046524;-4,3853759765625E-08;-0,9490966796875;1;59;4,10567484796047E-07;-4,55490462481976E-07;100 nA
-1,0009765625;38,2655379033888;-4,60205078125E-08;-0,9991455078125;1;60;4,10567484796047E-07;-4,55490462481976E-07;100 nA
-0,950927734375;38,7660259021252;-4,193115234375E-08;-0,94879150390625;1;61;4,10567484796047E-07;-4,55490462481976E-07;100 nA
-0,90087890625;39,2665139008616;-3,8433837890625E-08;-0,8990478515625;1;62;4,10567484796047E-07;-4,55490462481976E-07;100 nA
-0,850830078125;39,767001899598;-3,50494384765625E-08;-0,84930419921875;1;63;4,10567484796047E-07;-4,55490462481976E-07;100 nA
-0,80078125;40,2674898983344;-3,193359375E-08;-0,7989501953125;1;64;4,10567484796047E-07;-4,55490462481976E-07;100 nA
-0,750732421875;40,7679778970708;-2,90557861328125E-08;-0,74847412109375;1;65;4,10567484796047E-07;-4,55490462481976E-07;100 nA
-0,70068359375;41,2684658958071;-2,62786865234375E-08;-0,698516845703125;1;66;4,10567484796047E-07;-4,55490462481976E-07;100 nA
-0,650634765625;41,7689538945435;-2,36053466796875E-08;-0,64849853515625;1;67;4,10567484796047E-07;-4,55490462481976E-07;100 nA
-0,6005859375;42,2694418932799;-2,1026611328125E-08;-0,59857177734375;1;68;4,10567484796047E-07;-4,55490462481976E-07;100 nA
-0,550537109375;42,7699298920163;-1,86279296875E-08;-0,548736572265625;1;69;4,10567484796047E-07;-4,55490462481976E-07;100 nA
-0,50048828125;43,2704178907527;-1,60919189453125E-08;-0,49884033203125;1;70;4,10567484796047E-07;-4,55490462481976E-07;100 nA
-0,450439453125;43,7709058894891;-1,3323974609375E-08;-0,448883056640625;1;71;4,10567484796047E-07;-4,55490462481976E-07;100 nA
-0,400390625;44,2713938882255;-1,0614013671875E-08;-0,399078369140625;1;72;4,10567484796047E-07;-4,55490462481976E-07;100 nA
-0,350341796875;44,7718818869619;-8,0413818359375E-09;-0,3492431640625;1;73;4,10567484796047E-07;-4,55490462481976E-07;100 nA
-0,30029296875;45,2723698856983;-5,55419921875E-09;-0,2991943359375;1;74;4,10567484796047E-07;-4,55490462481976E-07;100 nA
-0,250244140625;45,7728578844346;-2,813720703125E-09;-0,2493896484375;1;75;4,10567484796047E-07;-4,55490462481976E-07;100 nA
-0,2001953125;46,273345883171;1,953125E-10;-0,199462890625;1;76;4,10567484796047E-07;-4,55490462481976E-07;100 nA
-0,150146484375;46,7738338819074;3,289794921875E-09;-0,1495361328125;1;77;4,10567484796047E-07;-4,55490462481976E-07;100 nA
-0,10009765625;47,2743218806438;6,414794921875E-09;-0,099700927734375;1;78;4,10567484796047E-07;-4,55490462481976E-07;100 nA
-0,050048828125;47,7748098793802;9,466552734375E-09;-0,049835205078125;1;79;4,10567484796047E-07;-4,55490462481976E-07;100 nA
0;48,2752978781166;1,2127685546875E-08;0,0001678466796875;1;80;4,10567484796047E-07;-4,55490462481976E-07;100 nA
0,050048828125;48,775785876853;1,53778076171875E-08;0,050018310546875;2;81;4,54516001045704E-07;-4,53448370099068E-07;100 nA
0,10009765625;49,2762738755894;1,58111572265625E-08;0,100006103515625;2;82;4,54516001045704E-07;-4,53448370099068E-07;100 nA
0,150146484375;49,7767618743258;1,585693359375E-08;0,1500244140625;2;83;4,54516001045704E-07;-4,53448370099068E-07;100 nA
0,2001953125;50,2772498730621;1,69891357421875E-08;0,2000732421875;2;84;4,54516001045704E-07;-4,53448370099068E-07;100 nA
0,250244140625;50,7777378717985;1,84417724609375E-08;0,250030517578125;2;85;4,54516001045704E-07;-4,53448370099068E-07;100 nA
0,30029296875;51,2782258705349;2,00714111328125E-08;0,29998779296875;2;86;4,54516001045704E-07;-4,53448370099068E-07;100 nA
0,350341796875;51,7787138692713;2,1630859375E-08;0,350128173828125;2;87;4,54516001045704E-07;-4,53448370099068E-07;100 nA
0,400390625;52,2792018680077;2,335205078125E-08;0,4000244140625;2;88;4,54516001045704E-07;-4,53448370099068E-07;100 nA
0,450439453125;52,7796898667441;2,5201416015625E-08;0,45001220703125;2;89;4,54516001045704E-07;-4,53448370099068E-07;100 nA
0,50048828125;53,2801778654805;2,7142333984375E-08;0,500030517578125;2;90;4,54516001045704E-07;-4,53448370099068E-07;100 nA
0,550537109375;53,7806658642169;2,90924072265625E-08;0,550048828125;2;91;4,54516001045704E-07;-4,53448370099068E-07;100 nA
0,6005859375;54,2811538629533;3,10455322265625E-08;0,60003662109375;2;92;4,54516001045704E-07;-4,53448370099068E-07;100 nA
0,650634765625;54,7816418616897;3,2861328125E-08;0,649993896484375;2;93;4,54516001045704E-07;-4,53448370099068E-07;100 nA
0,70068359375;55,282129860426;3,40850830078125E-08;0,699920654296875;2;94;4,54516001045704E-07;-4,53448370099068E-07;100 nA
0,750732421875;55,7826178591624;3,53607177734375E-08;0,749725341796875;2;95;4,54516001045704E-07;-4,53448370099068E-07;100 nA
0,80078125;56,2831058578988;3,6187744140625E-08;0,79986572265625;2;96;4,54516001045704E-07;-4,53448370099068E-07;100 nA
0,850830078125;56,7835938566352;3,64990234375E-08;0,849609375;2;97;4,54516001045704E-07;-4,53448370099068E-07;100 nA
0,90087890625;57,2840818553716;3,7652587890625E-08;0,89935302734375;2;98;4,54516001045704E-07;-4,53448370099068E-07;100 nA
0,950927734375;57,784569854108;3,96026611328125E-08;0,94970703125;2;99;4,54516001045704E-07;-4,53448370099068E-07;100 nA
1,0009765625;58,2850578528444;4,193115234375E-08;0,999755859375;2;100;4,54516001045704E-07;-4,53448370099068E-07;100 nA
0,950927734375;58,7855458515808;3,7115478515625E-08;0,94970703125;2;101;4,54516001045704E-07;-4,53448370099068E-07;100 nA
0,90087890625;59,2860338503172;3,37646484375E-08;0,89935302734375;2;102;4,54516001045704E-07;-4,53448370099068E-07;100 nA
0,850830078125;59,7865218490535;3,11309814453125E-08;0,84930419921875;2;103;4,54516001045704E-07;-4,53448370099068E-07;100 nA
0,80078125;60,2870098477899;2,874755859375E-08;0,79986572265625;2;104;4,54516001045704E-07;-4,53448370099068E-07;100 nA
0,750732421875;60,7874978465263;2,66265869140625E-08;0,749755859375;2;105;4,54516001045704E-07;-4,53448370099068E-07;100 nA
0,70068359375;61,2879858452627;2,45361328125E-08;0,699859619140625;2;106;4,54516001045704E-07;-4,53448370099068E-07;100 nA
0,650634765625;61,7884738439991;2,249755859375E-08;0,6500244140625;2;107;4,54516001045704E-07;-4,53448370099068E-07;100 nA
0,6005859375;62,2889618427355;2,0562744140625E-08;0,600067138671875;2;108;4,54516001045704E-07;-4,53448370099068E-07;100 nA
0,550537109375;62,7894498414719;1,86065673828125E-08;0,550048828125;2;109;4,54516001045704E-07;-4,53448370099068E-07;100 nA
0,50048828125;63,2899378402083;1,67449951171875E-08;0,500030517578125;2;110;4,54516001045704E-07;-4,53448370099068E-07;100 nA
0,450439453125;63,7904258389447;1,49169921875E-08;0,450042724609375;2;111;4,54516001045704E-07;-4,53448370099068E-07;100 nA
0,400390625;64,290913837681;1,30584716796875E-08;0,400115966796875;2;112;4,54516001045704E-07;-4,53448370099068E-07;100 nA
0,350341796875;64,7914018364174;1,11358642578125E-08;0,350128173828125;2;113;4,54516001045704E-07;-4,53448370099068E-07;100 nA
0,30029296875;65,2918898351538;9,1461181640625E-09;0,30010986328125;2;114;4,54516001045704E-07;-4,53448370099068E-07;100 nA
0,250244140625;65,7923778338902;7,037353515625E-09;0,250091552734375;2;115;4,54516001045704E-07;-4,53448370099068E-07;100 nA
0,2001953125;66,2928658326266;4,79736328125E-09;0,2000732421875;2;116;4,54516001045704E-07;-4,53448370099068E-07;100 nA
0,150146484375;66,793353831363;2,4078369140625E-09;0,150115966796875;2;117;4,54516001045704E-07;-4,53448370099068E-07;100 nA
0,10009765625;67,2938418300994;-4,5166015625E-10;0,100128173828125;2;118;4,54516001045704E-07;-4,53448370099068E-07;100 nA
0,050048828125;67,7943298288358;-5,0018310546875E-09;0,050079345703125;2;119;4,54516001045704E-07;-4,53448370099068E-07;100 nA
0;68,2948178275722;-1,44256591796875E-08;0,000119018554687503;2;120;4,54516001045704E-07;-4,53448370099068E-07;100 nA
-0,050048828125;68,7953058263086;-1,32781982421875E-08;-0,049774169921875;2;121;4,54516001045704E-07;-4,53448370099068E-07;100 nA
-0,10009765625;69,2957938250449;-1,292724609375E-08;-0,099609375;2;122;4,54516001045704E-07;-4,53448370099068E-07;100 nA
-0,150146484375;69,7962818237813;-1,48956298828125E-08;-0,14959716796875;2;123;4,54516001045704E-07;-4,53448370099068E-07;100 nA
-0,2001953125;70,2967698225177;-1,7169189453125E-08;-0,199462890625;2;124;4,54516001045704E-07;-4,53448370099068E-07;100 nA
-0,250244140625;70,7972578212541;-1,868896484375E-08;-0,249267578125;2;125;4,54516001045704E-07;-4,53448370099068E-07;100 nA
-0,30029296875;71,2977458199905;-1,99554443359375E-08;-0,299285888671875;2;126;4,54516001045704E-07;-4,53448370099068E-07;100 nA
-0,350341796875;71,7982338187269;-2,1612548828125E-08;-0,349151611328125;2;127;4,54516001045704E-07;-4,53448370099068E-07;100 nA
-0,400390625;72,2987218174633;-2,3699951171875E-08;-0,39898681640625;2;128;4,54516001045704E-07;-4,53448370099068E-07;100 nA
-0,450439453125;72,7992098161997;-2,574462890625E-08;-0,448883056640625;2;129;4,54516001045704E-07;-4,53448370099068E-07;100 nA
-0,50048828125;73,2996978149361;-2,7569580078125E-08;-0,498779296875;2;130;4,54516001045704E-07;-4,53448370099068E-07;100 nA
-0,550537109375;73,8001858136724;-2,9010009765625E-08;-0,5487060546875;2;131;4,54516001045704E-07;-4,53448370099068E-07;100 nA
-0,6005859375;74,3006738124088;-3,03436279296875E-08;-0,5986328125;2;132;4,54516001045704E-07;-4,53448370099068E-07;100 nA
-0,650634765625;74,8011618111452;-3,193359375E-08;-0,648468017578125;2;133;4,54516001045704E-07;-4,53448370099068E-07;100 nA
-0,70068359375;75,3016498098816;-3,37860107421875E-08;-0,698516845703125;2;134;4,54516001045704E-07;-4,53448370099068E-07;100 nA
-0,750732421875;75,802137808618;-3,57086181640625E-08;-0,74847412109375;2;135;4,54516001045704E-07;-4,53448370099068E-07;100 nA
-0,80078125;76,3026258073544;-3,76068115234375E-08;-0,79864501953125;2;136;4,54516001045704E-07;-4,53448370099068E-07;100 nA
-0,850830078125;76,8031138060908;-3,95904541015625E-08;-0,84869384765625;2;137;4,54516001045704E-07;-4,53448370099068E-07;100 nA
-0,90087890625;77,3036018048272;-4,16259765625E-08;-0,89874267578125;2;138;4,54516001045704E-07;-4,53448370099068E-07;100 nA
-0,950927734375;77,8040898035636;-4,3701171875E-08;-0,948486328125;2;139;4,54516001045704E-07;-4,53448370099068E-07;100 nA
-1,0009765625;78,3045778022999;-4,5867919921875E-08;-0,9991455078125;2;140;4,54516001045704E-07;-4,53448370099068E-07;100 nA
-0,950927734375;78,8050658010363;-4,168701171875E-08;-0,94879150390625;2;141;4,54516001045704E-07;-4,53448370099068E-07;100 nA
-0,90087890625;79,3055537997727;-3,81988525390625E-08;-0,8990478515625;2;142;4,54516001045704E-07;-4,53448370099068E-07;100 nA
-0,850830078125;79,8060417985091;-3,4881591796875E-08;-0,84808349609375;2;143;4,54516001045704E-07;-4,53448370099068E-07;100 nA
-0,80078125;80,3065297972455;-3,17352294921875E-08;-0,7989501953125;2;144;4,54516001045704E-07;-4,53448370099068E-07;100 nA
-0,750732421875;80,8070177959819;-2,874755859375E-08;-0,748504638671875;2;145;4,54516001045704E-07;-4,53448370099068E-07;100 nA
-0,70068359375;81,3075057947183;-2,6080322265625E-08;-0,698516845703125;2;146;4,54516001045704E-07;-4,53448370099068E-07;100 nA
-0,650634765625;81,8079937934547;-2,3486328125E-08;-0,6485595703125;2;147;4,54516001045704E-07;-4,53448370099068E-07;100 nA
-0,6005859375;82,3084817921911;-2,09991455078125E-08;-0,598602294921875;2;148;4,54516001045704E-07;-4,53448370099068E-07;100 nA
-0,550537109375;82,8089697909274;-1,85821533203125E-08;-0,5487060546875;2;149;4,54516001045704E-07;-4,53448370099068E-07;100 nA
-0,50048828125;83,3094577896638;-1,61041259765625E-08;-0,498809814453125;2;150;4,54516001045704E-07;-4,53448370099068E-07;100 nA
-0,450439453125;83,8099457884002;-1,34124755859375E-08;-0,448883056640625;2;151;4,54516001045704E-07;-4,53448370099068E-07;100 nA
-0,400390625;84,3104337871366;-1,0699462890625E-08;-0,399017333984375;2;152;4,54516001045704E-07;-4,53448370099068E-07;100 nA
-0,350341796875;84,810921785873;-8,16650390625E-09;-0,34918212890625;2;153;4,54516001045704E-07;-4,53448370099068E-07;100 nA
-0,30029296875;85,3114097846094;-5,65185546875E-09;-0,2991943359375;2;154;4,54516001045704E-07;-4,53448370099068E-07;100 nA
-0,250244140625;85,8118977833458;-2,984619140625E-09;-0,2493896484375;2;155;4,54516001045704E-07;-4,53448370099068E-07;100 nA
-0,2001953125;86,3123857820822;8,544921875E-11;-0,199462890625;2;156;4,54516001045704E-07;-4,53448370099068E-07;100 nA
-0,150146484375;86,8128737808186;3,216552734375E-09;-0,14959716796875;2;157;4,54516001045704E-07;-4,53448370099068E-07;100 nA
-0,10009765625;87,313361779555;6,292724609375E-09;-0,0997314453125;2;158;4,54516001045704E-07;-4,53448370099068E-07;100 nA
-0,050048828125;87,8138497782913;9,3658447265625E-09;-0,04986572265625;2;159;4,54516001045704E-07;-4,53448370099068E-07;100 nA
0;88,3143377770277;1,2158203125E-08;0,000119018554687503;2;160;4,54516001045704E-07;-4,53448370099068E-07;100 nA
0,050048828125;88,8148257757641;1,55242919921875E-08;0,050048828125;3;161;4,54019606113434E-07;-4,51937802135944E-07;100 nA
0,10009765625;89,3153137745005;1,5692138671875E-08;0,100067138671875;3;162;4,54019606113434E-07;-4,51937802135944E-07;100 nA
0,150146484375;89,8158017732369;1,578369140625E-08;0,150054931640625;3;163;4,54019606113434E-07;-4,51937802135944E-07;100 nA
0,2001953125;90,3162897719733;1,6949462890625E-08;0,199981689453125;3;164;4,54019606113434E-07;-4,51937802135944E-07;100 nA
0,250244140625;90,8167777707097;1,84051513671875E-08;0,250091552734375;3;165;4,54019606113434E-07;-4,51937802135944E-07;100 nA
0,30029296875;91,3172657694461;1,9989013671875E-08;0,300079345703125;3;166;4,54019606113434E-07;-4,51937802135944E-07;100 nA
0,350341796875;91,8177537681825;2,15667724609375E-08;0,35009765625;3;167;4,54019606113434E-07;-4,51937802135944E-07;100 nA
0,400390625;92,3182417669188;2,3321533203125E-08;0,400115966796875;3;168;4,54019606113434E-07;-4,51937802135944E-07;100 nA
0,450439453125;92,8187297656552;2,51953125E-08;0,4500732421875;3;169;4,54019606113434E-07;-4,51937802135944E-07;100 nA
0,50048828125;93,3192177643916;2,71087646484375E-08;0,500030517578125;3;170;4,54019606113434E-07;-4,51937802135944E-07;100 nA
0,550537109375;93,819705763128;2,9095458984375E-08;0,550048828125;3;171;4,54019606113434E-07;-4,51937802135944E-07;100 nA
0,6005859375;94,3201937618644;3,1097412109375E-08;0,60003662109375;3;172;4,54019606113434E-07;-4,51937802135944E-07;100 nA
0,650634765625;94,8206817606008;3,2830810546875E-08;0,649932861328125;3;173;4,54019606113434E-07;-4,51937802135944E-07;100 nA
0,70068359375;95,3211697593372;3,40789794921875E-08;0,699859619140625;3;174;4,54019606113434E-07;-4,51937802135944E-07;100 nA
0,750732421875;95,8216577580736;3,53302001953125E-08;0,749755859375;3;175;4,54019606113434E-07;-4,51937802135944E-07;100 nA
0,80078125;96,32214575681;3,61846923828125E-08;0,799560546875;3;176;4,54019606113434E-07;-4,51937802135944E-07;100 nA
0,850830078125;96,8226337555463;3,64349365234375E-08;0,84991455078125;3;177;4,54019606113434E-07;-4,51937802135944E-07;100 nA
0,90087890625;97,3231217542827;3,76007080078125E-08;0,899658203125;3;178;4,54019606113434E-07;-4,51937802135944E-07;100 nA
0,950927734375;97,8236097530191;3,955078125E-08;0,94940185546875;3;179;4,54019606113434E-07;-4,51937802135944E-07;100 nA
1,0009765625;98,3240977517555;4,18701171875E-08;0,99945068359375;3;180;4,54019606113434E-07;-4,51937802135944E-07;100 nA
0,950927734375;98,8245857504919;3,704833984375E-08;0,94970703125;3;181;4,54019606113434E-07;-4,51937802135944E-07;100 nA
0,90087890625;99,3250737492283;3,37646484375E-08;0,899658203125;3;182;4,54019606113434E-07;-4,51937802135944E-07;100 nA
0,850830078125;99,8255617479647;3,11309814453125E-08;0,84930419921875;3;183;4,54019606113434E-07;-4,51937802135944E-07;100 nA
0,80078125;100,326049746701;2,872314453125E-08;0,799560546875;3;184;4,54019606113434E-07;-4,51937802135944E-07;100 nA
0,750732421875;100,826537745437;2,65380859375E-08;0,749755859375;3;185;4,54019606113434E-07;-4,51937802135944E-07;100 nA
0,70068359375;101,327025744174;2,45269775390625E-08;0,69989013671875;3;186;4,54019606113434E-07;-4,51937802135944E-07;100 nA
0,650634765625;101,82751374291;2,247314453125E-08;0,649932861328125;3;187;4,54019606113434E-07;-4,51937802135944E-07;100 nA
0,6005859375;102,328001741647;2,05108642578125E-08;0,60003662109375;3;188;4,54019606113434E-07;-4,51937802135944E-07;100 nA
0,550537109375;102,828489740383;1,8585205078125E-08;0,550048828125;3;189;4,54019606113434E-07;-4,51937802135944E-07;100 nA
0,50048828125;103,328977739119;1,67327880859375E-08;0,50006103515625;3;190;4,54019606113434E-07;-4,51937802135944E-07;100 nA
0,450439453125;103,829465737856;1,48834228515625E-08;0,45001220703125;3;191;4,54019606113434E-07;-4,51937802135944E-07;100 nA
0,400390625;104,329953736592;1,30157470703125E-08;0,40008544921875;3;192;4,54019606113434E-07;-4,51937802135944E-07;100 nA
0,350341796875;104,830441735329;1,11175537109375E-08;0,35009765625;3;193;4,54019606113434E-07;-4,51937802135944E-07;100 nA
0,30029296875;105,330929734065;9,130859375E-09;0,300048828125;3;194;4,54019606113434E-07;-4,51937802135944E-07;100 nA
0,250244140625;105,831417732801;7,01904296875E-09;0,25006103515625;3;195;4,54019606113434E-07;-4,51937802135944E-07;100 nA
0,2001953125;106,331905731538;4,74853515625E-09;0,2000732421875;3;196;4,54019606113434E-07;-4,51937802135944E-07;100 nA
0,150146484375;106,832393730274;2,3590087890625E-09;0,150054931640625;3;197;4,54019606113434E-07;-4,51937802135944E-07;100 nA
0,10009765625;107,332881729011;-4,364013671875E-10;0,100128173828125;3;198;4,54019606113434E-07;-4,51937802135944E-07;100 nA
0,050048828125;107,833369727747;-4,91943359375E-09;0,050048828125;3;199;4,54019606113434E-07;-4,51937802135944E-07;100 nA
0;108,333857726483;-1,427001953125E-08;0,000100708007812506;3;200;4,54019606113434E-07;-4,51937802135944E-07;100 nA
-0,050048828125;108,83434572522;-1,36199951171875E-08;-0,049835205078125;3;201;4,54019606113434E-07;-4,51937802135944E-07;100 nA
-0,10009765625;109,334833723956;-1,304931640625E-08;-0,099700927734375;3;202;4,54019606113434E-07;-4,51937802135944E-07;100 nA
-0,150146484375;109,835321722692;-1,50543212890625E-08;-0,149566650390625;3;203;4,54019606113434E-07;-4,51937802135944E-07;100 nA
-0,2001953125;110,335809721429;-1,71844482421875E-08;-0,199432373046875;3;204;4,54019606113434E-07;-4,51937802135944E-07;100 nA
-0,250244140625;110,836297720165;-1,86309814453125E-08;-0,24932861328125;3;205;4,54019606113434E-07;-4,51937802135944E-07;100 nA
-0,30029296875;111,336785718902;-1,990966796875E-08;-0,299224853515625;3;206;4,54019606113434E-07;-4,51937802135944E-07;100 nA
-0,350341796875;111,837273717638;-2,1588134765625E-08;-0,34918212890625;3;207;4,54019606113434E-07;-4,51937802135944E-07;100 nA
-0,400390625;112,337761716374;-2,36358642578125E-08;-0,3990478515625;3;208;4,54019606113434E-07;-4,51937802135944E-07;100 nA
-0,450439453125;112,838249715111;-2,572021484375E-08;-0,448974609375;3;209;4,54019606113434E-07;-4,51937802135944E-07;100 nA
-0,50048828125;113,338737713847;-2,74261474609375E-08;-0,498809814453125;3;210;4,54019606113434E-07;-4,51937802135944E-07;100 nA
-0,550537109375;113,839225712584;-2,884521484375E-08;-0,548736572265625;3;211;4,54019606113434E-07;-4,51937802135944E-07;100 nA
-0,6005859375;114,33971371132;-3,0194091796875E-08;-0,5986328125;3;212;4,54019606113434E-07;-4,51937802135944E-07;100 nA
-0,650634765625;114,840201710056;-3,1854248046875E-08;-0,64849853515625;3;213;4,54019606113434E-07;-4,51937802135944E-07;100 nA
-0,70068359375;115,340689708793;-3,37066650390625E-08;-0,698516845703125;3;214;4,54019606113434E-07;-4,51937802135944E-07;100 nA
-0,750732421875;115,841177707529;-3,55255126953125E-08;-0,748504638671875;3;215;4,54019606113434E-07;-4,51937802135944E-07;100 nA
-0,80078125;116,341665706266;-3,758544921875E-08;-0,79833984375;3;216;4,54019606113434E-07;-4,51937802135944E-07;100 nA
-0,850830078125;116,842153705002;-3,95050048828125E-08;-0,8489990234375;3;217;4,54019606113434E-07;-4,51937802135944E-07;100 nA
-0,90087890625;117,342641703738;-4,1534423828125E-08;-0,89874267578125;3;218;4,54019606113434E-07;-4,51937802135944E-07;100 nA
-0,950927734375;117,843129702475;-4,35791015625E-08;-0,94818115234375;3;219;4,54019606113434E-07;-4,51937802135944E-07;100 nA
-1,0009765625;118,343617701211;-4,5745849609375E-08;-0,99884033203125;3;220;4,54019606113434E-07;-4,51937802135944E-07;100 nA
-0,950927734375;118,844105699947;-4,1595458984375E-08;-0,948486328125;3;221;4,54019606113434E-07;-4,51937802135944E-07;100 nA
-0,90087890625;119,344593698684;-3,800048828125E-08;-0,89874267578125;3;222;4,54019606113434E-07;-4,51937802135944E-07;100 nA
-0,850830078125;119,84508169742;-3,46588134765625E-08;-0,84869384765625;3;223;4,54019606113434E-07;-4,51937802135944E-07;100 nA
-0,80078125;120,345569696157;-3,14849853515625E-08;-0,7989501953125;3;224;4,54019606113434E-07;-4,51937802135944E-07;100 nA
-0,750732421875;120,846057694893;-2,85797119140625E-08;-0,748504638671875;3;225;4,54019606113434E-07;-4,51937802135944E-07;100 nA
-0,70068359375;121,346545693629;-2,58331298828125E-08;-0,698516845703125;3;226;4,54019606113434E-07;-4,51937802135944E-07;100 nA
-0,650634765625;121,847033692366;-2,3291015625E-08;-0,648468017578125;3;227;4,54019606113434E-07;-4,51937802135944E-07;100 nA
-0,6005859375;122,347521691102;-2,086181640625E-08;-0,5986328125;3;228;4,54019606113434E-07;-4,51937802135944E-07;100 nA
-0,550537109375;122,848009689839;-1,85028076171875E-08;-0,548736572265625;3;229;4,54019606113434E-07;-4,51937802135944E-07;100 nA
-0,50048828125;123,348497688575;-1,6033935546875E-08;-0,498809814453125;3;230;4,54019606113434E-07;-4,51937802135944E-07;100 nA
-0,450439453125;123,848985687311;-1,33697509765625E-08;-0,44891357421875;3;231;4,54019606113434E-07;-4,51937802135944E-07;100 nA
-0,400390625;124,349473686048;-1,06781005859375E-08;-0,3990478515625;3;232;4,54019606113434E-07;-4,51937802135944E-07;100 nA
-0,350341796875;124,849961684784;-8,10546875E-09;-0,34918212890625;3;233;4,54019606113434E-07;-4,51937802135944E-07;100 nA
-0,30029296875;125,350449683521;-5,584716796875E-09;-0,299285888671875;3;234;4,54019606113434E-07;-4,51937802135944E-07;100 nA
-0,250244140625;125,850937682257;-2,89306640625E-09;-0,2493896484375;3;235;4,54019606113434E-07;-4,51937802135944E-07;100 nA
-0,2001953125;126,351425680993;1,03759765625E-10;-0,199462890625;3;236;4,54019606113434E-07;-4,51937802135944E-07;100 nA
-0,150146484375;126,85191367973;3,18603515625E-09;-0,149566650390625;3;237;4,54019606113434E-07;-4,51937802135944E-07;100 nA
-0,10009765625;127,352401678466;6,298828125E-09;-0,099700927734375;3;238;4,54019606113434E-07;-4,51937802135944E-07;100 nA
-0,050048828125;127,852889677202;9,4085693359375E-09;-0,049835205078125;3;239;4,54019606113434E-07;-4,51937802135944E-07;100 nA
0;128,353377675939;1,2237548828125E-08;0,000128173828124994;3;240;4,54019606113434E-07;-4,51937802135944E-07;100 nA
0,050048828125;128,853865674675;1,56829833984375E-08;0,050048828125;4;241;4,53130677342415E-07;-4,51091639697552E-07;100 nA
0,10009765625;129,354353673412;1,56890869140625E-08;0,100067138671875;4;242;4,53130677342415E-07;-4,51091639697552E-07;100 nA
0,150146484375;129,854841672148;1,57623291015625E-08;0,149993896484375;4;243;4,53130677342415E-07;-4,51091639697552E-07;100 nA
0,2001953125;130,355329670884;1,6912841796875E-08;0,20001220703125;4;244;4,53130677342415E-07;-4,51091639697552E-07;100 nA
0,250244140625;130,855817669621;1,83380126953125E-08;0,250030517578125;4;245;4,53130677342415E-07;-4,51091639697552E-07;100 nA
0,30029296875;131,356305668357;1,9915771484375E-08;0,300018310546875;4;246;4,53130677342415E-07;-4,51091639697552E-07;100 nA
0,350341796875;131,856793667094;2,152099609375E-08;0,350006103515625;4;247;4,53130677342415E-07;-4,51091639697552E-07;100 nA
0,400390625;132,35728166583;2,32177734375E-08;0,4000244140625;4;248;4,53130677342415E-07;-4,51091639697552E-07;100 nA
0,450439453125;132,857769664566;2,5067138671875E-08;0,450042724609375;4;249;4,53130677342415E-07;-4,51091639697552E-07;100 nA
0,50048828125;133,358257663303;2,7032470703125E-08;0,499969482421875;4;250;4,53130677342415E-07;-4,51091639697552E-07;100 nA
0,550537109375;133,858745662039;2,904052734375E-08;0,550018310546875;4;251;4,53130677342415E-07;-4,51091639697552E-07;100 nA
0,6005859375;134,359233660776;3,09783935546875E-08;0,5999755859375;4;252;4,53130677342415E-07;-4,51091639697552E-07;100 nA
0,650634765625;134,859721659512;3,2763671875E-08;0,649932861328125;4;253;4,53130677342415E-07;-4,51091639697552E-07;100 nA
0,70068359375;135,360209658248;3,39385986328125E-08;0,699859619140625;4;254;4,53130677342415E-07;-4,51091639697552E-07;100 nA
0,750732421875;135,860697656985;3,5089111328125E-08;0,749786376953125;4;255;4,53130677342415E-07;-4,51091639697552E-07;100 nA
0,80078125;136,361185655721;3,58551025390625E-08;0,799560546875;4;256;4,53130677342415E-07;-4,51091639697552E-07;100 nA
0,850830078125;136,861673654457;3,624267578125E-08;0,84991455078125;4;257;4,53130677342415E-07;-4,51091639697552E-07;100 nA
0,90087890625;137,362161653194;3,7384033203125E-08;0,89935302734375;4;258;4,53130677342415E-07;-4,51091639697552E-07;100 nA
0,950927734375;137,86264965193;3,93035888671875E-08;0,94940185546875;4;259;4,53130677342415E-07;-4,51091639697552E-07;100 nA
1,0009765625;138,363137650667;4,1778564453125E-08;0,9991455078125;4;260;4,53130677342415E-07;-4,51091639697552E-07;100 nA
0,950927734375;138,863625649403;3,69537353515625E-08;0,94970703125;4;261;4,53130677342415E-07;-4,51091639697552E-07;100 nA
0,90087890625;139,364113648139;3,37371826171875E-08;0,899658203125;4;262;4,53130677342415E-07;-4,51091639697552E-07;100 nA
0,850830078125;139,864601646876;3,10272216796875E-08;0,84991455078125;4;263;4,53130677342415E-07;-4,51091639697552E-07;100 nA
0,80078125;140,365089645612;2,87322998046875E-08;0,8001708984375;4;264;4,53130677342415E-07;-4,51091639697552E-07;100 nA
0,750732421875;140,865577644349;2,655029296875E-08;0,749786376953125;4;265;4,53130677342415E-07;-4,51091639697552E-07;100 nA
0,70068359375;141,366065643085;2,454833984375E-08;0,699859619140625;4;266;4,53130677342415E-07;-4,51091639697552E-07;100 nA
0,650634765625;141,866553641821;2,2552490234375E-08;0,649993896484375;4;267;4,53130677342415E-07;-4,51091639697552E-07;100 nA
0,6005859375;142,367041640558;2,05322265625E-08;0,600006103515625;4;268;4,53130677342415E-07;-4,51091639697552E-07;100 nA
0,550537109375;142,867529639294;1,868896484375E-08;0,550048828125;4;269;4,53130677342415E-07;-4,51091639697552E-07;100 nA
0,50048828125;143,368017638031;1,678466796875E-08;0,5;4;270;4,53130677342415E-07;-4,51091639697552E-07;100 nA
0,450439453125;143,868505636767;1,4935302734375E-08;0,450042724609375;4;271;4,53130677342415E-07;-4,51091639697552E-07;100 nA
0,400390625;144,368993635503;1,30706787109375E-08;0,400054931640625;4;272;4,53130677342415E-07;-4,51091639697552E-07;100 nA
0,350341796875;144,86948163424;1,1212158203125E-08;0,35009765625;4;273;4,53130677342415E-07;-4,51091639697552E-07;100 nA
0,30029296875;145,369969632976;9,210205078125E-09;0,30010986328125;4;274;4,53130677342415E-07;-4,51091639697552E-07;100 nA
0,250244140625;145,870457631713;7,0831298828125E-09;0,250030517578125;4;275;4,53130677342415E-07;-4,51091639697552E-07;100 nA
0,2001953125;146,370945630449;4,8248291015625E-09;0,20001220703125;4;276;4,53130677342415E-07;-4,51091639697552E-07;100 nA
0,150146484375;146,871433629185;2,4322509765625E-09;0,150115966796875;4;277;4,53130677342415E-07;-4,51091639697552E-07;100 nA
0,10009765625;147,371921627922;-3,326416015625E-10;0,10015869140625;4;278;4,53130677342415E-07;-4,51091639697552E-07;100 nA
0,050048828125;147,872409626658;-4,7027587890625E-09;0,050018310546875;4;279;4,53130677342415E-07;-4,51091639697552E-07;100 nA
0;148,372897625394;-1,40411376953125E-08;9,46044921874972E-05;4;280;4,53130677342415E-07;-4,51091639697552E-07;100 nA
-0,050048828125;148,873385624131;-1,38427734375E-08;-0,0498046875;4;281;4,53130677342415E-07;-4,51091639697552E-07;100 nA
-0,10009765625;149,373873622867;-1,3018798828125E-08;-0,099700927734375;4;282;4,53130677342415E-07;-4,51091639697552E-07;100 nA
-0,150146484375;149,874361621604;-1,500244140625E-08;-0,149566650390625;4;283;4,53130677342415E-07;-4,51091639697552E-07;100 nA
-0,2001953125;150,37484962034;-1,70257568359375E-08;-0,199432373046875;4;284;4,53130677342415E-07;-4,51091639697552E-07;100 nA
-0,250244140625;150,875337619076;-1,84539794921875E-08;-0,24932861328125;4;285;4,53130677342415E-07;-4,51091639697552E-07;100 nA
-0,30029296875;151,375825617813;-1,97723388671875E-08;-0,299224853515625;4;286;4,53130677342415E-07;-4,51091639697552E-07;100 nA
-0,350341796875;151,876313616549;-2,14691162109375E-08;-0,34918212890625;4;287;4,53130677342415E-07;-4,51091639697552E-07;100 nA
-0,400390625;152,376801615286;-2,35321044921875E-08;-0,3990478515625;4;288;4,53130677342415E-07;-4,51091639697552E-07;100 nA
-0,450439453125;152,877289614022;-2,5634765625E-08;-0,4488525390625;4;289;4,53130677342415E-07;-4,51091639697552E-07;100 nA
-0,50048828125;153,377777612758;-2,7325439453125E-08;-0,498779296875;4;290;4,53130677342415E-07;-4,51091639697552E-07;100 nA
-0,550537109375;153,878265611495;-2,87353515625E-08;-0,5487060546875;4;291;4,53130677342415E-07;-4,51091639697552E-07;100 nA
-0,6005859375;154,378753610231;-3,0084228515625E-08;-0,598602294921875;4;292;4,53130677342415E-07;-4,51091639697552E-07;100 nA
-0,650634765625;154,879241608968;-3,17169189453125E-08;-0,64849853515625;4;293;4,53130677342415E-07;-4,51091639697552E-07;100 nA
-0,70068359375;155,379729607704;-3,35693359375E-08;-0,698486328125;4;294;4,53130677342415E-07;-4,51091639697552E-07;100 nA
-0,750732421875;155,88021760644;-3,55255126953125E-08;-0,74847412109375;4;295;4,53130677342415E-07;-4,51091639697552E-07;100 nA
-0,80078125;156,380705605177;-3,75213623046875E-08;-0,79864501953125;4;296;4,53130677342415E-07;-4,51091639697552E-07;100 nA
-0,850830078125;156,881193603913;-3,94134521484375E-08;-0,848388671875;4;297;4,53130677342415E-07;-4,51091639697552E-07;100 nA
-0,90087890625;157,381681602649;-4,1473388671875E-08;-0,89874267578125;4;298;4,53130677342415E-07;-4,51091639697552E-07;100 nA
-0,950927734375;157,882169601386;-4,35791015625E-08;-0,94940185546875;4;299;4,53130677342415E-07;-4,51091639697552E-07;100 nA
-1,0009765625;158,382657600122;-4,5654296875E-08;-0,99853515625;4;300;4,53130677342415E-07;-4,51091639697552E-07;100 nA
-0,950927734375;158,883145598859;-4,156494140625E-08;-0,948486328125;4;301;4,53130677342415E-07;-4,51091639697552E-07;100 nA
-0,90087890625;159,383633597595;-3,797607421875E-08;-0,89874267578125;4;302;4,53130677342415E-07;-4,51091639697552E-07;100 nA
-0,850830078125;159,884121596331;-3,4613037109375E-08;-0,8489990234375;4;303;4,53130677342415E-07;-4,51091639697552E-07;100 nA
-0,80078125;160,384609595068;-3,1500244140625E-08;-0,79833984375;4;304;4,53130677342415E-07;-4,51091639697552E-07;100 nA
-0,750732421875;160,885097593804;-2,8558349609375E-08;-0,748504638671875;4;305;4,53130677342415E-07;-4,51091639697552E-07;100 nA
-0,70068359375;161,385585592541;-2,581787109375E-08;-0,698516845703125;4;306;4,53130677342415E-07;-4,51091639697552E-07;100 nA
-0,650634765625;161,886073591277;-2,330322265625E-08;-0,648529052734375;4;307;4,53130677342415E-07;-4,51091639697552E-07;100 nA
-0,6005859375;162,386561590013;-2,08526611328125E-08;-0,5986328125;4;308;4,53130677342415E-07;-4,51091639697552E-07;100 nA
-0,550537109375;162,88704958875;-1,85577392578125E-08;-0,54876708984375;4;309;4,53130677342415E-07;-4,51091639697552E-07;100 nA
-0,50048828125;163,387537587486;-1,60980224609375E-08;-0,498809814453125;4;310;4,53130677342415E-07;-4,51091639697552E-07;100 nA
-0,450439453125;163,888025586223;-1,34674072265625E-08;-0,448944091796875;4;311;4,53130677342415E-07;-4,51091639697552E-07;100 nA
-0,400390625;164,388513584959;-1,07452392578125E-08;-0,3990478515625;4;312;4,53130677342415E-07;-4,51091639697552E-07;100 nA
-0,350341796875;164,889001583695;-8,1787109375E-09;-0,34918212890625;4;313;4,53130677342415E-07;-4,51091639697552E-07;100 nA
-0,30029296875;165,389489582432;-5,670166015625E-09;-0,299224853515625;4;314;4,53130677342415E-07;-4,51091639697552E-07;100 nA
-0,250244140625;165,889977581168;-2,9632568359375E-09;-0,24932861328125;4;315;4,53130677342415E-07;-4,51091639697552E-07;100 nA
-0,2001953125;166,390465579904;-9,1552734375E-12;-0,19940185546875;4;316;4,53130677342415E-07;-4,51091639697552E-07;100 nA
-0,150146484375;166,890953578641;3,11279296875E-09;-0,14959716796875;4;317;4,53130677342415E-07;-4,51091639697552E-07;100 nA
-0,10009765625;167,391441577377;6,26220703125E-09;-0,099639892578125;4;318;4,53130677342415E-07;-4,51091639697552E-07;100 nA
-0,050048828125;167,891929576114;9,38720703125E-09;-0,0498046875;4;319;4,53130677342415E-07;-4,51091639697552E-07;100 nA
0;168,39241757485;1,2225341796875E-08;0,000119018554687503;4;320;4,53130677342415E-07;-4,51091639697552E-07;100 nA
0,050048828125;168,892905573586;1,57379150390625E-08;0,050048828125;5;321;4,5335978269577E-07;-4,51331436634064E-07;100 nA
0,10009765625;169,393393572323;1,5631103515625E-08;0,10009765625;5;322;4,5335978269577E-07;-4,51331436634064E-07;100 nA
0,150146484375;169,893881571059;1,57562255859375E-08;0,1500244140625;5;323;4,5335978269577E-07;-4,51331436634064E-07;100 nA
0,2001953125;170,394369569796;1,68548583984375E-08;0,20001220703125;5;324;4,5335978269577E-07;-4,51331436634064E-07;100 nA
0,250244140625;170,894857568532;1,8341064453125E-08;0,25006103515625;5;325;4,5335978269577E-07;-4,51331436634064E-07;100 nA
0,30029296875;171,395345567268;1,99066162109375E-08;0,300048828125;5;326;4,5335978269577E-07;-4,51331436634064E-07;100 nA
0,350341796875;171,895833566005;2,15179443359375E-08;0,35009765625;5;327;4,5335978269577E-07;-4,51331436634064E-07;100 nA
0,400390625;172,396321564741;2,32208251953125E-08;0,4000244140625;5;328;4,5335978269577E-07;-4,51331436634064E-07;100 nA
0,450439453125;172,896809563478;2,50885009765625E-08;0,45001220703125;5;329;4,5335978269577E-07;-4,51331436634064E-07;100 nA
0,50048828125;173,397297562214;2,7044677734375E-08;0,500030517578125;5;330;4,5335978269577E-07;-4,51331436634064E-07;100 nA
0,550537109375;173,89778556095;2,904052734375E-08;0,550018310546875;5;331;4,5335978269577E-07;-4,51331436634064E-07;100 nA
0,6005859375;174,398273559687;3,101806640625E-08;0,5999755859375;5;332;4,5335978269577E-07;-4,51331436634064E-07;100 nA
0,650634765625;174,898761558423;3,27911376953125E-08;0,64996337890625;5;333;4,5335978269577E-07;-4,51331436634064E-07;100 nA
0,70068359375;175,399249557159;3,39324951171875E-08;0,699798583984375;5;334;4,5335978269577E-07;-4,51331436634064E-07;100 nA
0,750732421875;175,899737555896;3,51806640625E-08;0,749725341796875;5;335;4,5335978269577E-07;-4,51331436634064E-07;100 nA
0,80078125;176,400225554632;3,58673095703125E-08;0,79986572265625;5;336;4,5335978269577E-07;-4,51331436634064E-07;100 nA
0,850830078125;176,900713553369;3,61297607421875E-08;0,849609375;5;337;4,5335978269577E-07;-4,51331436634064E-07;100 nA
0,90087890625;177,401201552105;3,73687744140625E-08;0,899658203125;5;338;4,5335978269577E-07;-4,51331436634064E-07;100 nA
0,950927734375;177,901689550841;3,934326171875E-08;0,9503173828125;5;339;4,5335978269577E-07;-4,51331436634064E-07;100 nA
1,0009765625;178,402177549578;4,180908203125E-08;0,999755859375;5;340;4,5335978269577E-07;-4,51331436634064E-07;100 nA
0,950927734375;178,902665548314;3,70086669921875E-08;0,95001220703125;5;341;4,5335978269577E-07;-4,51331436634064E-07;100 nA
0,90087890625;179,403153547051;3,37554931640625E-08;0,899658203125;5;342;4,5335978269577E-07;-4,51331436634064E-07;100 nA
0,850830078125;179,903641545787;3,1134033203125E-08;0,849609375;5;343;4,5335978269577E-07;-4,51331436634064E-07;100 nA
0,80078125;180,404129544523;2,8729248046875E-08;0,799560546875;5;344;4,5335978269577E-07;-4,51331436634064E-07;100 nA
0,750732421875;180,90461754326;2,6617431640625E-08;0,74981689453125;5;345;4,5335978269577E-07;-4,51331436634064E-07;100 nA
0,70068359375;181,405105541996;2,4578857421875E-08;0,6998291015625;5;346;4,5335978269577E-07;-4,51331436634064E-07;100 nA
0,650634765625;181,905593540733;2,254638671875E-08;0,649993896484375;5;347;4,5335978269577E-07;-4,51331436634064E-07;100 nA
0,6005859375;182,406081539469;2,052001953125E-08;0,60003662109375;5;348;4,5335978269577E-07;-4,51331436634064E-07;100 nA
0,550537109375;182,906569538205;1,86279296875E-08;0,550048828125;5;349;4,5335978269577E-07;-4,51331436634064E-07;100 nA
0,50048828125;183,407057536942;1,68121337890625E-08;0,5;5;350;4,5335978269577E-07;-4,51331436634064E-07;100 nA
0,450439453125;183,907545535678;1,4910888671875E-08;0,45001220703125;5;351;4,5335978269577E-07;-4,51331436634064E-07;100 nA
0,400390625;184,408033534414;1,31500244140625E-08;0,400054931640625;5;352;4,5335978269577E-07;-4,51331436634064E-07;100 nA
0,350341796875;184,908521533151;1,1212158203125E-08;0,35009765625;5;353;4,5335978269577E-07;-4,51331436634064E-07;100 nA
0,30029296875;185,409009531887;9,1766357421875E-09;0,300048828125;5;354;4,5335978269577E-07;-4,51331436634064E-07;100 nA
0,250244140625;185,909497530624;7,0831298828125E-09;0,25006103515625;5;355;4,5335978269577E-07;-4,51331436634064E-07;100 nA
0,2001953125;186,40998552936;4,876708984375E-09;0,2000732421875;5;356;4,5335978269577E-07;-4,51331436634064E-07;100 nA
0,150146484375;186,910473528096;2,6947021484375E-09;0,150054931640625;5;357;4,5335978269577E-07;-4,51331436634064E-07;100 nA
0,10009765625;187,410961526833;-1,861572265625E-10;0,100128173828125;5;358;4,5335978269577E-07;-4,51331436634064E-07;100 nA
0,050048828125;187,911449525569;-4,6173095703125E-09;0,050079345703125;5;359;4,5335978269577E-07;-4,51331436634064E-07;100 nA
0;188,411937524306;-1,39007568359375E-08;0,000100708007812506;5;360;4,5335978269577E-07;-4,51331436634064E-07;100 nA
-0,050048828125;188,912425523042;-1,402587890625E-08;-0,0498046875;5;361;4,5335978269577E-07;-4,51331436634064E-07;100 nA
-0,10009765625;189,412913521778;-1,3092041015625E-08;-0,099639892578125;5;362;4,5335978269577E-07;-4,51331436634064E-07;100 nA
-0,150146484375;189,913401520515;-1,50665283203125E-08;-0,149566650390625;5;363;4,5335978269577E-07;-4,51331436634064E-07;100 nA
-0,2001953125;190,413889519251;-1,707763671875E-08;-0,199432373046875;5;364;4,5335978269577E-07;-4,51331436634064E-07;100 nA
-0,250244140625;190,914377517988;-1,842041015625E-08;-0,24932861328125;5;365;4,5335978269577E-07;-4,51331436634064E-07;100 nA
-0,30029296875;191,414865516724;-1,97601318359375E-08;-0,29925537109375;5;366;4,5335978269577E-07;-4,51331436634064E-07;100 nA
-0,350341796875;191,91535351546;-2,149658203125E-08;-0,349151611328125;5;367;4,5335978269577E-07;-4,51331436634064E-07;100 nA
-0,400390625;192,415841514197;-2,364501953125E-08;-0,399017333984375;5;368;4,5335978269577E-07;-4,51331436634064E-07;100 nA
-0,450439453125;192,916329512933;-2,56744384765625E-08;-0,44891357421875;5;369;4,5335978269577E-07;-4,51331436634064E-07;100 nA
-0,50048828125;193,416817511669;-2,7349853515625E-08;-0,49884033203125;5;370;4,5335978269577E-07;-4,51331436634064E-07;100 nA
-0,550537109375;193,917305510406;-2,87109375E-08;-0,548675537109375;5;371;4,5335978269577E-07;-4,51331436634064E-07;100 nA
-0,6005859375;194,417793509142;-3,01971435546875E-08;-0,598602294921875;5;372;4,5335978269577E-07;-4,51331436634064E-07;100 nA
-0,650634765625;194,918281507879;-3,18603515625E-08;-0,64849853515625;5;373;4,5335978269577E-07;-4,51331436634064E-07;100 nA
-0,70068359375;195,418769506615;-3,3660888671875E-08;-0,69854736328125;5;374;4,5335978269577E-07;-4,51331436634064E-07;100 nA
-0,750732421875;195,919257505351;-3,56201171875E-08;-0,748565673828125;5;375;4,5335978269577E-07;-4,51331436634064E-07;100 nA
-0,80078125;196,419745504088;-3,75762939453125E-08;-0,79864501953125;5;376;4,5335978269577E-07;-4,51331436634064E-07;100 nA
-0,850830078125;196,920233502824;-3,9544677734375E-08;-0,8489990234375;5;377;4,5335978269577E-07;-4,51331436634064E-07;100 nA
-0,90087890625;197,420721501561;-4,156494140625E-08;-0,8990478515625;5;378;4,5335978269577E-07;-4,51331436634064E-07;100 nA
-0,950927734375;197,921209500297;-4,3609619140625E-08;-0,94879150390625;5;379;4,5335978269577E-07;-4,51331436634064E-07;100 nA
-1,0009765625;198,421697499033;-4,5745849609375E-08;-0,99853515625;5;380;4,5335978269577E-07;-4,51331436634064E-07;100 nA
-0,950927734375;198,92218549777;-4,156494140625E-08;-0,94940185546875;5;381;4,5335978269577E-07;-4,51331436634064E-07;100 nA
-0,90087890625;199,422673496506;-3,79669189453125E-08;-0,89874267578125;5;382;4,5335978269577E-07;-4,51331436634064E-07;100 nA
-0,850830078125;199,923161495243;-3,45245361328125E-08;-0,84869384765625;5;383;4,5335978269577E-07;-4,51331436634064E-07;100 nA
-0,80078125;200,423649493979;-3,14208984375E-08;-0,7989501953125;5;384;4,5335978269577E-07;-4,51331436634064E-07;100 nA
-0,750732421875;200,924137492715;-2,84332275390625E-08;-0,74853515625;5;385;4,5335978269577E-07;-4,51331436634064E-07;100 nA
-0,70068359375;201,424625491452;-2,5732421875E-08;-0,698516845703125;5;386;4,5335978269577E-07;-4,51331436634064E-07;100 nA
-0,650634765625;201,925113490188;-2,32147216796875E-08;-0,64849853515625;5;387;4,5335978269577E-07;-4,51331436634064E-07;100 nA
-0,6005859375;202,425601488924;-2,08343505859375E-08;-0,5986328125;5;388;4,5335978269577E-07;-4,51331436634064E-07;100 nA
-0,550537109375;202,926089487661;-1,85028076171875E-08;-0,54864501953125;5;389;4,5335978269577E-07;-4,51331436634064E-07;100 nA
-0,50048828125;203,426577486397;-1,611328125E-08;-0,498809814453125;5;390;4,5335978269577E-07;-4,51331436634064E-07;100 nA
-0,450439453125;203,927065485134;-1,3507080078125E-08;-0,44891357421875;5;391;4,5335978269577E-07;-4,51331436634064E-07;100 nA
-0,400390625;204,42755348387;-1,0791015625E-08;-0,3990478515625;5;392;4,5335978269577E-07;-4,51331436634064E-07;100 nA
-0,350341796875;204,928041482606;-8,197021484375E-09;-0,349151611328125;5;393;4,5335978269577E-07;-4,51331436634064E-07;100 nA
-0,30029296875;205,428529481343;-5,5267333984375E-09;-0,299285888671875;5;394;4,5335978269577E-07;-4,51331436634064E-07;100 nA
-0,250244140625;205,929017480079;-3,0487060546875E-09;-0,249359130859375;5;395;4,5335978269577E-07;-4,51331436634064E-07;100 nA
-0,2001953125;206,429505478816;5,18798828125E-11;-0,199432373046875;5;396;4,5335978269577E-07;-4,51331436634064E-07;100 nA
-0,150146484375;206,929993477552;3,06396484375E-09;-0,149566650390625;5;397;4,5335978269577E-07;-4,51331436634064E-07;100 nA
-0,10009765625;207,430481476288;6,182861328125E-09;-0,099700927734375;5;398;4,5335978269577E-07;-4,51331436634064E-07;100 nA
-0,050048828125;207,930969475025;9,332275390625E-09;-0,0498046875;5;399;4,5335978269577E-07;-4,51331436634064E-07;100 nA
0;208,431457473761;1,2188720703125E-08;0,000112915039062494;5;400;4,5335978269577E-07;-4,51331436634064E-07;100 nA
0,050048828125;208,931945472498;1,5753173828125E-08;0,050048828125;6;401;4,53003905713558E-07;-4,51357401907444E-07;100 nA
0,10009765625;209,432433471234;1,55517578125E-08;0,100067138671875;6;402;4,53003905713558E-07;-4,51357401907444E-07;100 nA
0,150146484375;209,93292146997;1,568603515625E-08;0,14996337890625;6;403;4,53003905713558E-07;-4,51357401907444E-07;100 nA
0,2001953125;210,433409468707;1,6790771484375E-08;0,2000732421875;6;404;4,53003905713558E-07;-4,51357401907444E-07;100 nA
0,250244140625;210,933897467443;1,82586669921875E-08;0,250030517578125;6;405;4,53003905713558E-07;-4,51357401907444E-07;100 nA
0,30029296875;211,434385466179;1,9854736328125E-08;0,29998779296875;6;406;4,53003905713558E-07;-4,51357401907444E-07;100 nA
0,350341796875;211,934873464916;2,14263916015625E-08;0,350006103515625;6;407;4,53003905713558E-07;-4,51357401907444E-07;100 nA
0,400390625;212,435361463652;2,31536865234375E-08;0,4000244140625;6;408;4,53003905713558E-07;-4,51357401907444E-07;100 nA
0,450439453125;212,935849462389;2,50213623046875E-08;0,450042724609375;6;409;4,53003905713558E-07;-4,51357401907444E-07;100 nA
0,50048828125;213,436337461125;2,69775390625E-08;0,50006103515625;6;410;4,53003905713558E-07;-4,51357401907444E-07;100 nA
0,550537109375;213,936825459861;2,8948974609375E-08;0,550018310546875;6;411;4,53003905713558E-07;-4,51357401907444E-07;100 nA
0,6005859375;214,437313458598;3,09539794921875E-08;0,60003662109375;6;412;4,53003905713558E-07;-4,51357401907444E-07;100 nA
0,650634765625;214,937801457334;3,2757568359375E-08;0,64996337890625;6;413;4,53003905713558E-07;-4,51357401907444E-07;100 nA
0,70068359375;215,438289456071;3,3929443359375E-08;0,699859619140625;6;414;4,53003905713558E-07;-4,51357401907444E-07;100 nA
0,750732421875;215,938777454807;3,5235595703125E-08;0,74969482421875;6;415;4,53003905713558E-07;-4,51357401907444E-07;100 nA
0,80078125;216,439265453543;3,5882568359375E-08;0,8001708984375;6;416;4,53003905713558E-07;-4,51357401907444E-07;100 nA
0,850830078125;216,93975345228;3,6126708984375E-08;0,849609375;6;417;4,53003905713558E-07;-4,51357401907444E-07;100 nA
0,90087890625;217,440241451016;3,73870849609375E-08;0,89935302734375;6;418;4,53003905713558E-07;-4,51357401907444E-07;100 nA
0,950927734375;217,940729449753;3,9312744140625E-08;0,94940185546875;6;419;4,53003905713558E-07;-4,51357401907444E-07;100 nA
1,0009765625;218,441217448489;4,1748046875E-08;0,9991455078125;6;420;4,53003905713558E-07;-4,51357401907444E-07;100 nA
0,950927734375;218,941705447225;3,70452880859375E-08;0,94940185546875;6;421;4,53003905713558E-07;-4,51357401907444E-07;100 nA
0,90087890625;219,442193445962;3,38287353515625E-08;0,89935302734375;6;422;4,53003905713558E-07;-4,51357401907444E-07;100 nA
0,850830078125;219,942681444698;3,114013671875E-08;0,84991455078125;6;423;4,53003905713558E-07;-4,51357401907444E-07;100 nA
0,80078125;220,443169443435;2,8778076171875E-08;0,799560546875;6;424;4,53003905713558E-07;-4,51357401907444E-07;100 nA
0,750732421875;220,943657442171;2,662353515625E-08;0,749755859375;6;425;4,53003905713558E-07;-4,51357401907444E-07;100 nA
0,70068359375;221,444145440907;2,46337890625E-08;0,699920654296875;6;426;4,53003905713558E-07;-4,51357401907444E-07;100 nA
0,650634765625;221,944633439644;2,25799560546875E-08;0,649932861328125;6;427;4,53003905713558E-07;-4,51357401907444E-07;100 nA
0,6005859375;222,44512143838;2,05841064453125E-08;0,600067138671875;6;428;4,53003905713558E-07;-4,51357401907444E-07;100 nA
0,550537109375;222,945609437116;1,8707275390625E-08;0,550079345703125;6;429;4,53003905713558E-07;-4,51357401907444E-07;100 nA
0,50048828125;223,446097435853;1,683349609375E-08;0,50006103515625;6;430;4,53003905713558E-07;-4,51357401907444E-07;100 nA
0,450439453125;223,946585434589;1,49871826171875E-08;0,45001220703125;6;431;4,53003905713558E-07;-4,51357401907444E-07;100 nA
0,400390625;224,447073433326;1,31256103515625E-08;0,40008544921875;6;432;4,53003905713558E-07;-4,51357401907444E-07;100 nA
0,350341796875;224,947561432062;1,11968994140625E-08;0,35009765625;6;433;4,53003905713558E-07;-4,51357401907444E-07;100 nA
0,30029296875;225,448049430798;9,197998046875E-09;0,29998779296875;6;434;4,53003905713558E-07;-4,51357401907444E-07;100 nA
0,250244140625;225,948537429535;7,11669921875E-09;0,25006103515625;6;435;4,53003905713558E-07;-4,51357401907444E-07;100 nA
0,2001953125;226,449025428271;4,87060546875E-09;0,20001220703125;6;436;4,53003905713558E-07;-4,51357401907444E-07;100 nA
0,150146484375;226,949513427008;2,4749755859375E-09;0,1500244140625;6;437;4,53003905713558E-07;-4,51357401907444E-07;100 nA
0,10009765625;227,450001425744;-2,655029296875E-10;0,10009765625;6;438;4,53003905713558E-07;-4,51357401907444E-07;100 nA
0,050048828125;227,95048942448;-4,6051025390625E-09;0,050079345703125;6;439;4,53003905713558E-07;-4,51357401907444E-07;100 nA
0;228,450977423217;-1,3824462890625E-08;0,000103759765625003;6;440;4,53003905713558E-07;-4,51357401907444E-07;100 nA
-0,050048828125;228,951465421953;-1,42822265625E-08;-0,04986572265625;6;441;4,53003905713558E-07;-4,51357401907444E-07;100 nA
-0,10009765625;229,45195342069;-1,31988525390625E-08;-0,09967041015625;6;442;4,53003905713558E-07;-4,51357401907444E-07;100 nA
-0,150146484375;229,952441419426;-1,5155029296875E-08;-0,149444580078125;6;443;4,53003905713558E-07;-4,51357401907444E-07;100 nA
-0,2001953125;230,452929418162;-1,71142578125E-08;-0,199371337890625;6;444;4,53003905713558E-07;-4,51357401907444E-07;100 nA
-0,250244140625;230,953417416899;-1,83929443359375E-08;-0,24932861328125;6;445;4,53003905713558E-07;-4,51357401907444E-07;100 nA
-0,30029296875;231,453905415635;-1,973876953125E-08;-0,299224853515625;6;446;4,53003905713558E-07;-4,51357401907444E-07;100 nA
-0,350341796875;231,954393414371;-2,14752197265625E-08;-0,349151611328125;6;447;4,53003905713558E-07;-4,51357401907444E-07;100 nA
-0,400390625;232,454881413108;-2,35687255859375E-08;-0,3990478515625;6;448;4,53003905713558E-07;-4,51357401907444E-07;100 nA
-0,450439453125;232,955369411844;-2,5579833984375E-08;-0,448974609375;6;449;4,53003905713558E-07;-4,51357401907444E-07;100 nA
-0,50048828125;233,455857410581;-2,72857666015625E-08;-0,498748779296875;6;450;4,53003905713558E-07;-4,51357401907444E-07;100 nA
-0,550537109375;233,956345409317;-2,8662109375E-08;-0,5487060546875;6;451;4,53003905713558E-07;-4,51357401907444E-07;100 nA
-0,6005859375;234,456833408053;-3,0078125E-08;-0,598602294921875;6;452;4,53003905713558E-07;-4,51357401907444E-07;100 nA
-0,650634765625;234,95732140679;-3,1768798828125E-08;-0,648468017578125;6;453;4,53003905713558E-07;-4,51357401907444E-07;100 nA
-0,70068359375;235,457809405526;-3,36395263671875E-08;-0,69854736328125;6;454;4,53003905713558E-07;-4,51357401907444E-07;100 nA
-0,750732421875;235,958297404263;-3,5498046875E-08;-0,74853515625;6;455;4,53003905713558E-07;-4,51357401907444E-07;100 nA
-0,80078125;236,458785402999;-3,7469482421875E-08;-0,79864501953125;6;456;4,53003905713558E-07;-4,51357401907444E-07;100 nA
-0,850830078125;236,959273401735;-3,94927978515625E-08;-0,84869384765625;6;457;4,53003905713558E-07;-4,51357401907444E-07;100 nA
-0,90087890625;237,459761400472;-4,150390625E-08;-0,8984375;6;458;4,53003905713558E-07;-4,51357401907444E-07;100 nA
-0,950927734375;237,960249399208;-4,35791015625E-08;-0,94818115234375;6;459;4,53003905713558E-07;-4,51357401907444E-07;100 nA
-1,0009765625;238,460737397945;-4,5745849609375E-08;-0,9991455078125;6;460;4,53003905713558E-07;-4,51357401907444E-07;100 nA
-0,950927734375;238,961225396681;-4,1473388671875E-08;-0,9490966796875;6;461;4,53003905713558E-07;-4,51357401907444E-07;100 nA
-0,90087890625;239,461713395417;-3,78753662109375E-08;-0,89874267578125;6;462;4,53003905713558E-07;-4,51357401907444E-07;100 nA
-0,850830078125;239,962201394154;-3,44696044921875E-08;-0,84869384765625;6;463;4,53003905713558E-07;-4,51357401907444E-07;100 nA
-0,80078125;240,46268939289;-3,133544921875E-08;-0,79833984375;6;464;4,53003905713558E-07;-4,51357401907444E-07;100 nA
-0,750732421875;240,963177391626;-2,83660888671875E-08;-0,748565673828125;6;465;4,53003905713558E-07;-4,51357401907444E-07;100 nA
-0,70068359375;241,463665390363;-2,5714111328125E-08;-0,698486328125;6;466;4,53003905713558E-07;-4,51357401907444E-07;100 nA
-0,650634765625;241,964153389099;-2,3211669921875E-08;-0,6485595703125;6;467;4,53003905713558E-07;-4,51357401907444E-07;100 nA
-0,6005859375;242,464641387836;-2,08526611328125E-08;-0,598541259765625;6;468;4,53003905713558E-07;-4,51357401907444E-07;100 nA
-0,550537109375;242,965129386572;-1,8572998046875E-08;-0,548736572265625;6;469;4,53003905713558E-07;-4,51357401907444E-07;100 nA
-0,50048828125;243,465617385308;-1,62384033203125E-08;-0,49884033203125;6;470;4,53003905713558E-07;-4,51357401907444E-07;100 nA
-0,450439453125;243,966105384045;-1,3629150390625E-08;-0,448944091796875;6;471;4,53003905713558E-07;-4,51357401907444E-07;100 nA
-0,400390625;244,466593382781;-1,087646484375E-08;-0,39910888671875;6;472;4,53003905713558E-07;-4,51357401907444E-07;100 nA
-0,350341796875;244,967081381518;-8,3221435546875E-09;-0,34918212890625;6;473;4,53003905713558E-07;-4,51357401907444E-07;100 nA
-0,30029296875;245,467569380254;-5,7861328125E-09;-0,299224853515625;6;474;4,53003905713558E-07;-4,51357401907444E-07;100 nA
-0,250244140625;245,96805737899;-3,08837890625E-09;-0,249359130859375;6;475;4,53003905713558E-07;-4,51357401907444E-07;100 nA
-0,2001953125;246,468545377727;-9,765625E-11;-0,199462890625;6;476;4,53003905713558E-07;-4,51357401907444E-07;100 nA
-0,150146484375;246,969033376463;2,9632568359375E-09;-0,149566650390625;6;477;4,53003905713558E-07;-4,51357401907444E-07;100 nA
-0,10009765625;247,4695213752;6,18896484375E-09;-0,0997314453125;6;478;4,53003905713558E-07;-4,51357401907444E-07;100 nA
-0,050048828125;247,970009373936;9,27734375E-09;-0,049835205078125;6;479;4,53003905713558E-07;-4,51357401907444E-07;100 nA
0;248,470497372672;1,2213134765625E-08;0,0001220703125;6;480;4,53003905713558E-07;-4,51357401907444E-07;100 nA
0,050048828125;248,970985371409;1,58203125E-08;0,050048828125;7;481;4,536622017622E-07;-4,50980141758919E-07;100 nA
0,10009765625;249,471473370145;1,5509033203125E-08;0,10009765625;7;482;4,536622017622E-07;-4,50980141758919E-07;100 nA
0,150146484375;249,971961368881;1,56890869140625E-08;0,1500244140625;7;483;4,536622017622E-07;-4,50980141758919E-07;100 nA
0,2001953125;250,472449367618;1,68212890625E-08;0,2000732421875;7;484;4,536622017622E-07;-4,50980141758919E-07;100 nA
0,250244140625;250,972937366354;1,832275390625E-08;0,250030517578125;7;485;4,536622017622E-07;-4,50980141758919E-07;100 nA
0,30029296875;251,473425365091;1,9873046875E-08;0,300018310546875;7;486;4,536622017622E-07;-4,50980141758919E-07;100 nA
0,350341796875;251,973913363827;2,14813232421875E-08;0,35009765625;7;487;4,536622017622E-07;-4,50980141758919E-07;100 nA
0,400390625;252,474401362563;2,32452392578125E-08;0,399993896484375;7;488;4,536622017622E-07;-4,50980141758919E-07;100 nA
0,450439453125;252,9748893613;2,50885009765625E-08;0,450042724609375;7;489;4,536622017622E-07;-4,50980141758919E-07;100 nA
0,50048828125;253,475377360036;2,70233154296875E-08;0,5;7;490;4,536622017622E-07;-4,50980141758919E-07;100 nA
0,550537109375;253,975865358773;2,9058837890625E-08;0,54998779296875;7;491;4,536622017622E-07;-4,50980141758919E-07;100 nA
0,6005859375;254,476353357509;3,10150146484375E-08;0,600006103515625;7;492;4,536622017622E-07;-4,50980141758919E-07;100 nA
0,650634765625;254,976841356245;3,27301025390625E-08;0,64990234375;7;493;4,536622017622E-07;-4,50980141758919E-07;100 nA
0,70068359375;255,477329354982;3,3917236328125E-08;0,6998291015625;7;494;4,536622017622E-07;-4,50980141758919E-07;100 nA
0,750732421875;255,977817353718;3,515625E-08;0,749755859375;7;495;4,536622017622E-07;-4,50980141758919E-07;100 nA
0,80078125;256,478305352455;3,5894775390625E-08;0,79925537109375;7;496;4,536622017622E-07;-4,50980141758919E-07;100 nA
0,850830078125;256,978793351191;3,61328125E-08;0,84930419921875;7;497;4,536622017622E-07;-4,50980141758919E-07;100 nA
0,90087890625;257,479281349927;3,73382568359375E-08;0,89935302734375;7;498;4,536622017622E-07;-4,50980141758919E-07;100 nA
0,950927734375;257,979769348664;3,93585205078125E-08;0,94940185546875;7;499;4,536622017622E-07;-4,50980141758919E-07;100 nA
1,0009765625;258,4802573474;4,1778564453125E-08;0,99945068359375;7;500;4,536622017622E-07;-4,50980141758919E-07;100 nA
0,950927734375;258,980745346136;3,70452880859375E-08;0,94970703125;7;501;4,536622017622E-07;-4,50980141758919E-07;100 nA
0,90087890625;259,481233344873;3,37677001953125E-08;0,89996337890625;7;502;4,536622017622E-07;-4,50980141758919E-07;100 nA
0,850830078125;259,981721343609;3,10882568359375E-08;0,8502197265625;7;503;4,536622017622E-07;-4,50980141758919E-07;100 nA
0,80078125;260,482209342346;2,8863525390625E-08;0,79986572265625;7;504;4,536622017622E-07;-4,50980141758919E-07;100 nA
0,750732421875;260,982697341082;2,672119140625E-08;0,749755859375;7;505;4,536622017622E-07;-4,50980141758919E-07;100 nA
0,70068359375;261,483185339818;2,46734619140625E-08;0,699859619140625;7;506;4,536622017622E-07;-4,50980141758919E-07;100 nA
0,650634765625;261,983673338555;2,269287109375E-08;0,649932861328125;7;507;4,536622017622E-07;-4,50980141758919E-07;100 nA
0,6005859375;262,484161337291;2,06878662109375E-08;0,60003662109375;7;508;4,536622017622E-07;-4,50980141758919E-07;100 nA
0,550537109375;262,984649336028;1,87835693359375E-08;0,550018310546875;7;509;4,536622017622E-07;-4,50980141758919E-07;100 nA
0,50048828125;263,485137334764;1,68792724609375E-08;0,50006103515625;7;510;4,536622017622E-07;-4,50980141758919E-07;100 nA
0,450439453125;263,9856253335;1,50482177734375E-08;0,450042724609375;7;511;4,536622017622E-07;-4,50980141758919E-07;100 nA
0,400390625;264,486113332237;1,3153076171875E-08;0,4000244140625;7;512;4,536622017622E-07;-4,50980141758919E-07;100 nA
0,350341796875;264,986601330973;1,12701416015625E-08;0,350067138671875;7;513;4,536622017622E-07;-4,50980141758919E-07;100 nA
0,30029296875;265,48708932971;9,2987060546875E-09;0,300048828125;7;514;4,536622017622E-07;-4,50980141758919E-07;100 nA
0,250244140625;265,987577328446;7,1990966796875E-09;0,25;7;515;4,536622017622E-07;-4,50980141758919E-07;100 nA
0,2001953125;266,488065327182;4,9652099609375E-09;0,200042724609375;7;516;4,536622017622E-07;-4,50980141758919E-07;100 nA
0,150146484375;266,988553325919;2,5634765625E-09;0,150054931640625;7;517;4,536622017622E-07;-4,50980141758919E-07;100 nA
0,10009765625;267,489041324655;-1,861572265625E-10;0,100067138671875;7;518;4,536622017622E-07;-4,50980141758919E-07;100 nA
0,050048828125;267,989529323391;-4,4647216796875E-09;0,050048828125;7;519;4,536622017622E-07;-4,50980141758919E-07;100 nA
0;268,490017322128;-1,36138916015625E-08;0,000115966796875006;7;520;4,536622017622E-07;-4,50980141758919E-07;100 nA
-0,050048828125;268,990505320864;-1,4361572265625E-08;-0,049774169921875;7;521;4,536622017622E-07;-4,50980141758919E-07;100 nA
-0,10009765625;269,490993319601;-1,31622314453125E-08;-0,099700927734375;7;522;4,536622017622E-07;-4,50980141758919E-07;100 nA
-0,150146484375;269,991481318337;-1,51092529296875E-08;-0,149566650390625;7;523;4,536622017622E-07;-4,50980141758919E-07;100 nA
-0,2001953125;270,491969317073;-1,7034912109375E-08;-0,199432373046875;7;524;4,536622017622E-07;-4,50980141758919E-07;100 nA
-0,250244140625;270,99245731581;-1,83807373046875E-08;-0,249298095703125;7;525;4,536622017622E-07;-4,50980141758919E-07;100 nA
-0,30029296875;271,492945314546;-1,97113037109375E-08;-0,299285888671875;7;526;4,536622017622E-07;-4,50980141758919E-07;100 nA
-0,350341796875;271,993433313283;-2,1484375E-08;-0,34912109375;7;527;4,536622017622E-07;-4,50980141758919E-07;100 nA
-0,400390625;272,493921312019;-2,35931396484375E-08;-0,3990478515625;7;528;4,536622017622E-07;-4,50980141758919E-07;100 nA
-0,450439453125;272,994409310755;-2,5634765625E-08;-0,44891357421875;7;529;4,536622017622E-07;-4,50980141758919E-07;100 nA
-0,50048828125;273,494897309492;-2,730712890625E-08;-0,498779296875;7;530;4,536622017622E-07;-4,50980141758919E-07;100 nA
-0,550537109375;273,995385308228;-2,8668212890625E-08;-0,5487060546875;7;531;4,536622017622E-07;-4,50980141758919E-07;100 nA
-0,6005859375;274,495873306965;-3,01177978515625E-08;-0,5986328125;7;532;4,536622017622E-07;-4,50980141758919E-07;100 nA
-0,650634765625;274,996361305701;-3,1805419921875E-08;-0,648529052734375;7;533;4,536622017622E-07;-4,50980141758919E-07;100 nA
-0,70068359375;275,496849304437;-3,3697509765625E-08;-0,698486328125;7;534;4,536622017622E-07;-4,50980141758919E-07;100 nA
-0,750732421875;275,997337303174;-3,56689453125E-08;-0,74847412109375;7;535;4,536622017622E-07;-4,50980141758919E-07;100 nA
-0,80078125;276,49782530191;-3,76373291015625E-08;-0,79833984375;7;536;4,536622017622E-07;-4,50980141758919E-07;100 nA
-0,850830078125;276,998313300646;-3,96026611328125E-08;-0,848388671875;7;537;4,536622017622E-07;-4,50980141758919E-07;100 nA
-0,90087890625;277,498801299383;-4,1534423828125E-08;-0,89874267578125;7;538;4,536622017622E-07;-4,50980141758919E-07;100 nA
-0,950927734375;277,999289298119;-4,35791015625E-08;-0,94818115234375;7;539;4,536622017622E-07;-4,50980141758919E-07;100 nA
-1,0009765625;278,499777296856;-4,5654296875E-08;-0,99945068359375;7;540;4,536622017622E-07;-4,50980141758919E-07;100 nA
-0,950927734375;279,000265295592;-4,1412353515625E-08;-0,948486328125;7;541;4,536622017622E-07;-4,50980141758919E-07;100 nA
-0,90087890625;279,500753294328;-3,77960205078125E-08;-0,89874267578125;7;542;4,536622017622E-07;-4,50980141758919E-07;100 nA
-0,850830078125;280,001241293065;-3,4405517578125E-08;-0,8489990234375;7;543;4,536622017622E-07;-4,50980141758919E-07;100 nA
-0,80078125;280,501729291801;-3,121337890625E-08;-0,7989501953125;7;544;4,536622017622E-07;-4,50980141758919E-07;100 nA
-0,750732421875;281,002217290538;-2,82501220703125E-08;-0,74853515625;7;545;4,536622017622E-07;-4,50980141758919E-07;100 nA
-0,70068359375;281,502705289274;-2,5628662109375E-08;-0,698516845703125;7;546;4,536622017622E-07;-4,50980141758919E-07;100 nA
-0,650634765625;282,00319328801;-2,31353759765625E-08;-0,648529052734375;7;547;4,536622017622E-07;-4,50980141758919E-07;100 nA
-0,6005859375;282,503681286747;-2,081298828125E-08;-0,598541259765625;7;548;4,536622017622E-07;-4,50980141758919E-07;100 nA
-0,550537109375;283,004169285483;-1,85302734375E-08;-0,5487060546875;7;549;4,536622017622E-07;-4,50980141758919E-07;100 nA
-0,50048828125;283,50465728422;-1,61712646484375E-08;-0,498779296875;7;550;4,536622017622E-07;-4,50980141758919E-07;100 nA
-0,450439453125;284,005145282956;-1,35528564453125E-08;-0,44891357421875;7;551;4,536622017622E-07;-4,50980141758919E-07;100 nA
-0,400390625;284,505633281692;-1,08551025390625E-08;-0,3990478515625;7;552;4,536622017622E-07;-4,50980141758919E-07;100 nA
-0,350341796875;285,006121280429;-8,270263671875E-09;-0,349151611328125;7;553;4,536622017622E-07;-4,50980141758919E-07;100 nA
-0,30029296875;285,506609279165;-5,7891845703125E-09;-0,29925537109375;7;554;4,536622017622E-07;-4,50980141758919E-07;100 nA
-0,250244140625;286,007097277901;-3,0914306640625E-09;-0,24932861328125;7;555;4,536622017622E-07;-4,50980141758919E-07;100 nA
-0,2001953125;286,507585276638;-1,556396484375E-10;-0,199493408203125;7;556;4,536622017622E-07;-4,50980141758919E-07;100 nA
-0,150146484375;287,008073275374;2,9449462890625E-09;-0,149566650390625;7;557;4,536622017622E-07;-4,50980141758919E-07;100 nA
-0,10009765625;287,508561274111;6,097412109375E-09;-0,099639892578125;7;558;4,536622017622E-07;-4,50980141758919E-07;100 nA
-0,050048828125;288,009049272847;9,246826171875E-09;-0,0498046875;7;559;4,536622017622E-07;-4,50980141758919E-07;100 nA
0;288,509537271583;1,219482421875E-08;0,0001220703125;7;560;4,536622017622E-07;-4,50980141758919E-07;100 nA
0,050048828125;289,01002527032;1,58233642578125E-08;0,050048828125;8;561;4,53628599643707E-07;-4,51403222978115E-07;100 nA
0,10009765625;289,510513269056;1,5447998046875E-08;0,100006103515625;8;562;4,53628599643707E-07;-4,51403222978115E-07;100 nA
0,150146484375;290,011001267793;1,56036376953125E-08;0,150054931640625;8;563;4,53628599643707E-07;-4,51403222978115E-07;100 nA
0,2001953125;290,511489266529;1,6778564453125E-08;0,20001220703125;8;564;4,53628599643707E-07;-4,51403222978115E-07;100 nA
0,250244140625;291,011977265265;1,82373046875E-08;0,250030517578125;8;565;4,53628599643707E-07;-4,51403222978115E-07;100 nA
0,30029296875;291,512465264002;1,9818115234375E-08;0,300018310546875;8;566;4,53628599643707E-07;-4,51403222978115E-07;100 nA
0,350341796875;292,012953262738;2,14385986328125E-08;0,350067138671875;8;567;4,53628599643707E-07;-4,51403222978115E-07;100 nA
0,400390625;292,513441261475;2,3199462890625E-08;0,40008544921875;8;568;4,53628599643707E-07;-4,51403222978115E-07;100 nA
0,450439453125;293,013929260211;2,510986328125E-08;0,45001220703125;8;569;4,53628599643707E-07;-4,51403222978115E-07;100 nA
0,50048828125;293,514417258947;2,708740234375E-08;0,499969482421875;8;570;4,53628599643707E-07;-4,51403222978115E-07;100 nA
0,550537109375;294,014905257684;2,906494140625E-08;0,550018310546875;8;571;4,53628599643707E-07;-4,51403222978115E-07;100 nA
0,6005859375;294,51539325642;3,10760498046875E-08;0,60003662109375;8;572;4,53628599643707E-07;-4,51403222978115E-07;100 nA
0,650634765625;295,015881255157;3,2818603515625E-08;0,64990234375;8;573;4,53628599643707E-07;-4,51403222978115E-07;100 nA
0,70068359375;295,516369253893;3,39630126953125E-08;0,69989013671875;8;574;4,53628599643707E-07;-4,51403222978115E-07;100 nA
0,750732421875;296,016857252629;3,52752685546875E-08;0,749725341796875;8;575;4,53628599643707E-07;-4,51403222978115E-07;100 nA
0,80078125;296,517345251366;3,592529296875E-08;0,79925537109375;8;576;4,53628599643707E-07;-4,51403222978115E-07;100 nA
0,850830078125;297,017833250102;3,61358642578125E-08;0,849609375;8;577;4,53628599643707E-07;-4,51403222978115E-07;100 nA
0,90087890625;297,518321248838;3,73992919921875E-08;0,9002685546875;8;578;4,53628599643707E-07;-4,51403222978115E-07;100 nA
0,950927734375;298,018809247575;3,93524169921875E-08;0,94970703125;8;579;4,53628599643707E-07;-4,51403222978115E-07;100 nA
1,0009765625;298,519297246311;4,1717529296875E-08;0,9991455078125;8;580;4,53628599643707E-07;-4,51403222978115E-07;100 nA
0,950927734375;299,019785245048;3,71307373046875E-08;0,9490966796875;8;581;4,53628599643707E-07;-4,51403222978115E-07;100 nA
0,90087890625;299,520273243784;3,38836669921875E-08;0,89996337890625;8;582;4,53628599643707E-07;-4,51403222978115E-07;100 nA
0,850830078125;300,02076124252;3,1201171875E-08;0,849609375;8;583;4,53628599643707E-07;-4,51403222978115E-07;100 nA
0,80078125;300,521249241257;2,88543701171875E-08;0,799560546875;8;584;4,53628599643707E-07;-4,51403222978115E-07;100 nA
0,750732421875;301,021737239993;2,6715087890625E-08;0,749725341796875;8;585;4,53628599643707E-07;-4,51403222978115E-07;100 nA
0,70068359375;301,52222523873;2,4658203125E-08;0,699859619140625;8;586;4,53628599643707E-07;-4,51403222978115E-07;100 nA
0,650634765625;302,022713237466;2,26287841796875E-08;0,64996337890625;8;587;4,53628599643707E-07;-4,51403222978115E-07;100 nA
0,6005859375;302,523201236202;2,06512451171875E-08;0,600067138671875;8;588;4,53628599643707E-07;-4,51403222978115E-07;100 nA
0,550537109375;303,023689234939;1,8743896484375E-08;0,54998779296875;8;589;4,53628599643707E-07;-4,51403222978115E-07;100 nA
0,50048828125;303,524177233675;1,683349609375E-08;0,500030517578125;8;590;4,53628599643707E-07;-4,51403222978115E-07;100 nA
0,450439453125;304,024665232412;1,49932861328125E-08;0,450042724609375;8;591;4,53628599643707E-07;-4,51403222978115E-07;100 nA
0,400390625;304,525153231148;1,31591796875E-08;0,400115966796875;8;592;4,53628599643707E-07;-4,51403222978115E-07;100 nA
0,350341796875;305,025641229884;1,126708984375E-08;0,350006103515625;8;593;4,53628599643707E-07;-4,51403222978115E-07;100 nA
0,30029296875;305,526129228621;9,2926025390625E-09;0,300048828125;8;594;4,53628599643707E-07;-4,51403222978115E-07;100 nA
0,250244140625;306,026617227357;7,1533203125E-09;0,250030517578125;8;595;4,53628599643707E-07;-4,51403222978115E-07;100 nA
0,2001953125;306,527105226093;4,89501953125E-09;0,200103759765625;8;596;4,53628599643707E-07;-4,51403222978115E-07;100 nA
0,150146484375;307,02759322483;2,50244140625E-09;0,150054931640625;8;597;4,53628599643707E-07;-4,51403222978115E-07;100 nA
0,10009765625;307,528081223566;-2,532958984375E-10;0,10009765625;8;598;4,53628599643707E-07;-4,51403222978115E-07;100 nA
0,050048828125;308,028569222303;-4,4921875E-09;0,050079345703125;8;599;4,53628599643707E-07;-4,51403222978115E-07;100 nA
0;308,529057221039;-1,35528564453125E-08;0,000103759765625003;8;600;4,53628599643707E-07;-4,51403222978115E-07;100 nA
-0,050048828125;309,029545219775;-1,45660400390625E-08;-0,0498046875;8;601;4,53628599643707E-07;-4,51403222978115E-07;100 nA
-0,10009765625;309,530033218512;-1,32415771484375E-08;-0,099700927734375;8;602;4,53628599643707E-07;-4,51403222978115E-07;100 nA
-0,150146484375;310,030521217248;-1,51580810546875E-08;-0,149566650390625;8;603;4,53628599643707E-07;-4,51403222978115E-07;100 nA
-0,2001953125;310,531009215985;-1,70440673828125E-08;-0,199462890625;8;604;4,53628599643707E-07;-4,51403222978115E-07;100 nA
-0,250244140625;311,031497214721;-1,83258056640625E-08;-0,24932861328125;8;605;4,53628599643707E-07;-4,51403222978115E-07;100 nA
-0,30029296875;311,531985213457;-1,96319580078125E-08;-0,299224853515625;8;606;4,53628599643707E-07;-4,51403222978115E-07;100 nA
-0,350341796875;312,032473212194;-2,142333984375E-08;-0,34918212890625;8;607;4,53628599643707E-07;-4,51403222978115E-07;100 nA
-0,400390625;312,53296121093;-2,35809326171875E-08;-0,398956298828125;8;608;4,53628599643707E-07;-4,51403222978115E-07;100 nA
-0,450439453125;313,033449209667;-2,56195068359375E-08;-0,44891357421875;8;609;4,53628599643707E-07;-4,51403222978115E-07;100 nA
-0,50048828125;313,533937208403;-2,7264404296875E-08;-0,498809814453125;8;610;4,53628599643707E-07;-4,51403222978115E-07;100 nA
-0,550537109375;314,034425207139;-2,86163330078125E-08;-0,54864501953125;8;611;4,53628599643707E-07;-4,51403222978115E-07;100 nA
-0,6005859375;314,534913205876;-3,006591796875E-08;-0,59857177734375;8;612;4,53628599643707E-07;-4,51403222978115E-07;100 nA
-0,650634765625;315,035401204612;-3,1805419921875E-08;-0,6484375;8;613;4,53628599643707E-07;-4,51403222978115E-07;100 nA
-0,70068359375;315,535889203348;-3,369140625E-08;-0,698516845703125;8;614;4,53628599643707E-07;-4,51403222978115E-07;100 nA
-0,750732421875;316,036377202085;-3,56597900390625E-08;-0,748565673828125;8;615;4,53628599643707E-07;-4,51403222978115E-07;100 nA
-0,80078125;316,536865200821;-3,7615966796875E-08;-0,79864501953125;8;616;4,53628599643707E-07;-4,51403222978115E-07;100 nA
-0,850830078125;317,037353199558;-3,9569091796875E-08;-0,8489990234375;8;617;4,53628599643707E-07;-4,51403222978115E-07;100 nA
-0,90087890625;317,537841198294;-4,150390625E-08;-0,89874267578125;8;618;4,53628599643707E-07;-4,51403222978115E-07;100 nA
-0,950927734375;318,03832919703;-4,3609619140625E-08;-0,94879150390625;8;619;4,53628599643707E-07;-4,51403222978115E-07;100 nA
-1,0009765625;318,538817195767;-4,571533203125E-08;-0,9991455078125;8;620;4,53628599643707E-07;-4,51403222978115E-07;100 nA
-0,950927734375;319,039305194503;-4,150390625E-08;-0,94879150390625;8;621;4,53628599643707E-07;-4,51403222978115E-07;100 nA
-0,90087890625;319,53979319324;-3,78326416015625E-08;-0,8984375;8;622;4,53628599643707E-07;-4,51403222978115E-07;100 nA
-0,850830078125;320,040281191976;-3,44268798828125E-08;-0,84869384765625;8;623;4,53628599643707E-07;-4,51403222978115E-07;100 nA
-0,80078125;320,540769190712;-3,12042236328125E-08;-0,79864501953125;8;624;4,53628599643707E-07;-4,51403222978115E-07;100 nA
-0,750732421875;321,041257189449;-2,83233642578125E-08;-0,748504638671875;8;625;4,53628599643707E-07;-4,51403222978115E-07;100 nA
-0,70068359375;321,541745188185;-2,564697265625E-08;-0,698516845703125;8;626;4,53628599643707E-07;-4,51403222978115E-07;100 nA
-0,650634765625;322,042233186922;-2,32177734375E-08;-0,6485595703125;8;627;4,53628599643707E-07;-4,51403222978115E-07;100 nA
-0,6005859375;322,542721185658;-2,08648681640625E-08;-0,5986328125;8;628;4,53628599643707E-07;-4,51403222978115E-07;100 nA
-0,550537109375;323,043209184394;-1,8621826171875E-08;-0,5487060546875;8;629;4,53628599643707E-07;-4,51403222978115E-07;100 nA
-0,50048828125;323,543697183131;-1,62353515625E-08;-0,49884033203125;8;630;4,53628599643707E-07;-4,51403222978115E-07;100 nA
-0,450439453125;324,044185181867;-1,36322021484375E-08;-0,448944091796875;8;631;4,53628599643707E-07;-4,51403222978115E-07;100 nA
-0,400390625;324,544673180603;-1,092529296875E-08;-0,399017333984375;8;632;4,53628599643707E-07;-4,51403222978115E-07;100 nA
-0,350341796875;325,04516117934;-8,343505859375E-09;-0,349273681640625;8;633;4,53628599643707E-07;-4,51403222978115E-07;100 nA
-0,30029296875;325,545649178076;-5,816650390625E-09;-0,29925537109375;8;634;4,53628599643707E-07;-4,51403222978115E-07;100 nA
-0,250244140625;326,046137176813;-3,143310546875E-09;-0,249298095703125;8;635;4,53628599643707E-07;-4,51403222978115E-07;100 nA
-0,2001953125;326,546625175549;-1,800537109375E-10;-0,199432373046875;8;636;4,53628599643707E-07;-4,51403222978115E-07;100 nA
-0,150146484375;327,047113174285;2,91748046875E-09;-0,149566650390625;8;637;4,53628599643707E-07;-4,51403222978115E-07;100 nA
-0,10009765625;327,547601173022;6,103515625E-09;-0,099639892578125;8;638;4,53628599643707E-07;-4,51403222978115E-07;100 nA
-0,050048828125;328,048089171758;9,2620849609375E-09;-0,049774169921875;8;639;4,53628599643707E-07;-4,51403222978115E-07;100 nA
0;328,548577170495;1,22528076171875E-08;0,000112915039062494;8;640;4,53628599643707E-07;-4,51403222978115E-07;100 nA
0,050048828125;329,049065169231;1,591796875E-08;0,050048828125;9;641;4,52956557273865E-07;-4,50411960482597E-07;100 nA
0,10009765625;329,549553167967;1,5460205078125E-08;0,10009765625;9;642;4,52956557273865E-07;-4,50411960482597E-07;100 nA
0,150146484375;330,050041166704;1,5673828125E-08;0,150054931640625;9;643;4,52956557273865E-07;-4,50411960482597E-07;100 nA
0,2001953125;330,55052916544;1,6815185546875E-08;0,20001220703125;9;644;4,52956557273865E-07;-4,50411960482597E-07;100 nA
0,250244140625;331,051017164177;1,826171875E-08;0,25;9;645;4,52956557273865E-07;-4,50411960482597E-07;100 nA
0,30029296875;331,551505162913;1,9866943359375E-08;0,300018310546875;9;646;4,52956557273865E-07;-4,50411960482597E-07;100 nA
0,350341796875;332,051993161649;2,1478271484375E-08;0,35009765625;9;647;4,52956557273865E-07;-4,50411960482597E-07;100 nA
0,400390625;332,552481160386;2,3236083984375E-08;0,40008544921875;9;648;4,52956557273865E-07;-4,50411960482597E-07;100 nA
0,450439453125;333,052969159122;2,510986328125E-08;0,45001220703125;9;649;4,52956557273865E-07;-4,50411960482597E-07;100 nA
0,50048828125;333,553457157858;2,70599365234375E-08;0,500030517578125;9;650;4,52956557273865E-07;-4,50411960482597E-07;100 nA
0,550537109375;334,053945156595;2,9083251953125E-08;0,54998779296875;9;651;4,52956557273865E-07;-4,50411960482597E-07;100 nA
0,6005859375;334,554433155331;3,0950927734375E-08;0,5999755859375;9;652;4,52956557273865E-07;-4,50411960482597E-07;100 nA
0,650634765625;335,054921154068;3,26934814453125E-08;0,64996337890625;9;653;4,52956557273865E-07;-4,50411960482597E-07;100 nA
0,70068359375;335,555409152804;3,38165283203125E-08;0,6998291015625;9;654;4,52956557273865E-07;-4,50411960482597E-07;100 nA
0,750732421875;336,05589715154;3,5076904296875E-08;0,749755859375;9;655;4,52956557273865E-07;-4,50411960482597E-07;100 nA
0,80078125;336,556385150277;3,57452392578125E-08;0,799560546875;9;656;4,52956557273865E-07;-4,50411960482597E-07;100 nA
0,850830078125;337,056873149013;3,5955810546875E-08;0,849609375;9;657;4,52956557273865E-07;-4,50411960482597E-07;100 nA
0,90087890625;337,55736114775;3,717041015625E-08;0,899658203125;9;658;4,52956557273865E-07;-4,50411960482597E-07;100 nA
0,950927734375;338,057849146486;3,91387939453125E-08;0,94940185546875;9;659;4,52956557273865E-07;-4,50411960482597E-07;100 nA
1,0009765625;338,558337145222;4,16259765625E-08;0,9991455078125;9;660;4,52956557273865E-07;-4,50411960482597E-07;100 nA
0,950927734375;339,058825143959;3,70391845703125E-08;0,9490966796875;9;661;4,52956557273865E-07;-4,50411960482597E-07;100 nA
0,90087890625;339,559313142695;3,3819580078125E-08;0,89935302734375;9;662;4,52956557273865E-07;-4,50411960482597E-07;100 nA
0,850830078125;340,059801141432;3,118896484375E-08;0,84991455078125;9;663;4,52956557273865E-07;-4,50411960482597E-07;100 nA
0,80078125;340,560289140168;2,8875732421875E-08;0,8001708984375;9;664;4,52956557273865E-07;-4,50411960482597E-07;100 nA
0,750732421875;341,060777138904;2,6739501953125E-08;0,749755859375;9;665;4,52956557273865E-07;-4,50411960482597E-07;100 nA
0,70068359375;341,561265137641;2,46307373046875E-08;0,699798583984375;9;666;4,52956557273865E-07;-4,50411960482597E-07;100 nA
0,650634765625;342,061753136377;2,26837158203125E-08;0,6500244140625;9;667;4,52956557273865E-07;-4,50411960482597E-07;100 nA
0,6005859375;342,562241135113;2,06939697265625E-08;0,60003662109375;9;668;4,52956557273865E-07;-4,50411960482597E-07;100 nA
0,550537109375;343,06272913385;1,87652587890625E-08;0,54998779296875;9;669;4,52956557273865E-07;-4,50411960482597E-07;100 nA
0,50048828125;343,563217132586;1,6876220703125E-08;0,500030517578125;9;670;4,52956557273865E-07;-4,50411960482597E-07;100 nA
0,450439453125;344,063705131323;1,50177001953125E-08;0,450042724609375;9;671;4,52956557273865E-07;-4,50411960482597E-07;100 nA
0,400390625;344,564193130059;1,31591796875E-08;0,4000244140625;9;672;4,52956557273865E-07;-4,50411960482597E-07;100 nA
0,350341796875;345,064681128795;1,12640380859375E-08;0,35009765625;9;673;4,52956557273865E-07;-4,50411960482597E-07;100 nA
0,30029296875;345,565169127532;9,2803955078125E-09;0,300048828125;9;674;4,52956557273865E-07;-4,50411960482597E-07;100 nA
0,250244140625;346,065657126268;7,2052001953125E-09;0,2501220703125;9;675;4,52956557273865E-07;-4,50411960482597E-07;100 nA
0,2001953125;346,566145125005;4,931640625E-09;0,200042724609375;9;676;4,52956557273865E-07;-4,50411960482597E-07;100 nA
0,150146484375;347,066633123741;2,55126953125E-09;0,150054931640625;9;677;4,52956557273865E-07;-4,50411960482597E-07;100 nA
0,10009765625;347,567121122477;-1,861572265625E-10;0,10003662109375;9;678;4,52956557273865E-07;-4,50411960482597E-07;100 nA
0,050048828125;348,067609121214;-4,39453125E-09;0,050079345703125;9;679;4,52956557273865E-07;-4,50411960482597E-07;100 nA
0;348,56809711995;-1,3446044921875E-08;0,000119018554687503;9;680;4,52956557273865E-07;-4,50411960482597E-07;100 nA
-0,050048828125;349,068585118687;-1,46209716796875E-08;-0,0498046875;9;681;4,52956557273865E-07;-4,50411960482597E-07;100 nA
-0,10009765625;349,569073117423;-1,32476806640625E-08;-0,099700927734375;9;682;4,52956557273865E-07;-4,50411960482597E-07;100 nA
-0,150146484375;350,069561116159;-1,51611328125E-08;-0,149505615234375;9;683;4,52956557273865E-07;-4,50411960482597E-07;100 nA
-0,2001953125;350,570049114896;-1,7041015625E-08;-0,199462890625;9;684;4,52956557273865E-07;-4,50411960482597E-07;100 nA
-0,250244140625;351,070537113632;-1,83319091796875E-08;-0,249298095703125;9;685;4,52956557273865E-07;-4,50411960482597E-07;100 nA
-0,30029296875;351,571025112368;-1,96868896484375E-08;-0,29925537109375;9;686;4,52956557273865E-07;-4,50411960482597E-07;100 nA
-0,350341796875;352,071513111105;-2,14996337890625E-08;-0,34918212890625;9;687;4,52956557273865E-07;-4,50411960482597E-07;100 nA
-0,400390625;352,572001109841;-2,36328125E-08;-0,399017333984375;9;688;4,52956557273865E-07;-4,50411960482597E-07;100 nA
-0,450439453125;353,072489108578;-2,56622314453125E-08;-0,448944091796875;9;689;4,52956557273865E-07;-4,50411960482597E-07;100 nA
-0,50048828125;353,572977107314;-2,72979736328125E-08;-0,498809814453125;9;690;4,52956557273865E-07;-4,50411960482597E-07;100 nA
-0,550537109375;354,07346510605;-2,8582763671875E-08;-0,548675537109375;9;691;4,52956557273865E-07;-4,50411960482597E-07;100 nA
-0,6005859375;354,573953104787;-3,0029296875E-08;-0,598602294921875;9;692;4,52956557273865E-07;-4,50411960482597E-07;100 nA
-0,650634765625;355,074441103523;-3,17657470703125E-08;-0,648468017578125;9;693;4,52956557273865E-07;-4,50411960482597E-07;100 nA
-0,70068359375;355,57492910226;-3,35784912109375E-08;-0,698486328125;9;694;4,52956557273865E-07;-4,50411960482597E-07;100 nA
-0,750732421875;356,075417100996;-3,5546875E-08;-0,748504638671875;9;695;4,52956557273865E-07;-4,50411960482597E-07;100 nA
-0,80078125;356,575905099732;-3,7481689453125E-08;-0,79833984375;9;696;4,52956557273865E-07;-4,50411960482597E-07;100 nA
-0,850830078125;357,076393098469;-3,9385986328125E-08;-0,84869384765625;9;697;4,52956557273865E-07;-4,50411960482597E-07;100 nA
-0,90087890625;357,576881097205;-4,1412353515625E-08;-0,89874267578125;9;698;4,52956557273865E-07;-4,50411960482597E-07;100 nA
-0,950927734375;358,077369095942;-4,339599609375E-08;-0,94879150390625;9;699;4,52956557273865E-07;-4,50411960482597E-07;100 nA
-1,0009765625;358,577857094678;-4,55322265625E-08;-0,9991455078125;9;700;4,52956557273865E-07;-4,50411960482597E-07;100 nA
-0,950927734375;359,078345093414;-4,1351318359375E-08;-0,94879150390625;9;701;4,52956557273865E-07;-4,50411960482597E-07;100 nA
-0,90087890625;359,578833092151;-3,77044677734375E-08;-0,8990478515625;9;702;4,52956557273865E-07;-4,50411960482597E-07;100 nA
-0,850830078125;360,079321090887;-3,427734375E-08;-0,84869384765625;9;703;4,52956557273865E-07;-4,50411960482597E-07;100 nA
-0,80078125;360,579809089624;-3,10760498046875E-08;-0,79833984375;9;704;4,52956557273865E-07;-4,50411960482597E-07;100 nA
-0,750732421875;361,08029708836;-2,8131103515625E-08;-0,748443603515625;9;705;4,52956557273865E-07;-4,50411960482597E-07;100 nA
-0,70068359375;361,580785087096;-2,54547119140625E-08;-0,698516845703125;9;706;4,52956557273865E-07;-4,50411960482597E-07;100 nA
-0,650634765625;362,081273085833;-2,3065185546875E-08;-0,648529052734375;9;707;4,52956557273865E-07;-4,50411960482597E-07;100 nA
-0,6005859375;362,581761084569;-2,07977294921875E-08;-0,598541259765625;9;708;4,52956557273865E-07;-4,50411960482597E-07;100 nA
-0,550537109375;363,082249083305;-1,8560791015625E-08;-0,54876708984375;9;709;4,52956557273865E-07;-4,50411960482597E-07;100 nA
-0,50048828125;363,582737082042;-1,62353515625E-08;-0,498779296875;9;710;4,52956557273865E-07;-4,50411960482597E-07;100 nA
-0,450439453125;364,083225080778;-1,3671875E-08;-0,4488525390625;9;711;4,52956557273865E-07;-4,50411960482597E-07;100 nA
-0,400390625;364,583713079515;-1,0931396484375E-08;-0,399078369140625;9;712;4,52956557273865E-07;-4,50411960482597E-07;100 nA
-0,350341796875;365,084201078251;-8,3831787109375E-09;-0,349151611328125;9;713;4,52956557273865E-07;-4,50411960482597E-07;100 nA
-0,30029296875;365,584689076987;-5,8685302734375E-09;-0,29925537109375;9;714;4,52956557273865E-07;-4,50411960482597E-07;100 nA
-0,250244140625;366,085177075724;-3,22265625E-09;-0,249298095703125;9;715;4,52956557273865E-07;-4,50411960482597E-07;100 nA
-0,2001953125;366,58566507446;-2,9296875E-10;-0,199462890625;9;716;4,52956557273865E-07;-4,50411960482597E-07;100 nA
-0,150146484375;367,086153073197;2,801513671875E-09;-0,14959716796875;9;717;4,52956557273865E-07;-4,50411960482597E-07;100 nA
-0,10009765625;367,586641071933;5,99365234375E-09;-0,099700927734375;9;718;4,52956557273865E-07;-4,50411960482597E-07;100 nA
-0,050048828125;368,087129070669;9,173583984375E-09;-0,049835205078125;9;719;4,52956557273865E-07;-4,50411960482597E-07;100 nA
0;368,587617069406;1,2200927734375E-08;0,000128173828124994;9;720;4,52956557273865E-07;-4,50411960482597E-07;100 nA
0,050048828125;369,088105068142;1,58660888671875E-08;0,050048828125;10;721;4,52643446624279E-07;-4,48985397815704E-07;100 nA
0,10009765625;369,588593066879;1,54205322265625E-08;0,10003662109375;10;722;4,52643446624279E-07;-4,48985397815704E-07;100 nA
0,150146484375;370,089081065615;1,5655517578125E-08;0,15008544921875;10;723;4,52643446624279E-07;-4,48985397815704E-07;100 nA
0,2001953125;370,589569064351;1,67999267578125E-08;0,200042724609375;10;724;4,52643446624279E-07;-4,48985397815704E-07;100 nA
0,250244140625;371,090057063088;1,82708740234375E-08;0,25;10;725;4,52643446624279E-07;-4,48985397815704E-07;100 nA
0,30029296875;371,590545061824;1,9873046875E-08;0,300048828125;10;726;4,52643446624279E-07;-4,48985397815704E-07;100 nA
0,350341796875;372,09103306056;2,1466064453125E-08;0,35003662109375;10;727;4,52643446624279E-07;-4,48985397815704E-07;100 nA
0,400390625;372,591521059297;2,322998046875E-08;0,40008544921875;10;728;4,52643446624279E-07;-4,48985397815704E-07;100 nA
0,450439453125;373,092009058033;2,509765625E-08;0,45001220703125;10;729;4,52643446624279E-07;-4,48985397815704E-07;100 nA
0,50048828125;373,59249705677;2,70233154296875E-08;0,500091552734375;10;730;4,52643446624279E-07;-4,48985397815704E-07;100 nA
0,550537109375;374,092985055506;2,90069580078125E-08;0,550018310546875;10;731;4,52643446624279E-07;-4,48985397815704E-07;100 nA
0,6005859375;374,593473054242;3,1005859375E-08;0,600006103515625;10;732;4,52643446624279E-07;-4,48985397815704E-07;100 nA
0,650634765625;375,093961052979;3,27423095703125E-08;0,64996337890625;10;733;4,52643446624279E-07;-4,48985397815704E-07;100 nA
0,70068359375;375,594449051715;3,38043212890625E-08;0,6998291015625;10;734;4,52643446624279E-07;-4,48985397815704E-07;100 nA
0,750732421875;376,094937050452;3,50677490234375E-08;0,749725341796875;10;735;4,52643446624279E-07;-4,48985397815704E-07;100 nA
0,80078125;376,595425049188;3,56964111328125E-08;0,8001708984375;10;736;4,52643446624279E-07;-4,48985397815704E-07;100 nA
0,850830078125;377,095913047924;3,58551025390625E-08;0,849609375;10;737;4,52643446624279E-07;-4,48985397815704E-07;100 nA
0,90087890625;377,596401046661;3,71826171875E-08;0,89996337890625;10;738;4,52643446624279E-07;-4,48985397815704E-07;100 nA
0,950927734375;378,096889045397;3,91265869140625E-08;0,94970703125;10;739;4,52643446624279E-07;-4,48985397815704E-07;100 nA
1,0009765625;378,597377044134;4,156494140625E-08;0,999755859375;10;740;4,52643446624279E-07;-4,48985397815704E-07;100 nA
0,950927734375;379,09786504287;3,6962890625E-08;0,94970703125;10;741;4,52643446624279E-07;-4,48985397815704E-07;100 nA
0,90087890625;379,598353041606;3,372802734375E-08;0,8990478515625;10;742;4,52643446624279E-07;-4,48985397815704E-07;100 nA
0,850830078125;380,098841040343;3,1072998046875E-08;0,84991455078125;10;743;4,52643446624279E-07;-4,48985397815704E-07;100 nA
0,80078125;380,599329039079;2,88116455078125E-08;0,79986572265625;10;744;4,52643446624279E-07;-4,48985397815704E-07;100 nA
0,750732421875;381,099817037815;2,666015625E-08;0,749786376953125;10;745;4,52643446624279E-07;-4,48985397815704E-07;100 nA
0,70068359375;381,600305036552;2,4615478515625E-08;0,6998291015625;10;746;4,52643446624279E-07;-4,48985397815704E-07;100 nA
0,650634765625;382,100793035288;2,26531982421875E-08;0,64996337890625;10;747;4,52643446624279E-07;-4,48985397815704E-07;100 nA
0,6005859375;382,601281034025;2,066650390625E-08;0,60003662109375;10;748;4,52643446624279E-07;-4,48985397815704E-07;100 nA
0,550537109375;383,101769032761;1,87225341796875E-08;0,54998779296875;10;749;4,52643446624279E-07;-4,48985397815704E-07;100 nA
0,50048828125;383,602257031497;1,68670654296875E-08;0,500030517578125;10;750;4,52643446624279E-07;-4,48985397815704E-07;100 nA
0,450439453125;384,102745030234;1,50604248046875E-08;0,450042724609375;10;751;4,52643446624279E-07;-4,48985397815704E-07;100 nA
0,400390625;384,60323302897;1,3153076171875E-08;0,400115966796875;10;752;4,52643446624279E-07;-4,48985397815704E-07;100 nA
0,350341796875;385,103721027707;1,126708984375E-08;0,35009765625;10;753;4,52643446624279E-07;-4,48985397815704E-07;100 nA
0,30029296875;385,604209026443;9,3292236328125E-09;0,300018310546875;10;754;4,52643446624279E-07;-4,48985397815704E-07;100 nA
0,250244140625;386,104697025179;7,2052001953125E-09;0,250030517578125;10;755;4,52643446624279E-07;-4,48985397815704E-07;100 nA
0,2001953125;386,605185023916;4,9591064453125E-09;0,200042724609375;10;756;4,52643446624279E-07;-4,48985397815704E-07;100 nA
0,150146484375;387,105673022652;2,5970458984375E-09;0,1500244140625;10;757;4,52643446624279E-07;-4,48985397815704E-07;100 nA
0,10009765625;387,606161021389;-1,007080078125E-10;0,10009765625;10;758;4,52643446624279E-07;-4,48985397815704E-07;100 nA
0,050048828125;388,106649020125;-4,2999267578125E-09;0,05010986328125;10;759;4,52643446624279E-07;-4,48985397815704E-07;100 nA
0;388,607137018861;-1,33331298828125E-08;0,000125122070312497;10;760;4,52643446624279E-07;-4,48985397815704E-07;100 nA
-0,050048828125;389,107625017598;-1,46820068359375E-08;-0,049774169921875;10;761;4,52643446624279E-07;-4,48985397815704E-07;100 nA
-0,10009765625;389,608113016334;-1,31988525390625E-08;-0,09967041015625;10;762;4,52643446624279E-07;-4,48985397815704E-07;100 nA
-0,150146484375;390,10860101507;-1,51031494140625E-08;-0,149566650390625;10;763;4,52643446624279E-07;-4,48985397815704E-07;100 nA
-0,2001953125;390,609089013807;-1,690673828125E-08;-0,199432373046875;10;764;4,52643446624279E-07;-4,48985397815704E-07;100 nA
-0,250244140625;391,109577012543;-1,81976318359375E-08;-0,249298095703125;10;765;4,52643446624279E-07;-4,48985397815704E-07;100 nA
-0,30029296875;391,61006501128;-1,95770263671875E-08;-0,2991943359375;10;766;4,52643446624279E-07;-4,48985397815704E-07;100 nA
-0,350341796875;392,110553010016;-2,137451171875E-08;-0,349090576171875;10;767;4,52643446624279E-07;-4,48985397815704E-07;100 nA
-0,400390625;392,611041008752;-2,354736328125E-08;-0,399078369140625;10;768;4,52643446624279E-07;-4,48985397815704E-07;100 nA
-0,450439453125;393,111529007489;-2,5579833984375E-08;-0,44891357421875;10;769;4,52643446624279E-07;-4,48985397815704E-07;100 nA
-0,50048828125;393,612017006225;-2,72064208984375E-08;-0,498779296875;10;770;4,52643446624279E-07;-4,48985397815704E-07;100 nA
-0,550537109375;394,112505004962;-2,855224609375E-08;-0,54876708984375;10;771;4,52643446624279E-07;-4,48985397815704E-07;100 nA
-0,6005859375;394,612993003698;-2,9974365234375E-08;-0,598602294921875;10;772;4,52643446624279E-07;-4,48985397815704E-07;100 nA
-0,650634765625;395,113481002434;-3,17779541015625E-08;-0,648468017578125;10;773;4,52643446624279E-07;-4,48985397815704E-07;100 nA
-0,70068359375;395,613969001171;-3,3587646484375E-08;-0,69854736328125;10;774;4,52643446624279E-07;-4,48985397815704E-07;100 nA
-0,750732421875;396,114456999907;-3,55133056640625E-08;-0,748504638671875;10;775;4,52643446624279E-07;-4,48985397815704E-07;100 nA
-0,80078125;396,614944998644;-3,74786376953125E-08;-0,7989501953125;10;776;4,52643446624279E-07;-4,48985397815704E-07;100 nA
-0,850830078125;397,11543299738;-3,94134521484375E-08;-0,84869384765625;10;777;4,52643446624279E-07;-4,48985397815704E-07;100 nA
-0,90087890625;397,615920996116;-4,132080078125E-08;-0,89874267578125;10;778;4,52643446624279E-07;-4,48985397815704E-07;100 nA
-0,950927734375;398,116408994853;-4,3426513671875E-08;-0,948486328125;10;779;4,52643446624279E-07;-4,48985397815704E-07;100 nA
-1,0009765625;398,616896993589;-4,547119140625E-08;-0,99884033203125;10;780;4,52643446624279E-07;-4,48985397815704E-07;100 nA
-0,950927734375;399,117384992325;-4,1229248046875E-08;-0,94879150390625;10;781;4,52643446624279E-07;-4,48985397815704E-07;100 nA
-0,90087890625;399,617872991062;-3,75946044921875E-08;-0,8990478515625;10;782;4,52643446624279E-07;-4,48985397815704E-07;100 nA
-0,850830078125;400,118360989798;-3,41644287109375E-08;-0,84869384765625;10;783;4,52643446624279E-07;-4,48985397815704E-07;100 nA
-0,80078125;400,618848988535;-3,09112548828125E-08;-0,79864501953125;10;784;4,52643446624279E-07;-4,48985397815704E-07;100 nA
-0,750732421875;401,119336987271;-2,7996826171875E-08;-0,74853515625;10;785;4,52643446624279E-07;-4,48985397815704E-07;100 nA
-0,70068359375;401,619824986007;-2,53814697265625E-08;-0,69854736328125;10;786;4,52643446624279E-07;-4,48985397815704E-07;100 nA
-0,650634765625;402,120312984744;-2,29583740234375E-08;-0,648529052734375;10;787;4,52643446624279E-07;-4,48985397815704E-07;100 nA
-0,6005859375;402,62080098348;-2,06512451171875E-08;-0,598541259765625;10;788;4,52643446624279E-07;-4,48985397815704E-07;100 nA
-0,550537109375;403,121288982217;-1,85211181640625E-08;-0,548736572265625;10;789;4,52643446624279E-07;-4,48985397815704E-07;100 nA
-0,50048828125;403,621776980953;-1,6156005859375E-08;-0,498809814453125;10;790;4,52643446624279E-07;-4,48985397815704E-07;100 nA
-0,450439453125;404,122264979689;-1,35955810546875E-08;-0,448944091796875;10;791;4,52643446624279E-07;-4,48985397815704E-07;100 nA
-0,400390625;404,622752978426;-1,0870361328125E-08;-0,399078369140625;10;792;4,52643446624279E-07;-4,48985397815704E-07;100 nA
-0,350341796875;405,123240977162;-8,2794189453125E-09;-0,349212646484375;10;793;4,52643446624279E-07;-4,48985397815704E-07;100 nA
-0,30029296875;405,623728975899;-5,792236328125E-09;-0,299224853515625;10;794;4,52643446624279E-07;-4,48985397815704E-07;100 nA
-0,250244140625;406,124216974635;-3,1402587890625E-09;-0,249359130859375;10;795;4,52643446624279E-07;-4,48985397815704E-07;100 nA
-0,2001953125;406,624704973371;-2,288818359375E-10;-0,199432373046875;10;796;4,52643446624279E-07;-4,48985397815704E-07;100 nA
-0,150146484375;407,125192972108;2,8564453125E-09;-0,14959716796875;10;797;4,52643446624279E-07;-4,48985397815704E-07;100 nA
-0,10009765625;407,625680970844;6,01806640625E-09;-0,099609375;10;798;4,52643446624279E-07;-4,48985397815704E-07;100 nA
-0,050048828125;408,12616896958;9,197998046875E-09;-0,049774169921875;10;799;4,52643446624279E-07;-4,48985397815704E-07;100 nA
0;408,626656968317;1,224365234375E-08;0,000161743164062506;10;800;4,52643446624279E-07;-4,48985397815704E-07;100 nA
