Potential applied (V);Time (s);WE(1).Current (A);WE(1).Potential (V);Scan;Index;Q+;Q-;Current range
0,050048828125;7,40541298130313;1,2115478515625E-09;0,050140380859375;1;1;2,81234458088875E-08;-2,88764387369156E-08;100 nA
0,10009765625;7,90590098003952;2,8564453125E-09;0,100128173828125;1;2;2,81234458088875E-08;-2,88764387369156E-08;100 nA
0,150146484375;8,40638897877591;2,801513671875E-09;0,15008544921875;1;3;2,81234458088875E-08;-2,88764387369156E-08;100 nA
0,2001953125;8,9068769775123;2,215576171875E-09;0,2000732421875;1;4;2,81234458088875E-08;-2,88764387369156E-08;100 nA
0,250244140625;9,40736497624869;1,91650390625E-09;0,250152587890625;1;5;2,81234458088875E-08;-2,88764387369156E-08;100 nA
0,30029296875;9,90785297498508;1,6571044921875E-09;0,300140380859375;1;6;2,81234458088875E-08;-2,88764387369156E-08;100 nA
0,350341796875;10,4083409737215;1,4495849609375E-09;0,350189208984375;1;7;2,81234458088875E-08;-2,88764387369156E-08;100 nA
0,400390625;10,9088289724579;1,3397216796875E-09;0,400146484375;1;8;2,81234458088875E-08;-2,88764387369156E-08;100 nA
0,450439453125;11,4093169711942;1,129150390625E-09;0,45013427734375;1;9;2,81234458088875E-08;-2,88764387369156E-08;100 nA
0,50048828125;11,9098049699306;1,1383056640625E-09;0,500152587890625;1;10;2,81234458088875E-08;-2,88764387369156E-08;100 nA
0,550537109375;12,410292968667;1,06201171875E-09;0,5501708984375;1;11;2,81234458088875E-08;-2,88764387369156E-08;100 nA
0,6005859375;12,9107809674034;1,0711669921875E-09;0,60015869140625;1;12;2,81234458088875E-08;-2,88764387369156E-08;100 nA
0,650634765625;13,4112689661398;1,1444091796875E-09;0,650054931640625;1;13;2,81234458088875E-08;-2,88764387369156E-08;100 nA
0,70068359375;13,9117569648762;1,1627197265625E-09;0,699920654296875;1;14;2,81234458088875E-08;-2,88764387369156E-08;100 nA
0,750732421875;14,4122449636126;1,1932373046875E-09;0,749908447265625;1;15;2,81234458088875E-08;-2,88764387369156E-08;100 nA
0,80078125;14,912732962349;1,2298583984375E-09;0,79986572265625;1;16;2,81234458088875E-08;-2,88764387369156E-08;100 nA
0,850830078125;15,4132209610854;1,3580322265625E-09;0,849609375;1;17;2,81234458088875E-08;-2,88764387369156E-08;100 nA
0,90087890625;15,9137089598217;1,519775390625E-09;0,899658203125;1;18;2,81234458088875E-08;-2,88764387369156E-08;100 nA
0,950927734375;16,4141969585581;1,763916015625E-09;0,95001220703125;1;19;2,81234458088875E-08;-2,88764387369156E-08;100 nA
1,0009765625;16,9146849572945;2,313232421875E-09;0,999755859375;1;20;2,81234458088875E-08;-2,88764387369156E-08;100 nA
0,950927734375;17,4151729560309;1,1444091796875E-09;0,94970703125;1;21;2,81234458088875E-08;-2,88764387369156E-08;100 nA
0,90087890625;17,9156609547673;6,317138671875E-10;0,89935302734375;1;22;2,81234458088875E-08;-2,88764387369156E-08;100 nA
0,850830078125;18,4161489535037;3,997802734375E-10;0,8502197265625;1;23;2,81234458088875E-08;-2,88764387369156E-08;100 nA
0,80078125;18,9166369522401;2,13623046875E-10;0,79986572265625;1;24;2,81234458088875E-08;-2,88764387369156E-08;100 nA
0,750732421875;19,4171249509765;1,251220703125E-10;0,7498779296875;1;25;2,81234458088875E-08;-2,88764387369156E-08;100 nA
0,70068359375;19,9176129497129;3,662109375E-11;0,699981689453125;1;26;2,81234458088875E-08;-2,88764387369156E-08;100 nA
0,650634765625;20,4181009484493;-5,79833984375E-11;0,650054931640625;1;27;2,81234458088875E-08;-2,88764387369156E-08;100 nA
0,6005859375;20,9185889471856;-1,3427734375E-10;0,60015869140625;1;28;2,81234458088875E-08;-2,88764387369156E-08;100 nA
0,550537109375;21,419076945922;-1,617431640625E-10;0,550140380859375;1;29;2,81234458088875E-08;-2,88764387369156E-08;100 nA
0,50048828125;21,9195649446584;-1,556396484375E-10;0,500091552734375;1;30;2,81234458088875E-08;-2,88764387369156E-08;100 nA
0,450439453125;22,4200529433948;-1,983642578125E-10;0,45013427734375;1;31;2,81234458088875E-08;-2,88764387369156E-08;100 nA
0,400390625;22,9205409421312;-2,838134765625E-10;0,400115966796875;1;32;2,81234458088875E-08;-2,88764387369156E-08;100 nA
0,350341796875;23,4210289408676;-3,875732421875E-10;0,350128173828125;1;33;2,81234458088875E-08;-2,88764387369156E-08;100 nA
0,30029296875;23,921516939604;-5,340576171875E-10;0,300140380859375;1;34;2,81234458088875E-08;-2,88764387369156E-08;100 nA
0,250244140625;24,4220049383404;-7,537841796875E-10;0,25006103515625;1;35;2,81234458088875E-08;-2,88764387369156E-08;100 nA
0,2001953125;24,9224929370768;-1,031494140625E-09;0,200042724609375;1;36;2,81234458088875E-08;-2,88764387369156E-08;100 nA
0,150146484375;25,4229809358131;-1,446533203125E-09;0,1500244140625;1;37;2,81234458088875E-08;-2,88764387369156E-08;100 nA
0,10009765625;25,9234689345495;-2,777099609375E-09;0,100189208984375;1;38;2,81234458088875E-08;-2,88764387369156E-08;100 nA
0,050048828125;26,4239569332859;-5,816650390625E-09;0,050079345703125;1;39;2,81234458088875E-08;-2,88764387369156E-08;100 nA
0;26,9244449320223;-3,4912109375E-09;0,000149536132812503;1;40;2,81234458088875E-08;-2,88764387369156E-08;100 nA
-0,050048828125;27,4249329307587;-2,5604248046875E-09;-0,04974365234375;1;41;2,81234458088875E-08;-2,88764387369156E-08;100 nA
-0,10009765625;27,9254209294951;-2,3956298828125E-09;-0,099700927734375;1;42;2,81234458088875E-08;-2,88764387369156E-08;100 nA
-0,150146484375;28,4259089282315;-2,40478515625E-09;-0,1495361328125;1;43;2,81234458088875E-08;-2,88764387369156E-08;100 nA
-0,2001953125;28,9263969269679;-2,5146484375E-09;-0,199462890625;1;44;2,81234458088875E-08;-2,88764387369156E-08;100 nA
-0,250244140625;29,4268849257043;-2,7557373046875E-09;-0,249359130859375;1;45;2,81234458088875E-08;-2,88764387369156E-08;100 nA
-0,30029296875;29,9273729244406;-3,06396484375E-09;-0,299285888671875;1;46;2,81234458088875E-08;-2,88764387369156E-08;100 nA
-0,350341796875;30,427860923177;-3,0792236328125E-09;-0,349212646484375;1;47;2,81234458088875E-08;-2,88764387369156E-08;100 nA
-0,400390625;30,9283489219134;-2,764892578125E-09;-0,399017333984375;1;48;2,81234458088875E-08;-2,88764387369156E-08;100 nA
-0,450439453125;31,4288369206498;-2,3895263671875E-09;-0,448974609375;1;49;2,81234458088875E-08;-2,88764387369156E-08;100 nA
-0,50048828125;31,9293249193862;-2,2491455078125E-09;-0,49896240234375;1;50;2,81234458088875E-08;-2,88764387369156E-08;100 nA
-0,550537109375;32,4298129181226;-2,197265625E-09;-0,548858642578125;1;51;2,81234458088875E-08;-2,88764387369156E-08;100 nA
-0,6005859375;32,930300916859;-2,001953125E-09;-0,598663330078125;1;52;2,81234458088875E-08;-2,88764387369156E-08;100 nA
-0,650634765625;33,4307889155954;-1,641845703125E-09;-0,648590087890625;1;53;2,81234458088875E-08;-2,88764387369156E-08;100 nA
-0,70068359375;33,9312769143318;-1,25732421875E-09;-0,698638916015625;1;54;2,81234458088875E-08;-2,88764387369156E-08;100 nA
-0,750732421875;34,4317649130682;-1,0223388671875E-09;-0,7486572265625;1;55;2,81234458088875E-08;-2,88764387369156E-08;100 nA
-0,80078125;34,9322529118045;-8,97216796875E-10;-0,7989501953125;1;56;2,81234458088875E-08;-2,88764387369156E-08;100 nA
-0,850830078125;35,4327409105409;-8,514404296875E-10;-0,848388671875;1;57;2,81234458088875E-08;-2,88764387369156E-08;100 nA
-0,90087890625;35,9332289092773;-8,209228515625E-10;-0,89874267578125;1;58;2,81234458088875E-08;-2,88764387369156E-08;100 nA
-0,950927734375;36,4337169080137;-8,9111328125E-10;-0,94940185546875;1;59;2,81234458088875E-08;-2,88764387369156E-08;100 nA
-1,0009765625;36,9342049067501;-1,031494140625E-09;-0,99884033203125;1;60;2,81234458088875E-08;-2,88764387369156E-08;100 nA
-0,950927734375;37,4346929054865;-5,7373046875E-10;-0,9490966796875;1;61;2,81234458088875E-08;-2,88764387369156E-08;100 nA
-0,90087890625;37,9351809042229;-3,997802734375E-10;-0,8984375;1;62;2,81234458088875E-08;-2,88764387369156E-08;100 nA
-0,850830078125;38,4356689029593;-3,0517578125E-10;-0,848388671875;1;63;2,81234458088875E-08;-2,88764387369156E-08;100 nA
-0,80078125;38,9361569016957;-2,410888671875E-10;-0,79864501953125;1;64;2,81234458088875E-08;-2,88764387369156E-08;100 nA
-0,750732421875;39,436644900432;-1,46484375E-10;-0,74859619140625;1;65;2,81234458088875E-08;-2,88764387369156E-08;100 nA
-0,70068359375;39,9371328991684;-9,1552734375E-12;-0,6986083984375;1;66;2,81234458088875E-08;-2,88764387369156E-08;100 nA
-0,650634765625;40,4376208979048;1,3427734375E-10;-0,648590087890625;1;67;2,81234458088875E-08;-2,88764387369156E-08;100 nA
-0,6005859375;40,9381088966412;2,86865234375E-10;-0,59869384765625;1;68;2,81234458088875E-08;-2,88764387369156E-08;100 nA
-0,550537109375;41,4385968953776;5,7373046875E-10;-0,548736572265625;1;69;2,81234458088875E-08;-2,88764387369156E-08;100 nA
-0,50048828125;41,939084894114;8,60595703125E-10;-0,49884033203125;1;70;2,81234458088875E-08;-2,88764387369156E-08;100 nA
-0,450439453125;42,4395728928504;1,031494140625E-09;-0,448944091796875;1;71;2,81234458088875E-08;-2,88764387369156E-08;100 nA
-0,400390625;42,9400608915868;1,177978515625E-09;-0,399139404296875;1;72;2,81234458088875E-08;-2,88764387369156E-08;100 nA
-0,350341796875;43,4405488903232;1,5380859375E-09;-0,349212646484375;1;73;2,81234458088875E-08;-2,88764387369156E-08;100 nA
-0,30029296875;43,9410368890595;1,8646240234375E-09;-0,299285888671875;1;74;2,81234458088875E-08;-2,88764387369156E-08;100 nA
-0,250244140625;44,4415248877959;2,276611328125E-09;-0,249420166015625;1;75;2,81234458088875E-08;-2,88764387369156E-08;100 nA
-0,2001953125;44,9420128865323;2,630615234375E-09;-0,199432373046875;1;76;2,81234458088875E-08;-2,88764387369156E-08;100 nA
-0,150146484375;45,4425008852687;2,6641845703125E-09;-0,14959716796875;1;77;2,81234458088875E-08;-2,88764387369156E-08;100 nA
-0,10009765625;45,9429888840051;2,4871826171875E-09;-0,09967041015625;1;78;2,81234458088875E-08;-2,88764387369156E-08;100 nA
-0,050048828125;46,4434768827415;2,288818359375E-09;-0,04974365234375;1;79;2,81234458088875E-08;-2,88764387369156E-08;100 nA
0;46,9439648814779;2,2918701171875E-09;0,000140380859374997;1;80;2,81234458088875E-08;-2,88764387369156E-08;100 nA
0,050048828125;47,4444528802143;2,4749755859375E-09;0,05010986328125;2;81;2,8456412255764E-08;-2,66021862626076E-08;100 nA
0,10009765625;47,9449408789507;3,759765625E-09;0,100006103515625;2;82;2,8456412255764E-08;-2,66021862626076E-08;100 nA
0,150146484375;48,4454288776871;3,0426025390625E-09;0,150115966796875;2;83;2,8456412255764E-08;-2,66021862626076E-08;100 nA
0,2001953125;48,9459168764234;2,459716796875E-09;0,200103759765625;2;84;2,8456412255764E-08;-2,66021862626076E-08;100 nA
0,250244140625;49,4464048751598;2,06298828125E-09;0,250030517578125;2;85;2,8456412255764E-08;-2,66021862626076E-08;100 nA
0,30029296875;49,9468928738962;1,7578125E-09;0,30010986328125;2;86;2,8456412255764E-08;-2,66021862626076E-08;100 nA
0,350341796875;50,4473808726326;1,4984130859375E-09;0,350128173828125;2;87;2,8456412255764E-08;-2,66021862626076E-08;100 nA
0,400390625;50,947868871369;1,3153076171875E-09;0,400146484375;2;88;2,8456412255764E-08;-2,66021862626076E-08;100 nA
0,450439453125;51,4483568701054;1,177978515625E-09;0,4501953125;2;89;2,8456412255764E-08;-2,66021862626076E-08;100 nA
0,50048828125;51,9488448688418;1,0772705078125E-09;0,50018310546875;2;90;2,8456412255764E-08;-2,66021862626076E-08;100 nA
0,550537109375;52,4493328675782;1,0162353515625E-09;0,55010986328125;2;91;2,8456412255764E-08;-2,66021862626076E-08;100 nA
0,6005859375;52,9498208663146;9,8876953125E-10;0,600128173828125;2;92;2,8456412255764E-08;-2,66021862626076E-08;100 nA
0,650634765625;53,4503088650509;9,82666015625E-10;0,650115966796875;2;93;2,8456412255764E-08;-2,66021862626076E-08;100 nA
0,70068359375;53,9507968637873;9,857177734375E-10;0,699951171875;2;94;2,8456412255764E-08;-2,66021862626076E-08;100 nA
0,750732421875;54,4512848625237;1,0406494140625E-09;0,749908447265625;2;95;2,8456412255764E-08;-2,66021862626076E-08;100 nA
0,80078125;54,9517728612601;1,0833740234375E-09;0,79986572265625;2;96;2,8456412255764E-08;-2,66021862626076E-08;100 nA
0,850830078125;55,4522608599965;1,129150390625E-09;0,84991455078125;2;97;2,8456412255764E-08;-2,66021862626076E-08;100 nA
0,90087890625;55,9527488587329;1,275634765625E-09;0,899658203125;2;98;2,8456412255764E-08;-2,66021862626076E-08;100 nA
0,950927734375;56,4532368574693;1,6510009765625E-09;0,94970703125;2;99;2,8456412255764E-08;-2,66021862626076E-08;100 nA
1,0009765625;56,9537248562057;2,2491455078125E-09;0,999755859375;2;100;2,8456412255764E-08;-2,66021862626076E-08;100 nA
0,950927734375;57,4542128549421;1,104736328125E-09;0,94970703125;2;101;2,8456412255764E-08;-2,66021862626076E-08;100 nA
0,90087890625;57,9547008536784;5,9814453125E-10;0,9002685546875;2;102;2,8456412255764E-08;-2,66021862626076E-08;100 nA
0,850830078125;58,4551888524148;3,692626953125E-10;0,8502197265625;2;103;2,8456412255764E-08;-2,66021862626076E-08;100 nA
0,80078125;58,9556768511512;2,25830078125E-10;0,8001708984375;2;104;2,8456412255764E-08;-2,66021862626076E-08;100 nA
0,750732421875;59,4561648498876;1,03759765625E-10;0,7498779296875;2;105;2,8456412255764E-08;-2,66021862626076E-08;100 nA
0,70068359375;59,956652848624;7,32421875E-11;0,70001220703125;2;106;2,8456412255764E-08;-2,66021862626076E-08;100 nA
0,650634765625;60,4571408473604;-6,40869140625E-11;0,65008544921875;2;107;2,8456412255764E-08;-2,66021862626076E-08;100 nA
0,6005859375;60,9576288460968;-1,190185546875E-10;0,60009765625;2;108;2,8456412255764E-08;-2,66021862626076E-08;100 nA
0,550537109375;61,4581168448332;-1,0986328125E-10;0,550079345703125;2;109;2,8456412255764E-08;-2,66021862626076E-08;100 nA
0,50048828125;61,9586048435696;-1,15966796875E-10;0,5001220703125;2;110;2,8456412255764E-08;-2,66021862626076E-08;100 nA
0,450439453125;62,4590928423059;-1,5869140625E-10;0,45013427734375;2;111;2,8456412255764E-08;-2,66021862626076E-08;100 nA
0,400390625;62,9595808410423;-2,410888671875E-10;0,400146484375;2;112;2,8456412255764E-08;-2,66021862626076E-08;100 nA
0,350341796875;63,4600688397787;-3,23486328125E-10;0,35009765625;2;113;2,8456412255764E-08;-2,66021862626076E-08;100 nA
0,30029296875;63,9605568385151;-4,730224609375E-10;0,300140380859375;2;114;2,8456412255764E-08;-2,66021862626076E-08;100 nA
0,250244140625;64,4610448372515;-6,927490234375E-10;0,250091552734375;2;115;2,8456412255764E-08;-2,66021862626076E-08;100 nA
0,2001953125;64,9615328359879;-9,58251953125E-10;0,200103759765625;2;116;2,8456412255764E-08;-2,66021862626076E-08;100 nA
0,150146484375;65,4620208347243;-1,348876953125E-09;0,15008544921875;2;117;2,8456412255764E-08;-2,66021862626076E-08;100 nA
0,10009765625;65,9625088334607;-2,5360107421875E-09;0,100128173828125;2;118;2,8456412255764E-08;-2,66021862626076E-08;100 nA
0,050048828125;66,4629968321971;-5,7769775390625E-09;0,05010986328125;2;119;2,8456412255764E-08;-2,66021862626076E-08;100 nA
0;66,9634848309335;-3,656005859375E-09;0,00018310546875;2;120;2,8456412255764E-08;-2,66021862626076E-08;100 nA
-0,050048828125;67,4639728296698;-2,6458740234375E-09;-0,0498046875;2;121;2,8456412255764E-08;-2,66021862626076E-08;100 nA
-0,10009765625;67,9644608284062;-2,4566650390625E-09;-0,099700927734375;2;122;2,8456412255764E-08;-2,66021862626076E-08;100 nA
-0,150146484375;68,4649488271426;-2,386474609375E-09;-0,1495361328125;2;123;2,8456412255764E-08;-2,66021862626076E-08;100 nA
-0,2001953125;68,965436825879;-2,3895263671875E-09;-0,199493408203125;2;124;2,8456412255764E-08;-2,66021862626076E-08;100 nA
-0,250244140625;69,4659248246154;-2,55126953125E-09;-0,249359130859375;2;125;2,8456412255764E-08;-2,66021862626076E-08;100 nA
-0,30029296875;69,9664128233518;-2,752685546875E-09;-0,29925537109375;2;126;2,8456412255764E-08;-2,66021862626076E-08;100 nA
-0,350341796875;70,4669008220882;-2,6885986328125E-09;-0,349151611328125;2;127;2,8456412255764E-08;-2,66021862626076E-08;100 nA
-0,400390625;70,9673888208246;-2,3468017578125E-09;-0,399078369140625;2;128;2,8456412255764E-08;-2,66021862626076E-08;100 nA
-0,450439453125;71,467876819561;-2,093505859375E-09;-0,44903564453125;2;129;2,8456412255764E-08;-2,66021862626076E-08;100 nA
-0,50048828125;71,9683648182973;-2,020263671875E-09;-0,498931884765625;2;130;2,8456412255764E-08;-2,66021862626076E-08;100 nA
-0,550537109375;72,4688528170337;-1,959228515625E-09;-0,5487060546875;2;131;2,8456412255764E-08;-2,66021862626076E-08;100 nA
-0,6005859375;72,9693408157701;-1,739501953125E-09;-0,598602294921875;2;132;2,8456412255764E-08;-2,66021862626076E-08;100 nA
-0,650634765625;73,4698288145065;-1,33056640625E-09;-0,648651123046875;2;133;2,8456412255764E-08;-2,66021862626076E-08;100 nA
-0,70068359375;73,9703168132429;-9,94873046875E-10;-0,6986083984375;2;134;2,8456412255764E-08;-2,66021862626076E-08;100 nA
-0,750732421875;74,4708048119793;-8,392333984375E-10;-0,748626708984375;2;135;2,8456412255764E-08;-2,66021862626076E-08;100 nA
-0,80078125;74,9712928107157;-7,293701171875E-10;-0,7989501953125;2;136;2,8456412255764E-08;-2,66021862626076E-08;100 nA
-0,850830078125;75,4717808094521;-6,89697265625E-10;-0,848388671875;2;137;2,8456412255764E-08;-2,66021862626076E-08;100 nA
-0,90087890625;75,9722688081885;-7,2021484375E-10;-0,89874267578125;2;138;2,8456412255764E-08;-2,66021862626076E-08;100 nA
-0,950927734375;76,4727568069248;-7,87353515625E-10;-0,9490966796875;2;139;2,8456412255764E-08;-2,66021862626076E-08;100 nA
-1,0009765625;76,9732448056612;-9,70458984375E-10;-0,99884033203125;2;140;2,8456412255764E-08;-2,66021862626076E-08;100 nA
-0,950927734375;77,4737328043976;-4,974365234375E-10;-0,948486328125;2;141;2,8456412255764E-08;-2,66021862626076E-08;100 nA
-0,90087890625;77,974220803134;-3,23486328125E-10;-0,89874267578125;2;142;2,8456412255764E-08;-2,66021862626076E-08;100 nA
-0,850830078125;78,4747088018704;-2,777099609375E-10;-0,8489990234375;2;143;2,8456412255764E-08;-2,66021862626076E-08;100 nA
-0,80078125;78,9751968006068;-2,3193359375E-10;-0,79864501953125;2;144;2,8456412255764E-08;-2,66021862626076E-08;100 nA
-0,750732421875;79,4756847993432;-1,434326171875E-10;-0,7486572265625;2;145;2,8456412255764E-08;-2,66021862626076E-08;100 nA
-0,70068359375;79,9761727980796;-1,220703125E-11;-0,6986083984375;2;146;2,8456412255764E-08;-2,66021862626076E-08;100 nA
-0,650634765625;80,476660796816;8,544921875E-11;-0,64862060546875;2;147;2,8456412255764E-08;-2,66021862626076E-08;100 nA
-0,6005859375;80,9771487955524;2,38037109375E-10;-0,598663330078125;2;148;2,8456412255764E-08;-2,66021862626076E-08;100 nA
-0,550537109375;81,4776367942887;5,06591796875E-10;-0,54876708984375;2;149;2,8456412255764E-08;-2,66021862626076E-08;100 nA
-0,50048828125;81,9781247930251;7,843017578125E-10;-0,49884033203125;2;150;2,8456412255764E-08;-2,66021862626076E-08;100 nA
-0,450439453125;82,4786127917615;9,521484375E-10;-0,449005126953125;2;151;2,8456412255764E-08;-2,66021862626076E-08;100 nA
-0,400390625;82,9791007904979;1,104736328125E-09;-0,399078369140625;2;152;2,8456412255764E-08;-2,66021862626076E-08;100 nA
-0,350341796875;83,4795887892343;1,3824462890625E-09;-0,349212646484375;2;153;2,8456412255764E-08;-2,66021862626076E-08;100 nA
-0,30029296875;83,9800767879707;1,751708984375E-09;-0,29931640625;2;154;2,8456412255764E-08;-2,66021862626076E-08;100 nA
-0,250244140625;84,4805647867071;2,16064453125E-09;-0,249420166015625;2;155;2,8456412255764E-08;-2,66021862626076E-08;100 nA
-0,2001953125;84,9810527854435;2,5146484375E-09;-0,199493408203125;2;156;2,8456412255764E-08;-2,66021862626076E-08;100 nA
-0,150146484375;85,4815407841799;2,703857421875E-09;-0,149566650390625;2;157;2,8456412255764E-08;-2,66021862626076E-08;100 nA
-0,10009765625;85,9820287829162;2,5360107421875E-09;-0,099700927734375;2;158;2,8456412255764E-08;-2,66021862626076E-08;100 nA
-0,050048828125;86,4825167816526;2,34375E-09;-0,0498046875;2;159;2,8456412255764E-08;-2,66021862626076E-08;100 nA
0;86,983004780389;2,288818359375E-09;0,000125122070312497;2;160;2,8456412255764E-08;-2,66021862626076E-08;100 nA
0,050048828125;87,4834927791254;2,50244140625E-09;0,050048828125;3;161;2,83510237932205E-08;-2,58079543709755E-08;100 nA
0,10009765625;87,9839807778618;3,7811279296875E-09;0,10009765625;3;162;2,83510237932205E-08;-2,58079543709755E-08;100 nA
0,150146484375;88,4844687765982;2,9754638671875E-09;0,15008544921875;3;163;2,83510237932205E-08;-2,58079543709755E-08;100 nA
0,2001953125;88,9849567753346;2,398681640625E-09;0,20001220703125;3;164;2,83510237932205E-08;-2,58079543709755E-08;100 nA
0,250244140625;89,485444774071;2,01416015625E-09;0,25006103515625;3;165;2,83510237932205E-08;-2,58079543709755E-08;100 nA
0,30029296875;89,9859327728074;1,708984375E-09;0,30010986328125;3;166;2,83510237932205E-08;-2,58079543709755E-08;100 nA
0,350341796875;90,4864207715437;1,45263671875E-09;0,350128173828125;3;167;2,83510237932205E-08;-2,58079543709755E-08;100 nA
0,400390625;90,9869087702801;1,2847900390625E-09;0,400177001953125;3;168;2,83510237932205E-08;-2,58079543709755E-08;100 nA
0,450439453125;91,4873967690165;1,1322021484375E-09;0,450103759765625;3;169;2,83510237932205E-08;-2,58079543709755E-08;100 nA
0,50048828125;91,9878847677529;9,979248046875E-10;0,5001220703125;3;170;2,83510237932205E-08;-2,58079543709755E-08;100 nA
0,550537109375;92,4883727664893;9,70458984375E-10;0,550079345703125;3;171;2,83510237932205E-08;-2,58079543709755E-08;100 nA
0,6005859375;92,9888607652257;9,368896484375E-10;0,600067138671875;3;172;2,83510237932205E-08;-2,58079543709755E-08;100 nA
0,650634765625;93,4893487639621;9,21630859375E-10;0,650054931640625;3;173;2,83510237932205E-08;-2,58079543709755E-08;100 nA
0,70068359375;93,9898367626985;9,552001953125E-10;0,699981689453125;3;174;2,83510237932205E-08;-2,58079543709755E-08;100 nA
0,750732421875;94,4903247614349;1,0009765625E-09;0,7498779296875;3;175;2,83510237932205E-08;-2,58079543709755E-08;100 nA
0,80078125;94,9908127601713;1,06201171875E-09;0,8001708984375;3;176;2,83510237932205E-08;-2,58079543709755E-08;100 nA
0,850830078125;95,4913007589076;1,0650634765625E-09;0,8502197265625;3;177;2,83510237932205E-08;-2,58079543709755E-08;100 nA
0,90087890625;95,991788757644;1,2603759765625E-09;0,899658203125;3;178;2,83510237932205E-08;-2,58079543709755E-08;100 nA
0,950927734375;96,4922767563804;1,6998291015625E-09;0,94940185546875;3;179;2,83510237932205E-08;-2,58079543709755E-08;100 nA
1,0009765625;96,9927647551168;2,2247314453125E-09;0,9991455078125;3;180;2,83510237932205E-08;-2,58079543709755E-08;100 nA
0,950927734375;97,4932527538532;1,116943359375E-09;0,95001220703125;3;181;2,83510237932205E-08;-2,58079543709755E-08;100 nA
0,90087890625;97,9937407525896;6,40869140625E-10;0,8990478515625;3;182;2,83510237932205E-08;-2,58079543709755E-08;100 nA
0,850830078125;98,494228751326;3,814697265625E-10;0,84991455078125;3;183;2,83510237932205E-08;-2,58079543709755E-08;100 nA
0,80078125;98,9947167500624;2,410888671875E-10;0,8001708984375;3;184;2,83510237932205E-08;-2,58079543709755E-08;100 nA
0,750732421875;99,4952047487988;1,8310546875E-10;0,749908447265625;3;185;2,83510237932205E-08;-2,58079543709755E-08;100 nA
0,70068359375;99,9956927475351;1,007080078125E-10;0,70001220703125;3;186;2,83510237932205E-08;-2,58079543709755E-08;100 nA
0,650634765625;100,496180746272;2,74658203125E-11;0,6500244140625;3;187;2,83510237932205E-08;-2,58079543709755E-08;100 nA
0,6005859375;100,996668745008;-1,52587890625E-11;0,600128173828125;3;188;2,83510237932205E-08;-2,58079543709755E-08;100 nA
0,550537109375;101,497156743744;-4,8828125E-11;0,550140380859375;3;189;2,83510237932205E-08;-2,58079543709755E-08;100 nA
0,50048828125;101,997644742481;-7,32421875E-11;0,500152587890625;3;190;2,83510237932205E-08;-2,58079543709755E-08;100 nA
0,450439453125;102,498132741217;-1,0986328125E-10;0,4500732421875;3;191;2,83510237932205E-08;-2,58079543709755E-08;100 nA
0,400390625;102,998620739953;-1,678466796875E-10;0,400146484375;3;192;2,83510237932205E-08;-2,58079543709755E-08;100 nA
0,350341796875;103,49910873869;-2,593994140625E-10;0,350128173828125;3;193;2,83510237932205E-08;-2,58079543709755E-08;100 nA
0,30029296875;103,999596737426;-4,0283203125E-10;0,3001708984375;3;194;2,83510237932205E-08;-2,58079543709755E-08;100 nA
0,250244140625;104,500084736163;-6,195068359375E-10;0,250152587890625;3;195;2,83510237932205E-08;-2,58079543709755E-08;100 nA
0,2001953125;105,000572734899;-8,72802734375E-10;0,200042724609375;3;196;2,83510237932205E-08;-2,58079543709755E-08;100 nA
0,150146484375;105,501060733635;-1,2725830078125E-09;0,150115966796875;3;197;2,83510237932205E-08;-2,58079543709755E-08;100 nA
0,10009765625;106,001548732372;-2,42919921875E-09;0,10009765625;3;198;2,83510237932205E-08;-2,58079543709755E-08;100 nA
0,050048828125;106,502036731108;-5,5908203125E-09;0,0501708984375;3;199;2,83510237932205E-08;-2,58079543709755E-08;100 nA
0;107,002524729845;-3,8848876953125E-09;0,000164794921875003;3;200;2,83510237932205E-08;-2,58079543709755E-08;100 nA
-0,050048828125;107,503012728581;-2,6519775390625E-09;-0,04974365234375;3;201;2,83510237932205E-08;-2,58079543709755E-08;100 nA
-0,10009765625;108,003500727317;-2,4444580078125E-09;-0,09967041015625;3;202;2,83510237932205E-08;-2,58079543709755E-08;100 nA
-0,150146484375;108,503988726054;-2,349853515625E-09;-0,149566650390625;3;203;2,83510237932205E-08;-2,58079543709755E-08;100 nA
-0,2001953125;109,00447672479;-2,374267578125E-09;-0,199462890625;3;204;2,83510237932205E-08;-2,58079543709755E-08;100 nA
-0,250244140625;109,504964723527;-2,5604248046875E-09;-0,249420166015625;3;205;2,83510237932205E-08;-2,58079543709755E-08;100 nA
-0,30029296875;110,005452722263;-2,7374267578125E-09;-0,29925537109375;3;206;2,83510237932205E-08;-2,58079543709755E-08;100 nA
-0,350341796875;110,505940720999;-2,606201171875E-09;-0,34918212890625;3;207;2,83510237932205E-08;-2,58079543709755E-08;100 nA
-0,400390625;111,006428719736;-2,2430419921875E-09;-0,399078369140625;3;208;2,83510237932205E-08;-2,58079543709755E-08;100 nA
-0,450439453125;111,506916718472;-2,0233154296875E-09;-0,448944091796875;3;209;2,83510237932205E-08;-2,58079543709755E-08;100 nA
-0,50048828125;112,007404717208;-1,96533203125E-09;-0,498870849609375;3;210;2,83510237932205E-08;-2,58079543709755E-08;100 nA
-0,550537109375;112,507892715945;-1,8951416015625E-09;-0,548797607421875;3;211;2,83510237932205E-08;-2,58079543709755E-08;100 nA
-0,6005859375;113,008380714681;-1,641845703125E-09;-0,5986328125;3;212;2,83510237932205E-08;-2,58079543709755E-08;100 nA
-0,650634765625;113,508868713418;-1,2481689453125E-09;-0,648681640625;3;213;2,83510237932205E-08;-2,58079543709755E-08;100 nA
-0,70068359375;114,009356712154;-9,796142578125E-10;-0,6986083984375;3;214;2,83510237932205E-08;-2,58079543709755E-08;100 nA
-0,750732421875;114,50984471089;-7,99560546875E-10;-0,748748779296875;3;215;2,83510237932205E-08;-2,58079543709755E-08;100 nA
-0,80078125;115,010332709627;-6,805419921875E-10;-0,79864501953125;3;216;2,83510237932205E-08;-2,58079543709755E-08;100 nA
-0,850830078125;115,510820708363;-6,500244140625E-10;-0,84869384765625;3;217;2,83510237932205E-08;-2,58079543709755E-08;100 nA
-0,90087890625;116,0113087071;-6,805419921875E-10;-0,89874267578125;3;218;2,83510237932205E-08;-2,58079543709755E-08;100 nA
-0,950927734375;116,511796705836;-7,8125E-10;-0,9490966796875;3;219;2,83510237932205E-08;-2,58079543709755E-08;100 nA
-1,0009765625;117,012284704572;-9,521484375E-10;-0,9991455078125;3;220;2,83510237932205E-08;-2,58079543709755E-08;100 nA
-0,950927734375;117,512772703309;-5,401611328125E-10;-0,9490966796875;3;221;2,83510237932205E-08;-2,58079543709755E-08;100 nA
-0,90087890625;118,013260702045;-3,5400390625E-10;-0,89874267578125;3;222;2,83510237932205E-08;-2,58079543709755E-08;100 nA
-0,850830078125;118,513748700782;-2,532958984375E-10;-0,848388671875;3;223;2,83510237932205E-08;-2,58079543709755E-08;100 nA
-0,80078125;119,014236699518;-2,166748046875E-10;-0,7989501953125;3;224;2,83510237932205E-08;-2,58079543709755E-08;100 nA
-0,750732421875;119,514724698254;-1,52587890625E-10;-0,748626708984375;3;225;2,83510237932205E-08;-2,58079543709755E-08;100 nA
-0,70068359375;120,015212696991;-3,662109375E-11;-0,698577880859375;3;226;2,83510237932205E-08;-2,58079543709755E-08;100 nA
-0,650634765625;120,515700695727;7,32421875E-11;-0,648651123046875;3;227;2,83510237932205E-08;-2,58079543709755E-08;100 nA
-0,6005859375;121,016188694463;2,13623046875E-10;-0,59869384765625;3;228;2,83510237932205E-08;-2,58079543709755E-08;100 nA
-0,550537109375;121,5166766932;4,608154296875E-10;-0,548797607421875;3;229;2,83510237932205E-08;-2,58079543709755E-08;100 nA
-0,50048828125;122,017164691936;7,110595703125E-10;-0,4989013671875;3;230;2,83510237932205E-08;-2,58079543709755E-08;100 nA
-0,450439453125;122,517652690673;9,1552734375E-10;-0,449005126953125;3;231;2,83510237932205E-08;-2,58079543709755E-08;100 nA
-0,400390625;123,018140689409;1,0986328125E-09;-0,39910888671875;3;232;2,83510237932205E-08;-2,58079543709755E-08;100 nA
-0,350341796875;123,518628688145;1,336669921875E-09;-0,34918212890625;3;233;2,83510237932205E-08;-2,58079543709755E-08;100 nA
-0,30029296875;124,019116686882;1,7486572265625E-09;-0,299285888671875;3;234;2,83510237932205E-08;-2,58079543709755E-08;100 nA
-0,250244140625;124,519604685618;2,1820068359375E-09;-0,2493896484375;3;235;2,83510237932205E-08;-2,58079543709755E-08;100 nA
-0,2001953125;125,020092684355;2,5634765625E-09;-0,199493408203125;3;236;2,83510237932205E-08;-2,58079543709755E-08;100 nA
-0,150146484375;125,520580683091;2,7740478515625E-09;-0,149658203125;3;237;2,83510237932205E-08;-2,58079543709755E-08;100 nA
-0,10009765625;126,021068681827;2,716064453125E-09;-0,099700927734375;3;238;2,83510237932205E-08;-2,58079543709755E-08;100 nA
-0,050048828125;126,521556680564;2,3651123046875E-09;-0,0498046875;3;239;2,83510237932205E-08;-2,58079543709755E-08;100 nA
0;127,0220446793;2,4505615234375E-09;0,000131225585937506;3;240;2,83510237932205E-08;-2,58079543709755E-08;100 nA
0,050048828125;127,522532678037;2,6702880859375E-09;0,05010986328125;4;241;2,85343080759048E-08;-2,65945494174957E-08;100 nA
0,10009765625;128,023020676773;4,0374755859375E-09;0,100067138671875;4;242;2,85343080759048E-08;-2,65945494174957E-08;100 nA
0,150146484375;128,523508675509;2,996826171875E-09;0,150054931640625;4;243;2,85343080759048E-08;-2,65945494174957E-08;100 nA
0,2001953125;129,023996674246;2,4017333984375E-09;0,200103759765625;4;244;2,85343080759048E-08;-2,65945494174957E-08;100 nA
0,250244140625;129,524484672982;2,01416015625E-09;0,25006103515625;4;245;2,85343080759048E-08;-2,65945494174957E-08;100 nA
0,30029296875;130,024972671719;1,67236328125E-09;0,300018310546875;4;246;2,85343080759048E-08;-2,65945494174957E-08;100 nA
0,350341796875;130,525460670455;1,4068603515625E-09;0,35009765625;4;247;2,85343080759048E-08;-2,65945494174957E-08;100 nA
0,400390625;131,025948669191;1,2237548828125E-09;0,400115966796875;4;248;2,85343080759048E-08;-2,65945494174957E-08;100 nA
0,450439453125;131,526436667928;1,116943359375E-09;0,45013427734375;4;249;2,85343080759048E-08;-2,65945494174957E-08;100 nA
0,50048828125;132,026924666664;1,019287109375E-09;0,5001220703125;4;250;2,85343080759048E-08;-2,65945494174957E-08;100 nA
0,550537109375;132,5274126654;9,46044921875E-10;0,550140380859375;4;251;2,85343080759048E-08;-2,65945494174957E-08;100 nA
0,6005859375;133,027900664137;9,033203125E-10;0,6002197265625;4;252;2,85343080759048E-08;-2,65945494174957E-08;100 nA
0,650634765625;133,528388662873;9,21630859375E-10;0,65008544921875;4;253;2,85343080759048E-08;-2,65945494174957E-08;100 nA
0,70068359375;134,02887666161;9,46044921875E-10;0,699951171875;4;254;2,85343080759048E-08;-2,65945494174957E-08;100 nA
0,750732421875;134,529364660346;9,918212890625E-10;0,749847412109375;4;255;2,85343080759048E-08;-2,65945494174957E-08;100 nA
0,80078125;135,029852659082;1,055908203125E-09;0,79925537109375;4;256;2,85343080759048E-08;-2,65945494174957E-08;100 nA
0,850830078125;135,530340657819;1,0711669921875E-09;0,84991455078125;4;257;2,85343080759048E-08;-2,65945494174957E-08;100 nA
0,90087890625;136,030828656555;1,2359619140625E-09;0,89996337890625;4;258;2,85343080759048E-08;-2,65945494174957E-08;100 nA
0,950927734375;136,531316655292;1,611328125E-09;0,94970703125;4;259;2,85343080759048E-08;-2,65945494174957E-08;100 nA
1,0009765625;137,031804654028;2,191162109375E-09;0,99945068359375;4;260;2,85343080759048E-08;-2,65945494174957E-08;100 nA
0,950927734375;137,532292652764;1,1199951171875E-09;0,95001220703125;4;261;2,85343080759048E-08;-2,65945494174957E-08;100 nA
0,90087890625;138,032780651501;6,378173828125E-10;0,899658203125;4;262;2,85343080759048E-08;-2,65945494174957E-08;100 nA
0,850830078125;138,533268650237;3,90625E-10;0,849609375;4;263;2,85343080759048E-08;-2,65945494174957E-08;100 nA
0,80078125;139,033756648974;2,288818359375E-10;0,79986572265625;4;264;2,85343080759048E-08;-2,65945494174957E-08;100 nA
0,750732421875;139,53424464771;1,28173828125E-10;0,7498779296875;4;265;2,85343080759048E-08;-2,65945494174957E-08;100 nA
0,70068359375;140,034732646446;5,79833984375E-11;0,699981689453125;4;266;2,85343080759048E-08;-2,65945494174957E-08;100 nA
0,650634765625;140,535220645183;-9,1552734375E-12;0,650054931640625;4;267;2,85343080759048E-08;-2,65945494174957E-08;100 nA
0,6005859375;141,035708643919;-6,103515625E-11;0,60009765625;4;268;2,85343080759048E-08;-2,65945494174957E-08;100 nA
0,550537109375;141,536196642655;-1,007080078125E-10;0,55010986328125;4;269;2,85343080759048E-08;-2,65945494174957E-08;100 nA
0,50048828125;142,036684641392;-1,15966796875E-10;0,500152587890625;4;270;2,85343080759048E-08;-2,65945494174957E-08;100 nA
0,450439453125;142,537172640128;-1,52587890625E-10;0,45013427734375;4;271;2,85343080759048E-08;-2,65945494174957E-08;100 nA
0,400390625;143,037660638865;-1,800537109375E-10;0,4000244140625;4;272;2,85343080759048E-08;-2,65945494174957E-08;100 nA
0,350341796875;143,538148637601;-2,716064453125E-10;0,35015869140625;4;273;2,85343080759048E-08;-2,65945494174957E-08;100 nA
0,30029296875;144,038636636337;-4,21142578125E-10;0,30010986328125;4;274;2,85343080759048E-08;-2,65945494174957E-08;100 nA
0,250244140625;144,539124635074;-6,34765625E-10;0,25006103515625;4;275;2,85343080759048E-08;-2,65945494174957E-08;100 nA
0,2001953125;145,03961263381;-8,758544921875E-10;0,2000732421875;4;276;2,85343080759048E-08;-2,65945494174957E-08;100 nA
0,150146484375;145,540100632547;-1,287841796875E-09;0,15008544921875;4;277;2,85343080759048E-08;-2,65945494174957E-08;100 nA
0,10009765625;146,040588631283;-2,386474609375E-09;0,100128173828125;4;278;2,85343080759048E-08;-2,65945494174957E-08;100 nA
0,050048828125;146,541076630019;-5,9051513671875E-09;0,05010986328125;4;279;2,85343080759048E-08;-2,65945494174957E-08;100 nA
0;147,041564628756;-4,50439453125E-09;0,0001373291015625;4;280;2,85343080759048E-08;-2,65945494174957E-08;100 nA
-0,050048828125;147,542052627492;-2,789306640625E-09;-0,04974365234375;4;281;2,85343080759048E-08;-2,65945494174957E-08;100 nA
-0,10009765625;148,042540626229;-2,5634765625E-09;-0,09967041015625;4;282;2,85343080759048E-08;-2,65945494174957E-08;100 nA
-0,150146484375;148,543028624965;-2,47802734375E-09;-0,149566650390625;4;283;2,85343080759048E-08;-2,65945494174957E-08;100 nA
-0,2001953125;149,043516623701;-2,5054931640625E-09;-0,199462890625;4;284;2,85343080759048E-08;-2,65945494174957E-08;100 nA
-0,250244140625;149,544004622438;-2,7191162109375E-09;-0,249359130859375;4;285;2,85343080759048E-08;-2,65945494174957E-08;100 nA
-0,30029296875;150,044492621174;-2,783203125E-09;-0,299285888671875;4;286;2,85343080759048E-08;-2,65945494174957E-08;100 nA
-0,350341796875;150,54498061991;-2,618408203125E-09;-0,349151611328125;4;287;2,85343080759048E-08;-2,65945494174957E-08;100 nA
-0,400390625;151,045468618647;-2,2705078125E-09;-0,39910888671875;4;288;2,85343080759048E-08;-2,65945494174957E-08;100 nA
-0,450439453125;151,545956617383;-2,0599365234375E-09;-0,44903564453125;4;289;2,85343080759048E-08;-2,65945494174957E-08;100 nA
-0,50048828125;152,04644461612;-1,9989013671875E-09;-0,4989013671875;4;290;2,85343080759048E-08;-2,65945494174957E-08;100 nA
-0,550537109375;152,546932614856;-1,86767578125E-09;-0,548797607421875;4;291;2,85343080759048E-08;-2,65945494174957E-08;100 nA
-0,6005859375;153,047420613592;-1,5594482421875E-09;-0,5986328125;4;292;2,85343080759048E-08;-2,65945494174957E-08;100 nA
-0,650634765625;153,547908612329;-1,1688232421875E-09;-0,64862060546875;4;293;2,85343080759048E-08;-2,65945494174957E-08;100 nA
-0,70068359375;154,048396611065;-9,124755859375E-10;-0,698577880859375;4;294;2,85343080759048E-08;-2,65945494174957E-08;100 nA
-0,750732421875;154,548884609802;-7,9345703125E-10;-0,748565673828125;4;295;2,85343080759048E-08;-2,65945494174957E-08;100 nA
-0,80078125;155,049372608538;-6,988525390625E-10;-0,79864501953125;4;296;2,85343080759048E-08;-2,65945494174957E-08;100 nA
-0,850830078125;155,549860607274;-6,500244140625E-10;-0,8489990234375;4;297;2,85343080759048E-08;-2,65945494174957E-08;100 nA
-0,90087890625;156,050348606011;-6,805419921875E-10;-0,89874267578125;4;298;2,85343080759048E-08;-2,65945494174957E-08;100 nA
-0,950927734375;156,550836604747;-7,62939453125E-10;-0,94879150390625;4;299;2,85343080759048E-08;-2,65945494174957E-08;100 nA
-1,0009765625;157,051324603484;-9,185791015625E-10;-0,9991455078125;4;300;2,85343080759048E-08;-2,65945494174957E-08;100 nA
-0,950927734375;157,55181260222;-5,035400390625E-10;-0,9490966796875;4;301;2,85343080759048E-08;-2,65945494174957E-08;100 nA
-0,90087890625;158,052300600956;-3,662109375E-10;-0,89813232421875;4;302;2,85343080759048E-08;-2,65945494174957E-08;100 nA
-0,850830078125;158,552788599693;-2,349853515625E-10;-0,8489990234375;4;303;2,85343080759048E-08;-2,65945494174957E-08;100 nA
-0,80078125;159,053276598429;-1,708984375E-10;-0,79864501953125;4;304;2,85343080759048E-08;-2,65945494174957E-08;100 nA
-0,750732421875;159,553764597165;-1,190185546875E-10;-0,7486572265625;4;305;2,85343080759048E-08;-2,65945494174957E-08;100 nA
-0,70068359375;160,054252595902;-3,662109375E-11;-0,6986083984375;4;306;2,85343080759048E-08;-2,65945494174957E-08;100 nA
-0,650634765625;160,554740594638;5,18798828125E-11;-0,648651123046875;4;307;2,85343080759048E-08;-2,65945494174957E-08;100 nA
-0,6005859375;161,055228593375;1,983642578125E-10;-0,598602294921875;4;308;2,85343080759048E-08;-2,65945494174957E-08;100 nA
-0,550537109375;161,555716592111;4,425048828125E-10;-0,548736572265625;4;309;2,85343080759048E-08;-2,65945494174957E-08;100 nA
-0,50048828125;162,056204590847;7,32421875E-10;-0,498809814453125;4;310;2,85343080759048E-08;-2,65945494174957E-08;100 nA
-0,450439453125;162,556692589584;9,46044921875E-10;-0,449005126953125;4;311;2,85343080759048E-08;-2,65945494174957E-08;100 nA
-0,400390625;163,05718058832;1,123046875E-09;-0,399139404296875;4;312;2,85343080759048E-08;-2,65945494174957E-08;100 nA
-0,350341796875;163,557668587057;1,3763427734375E-09;-0,349151611328125;4;313;2,85343080759048E-08;-2,65945494174957E-08;100 nA
-0,30029296875;164,058156585793;1,7425537109375E-09;-0,29931640625;4;314;2,85343080759048E-08;-2,65945494174957E-08;100 nA
-0,250244140625;164,558644584529;2,1331787109375E-09;-0,249420166015625;4;315;2,85343080759048E-08;-2,65945494174957E-08;100 nA
-0,2001953125;165,059132583266;2,569580078125E-09;-0,19952392578125;4;316;2,85343080759048E-08;-2,65945494174957E-08;100 nA
-0,150146484375;165,559620582002;2,789306640625E-09;-0,149627685546875;4;317;2,85343080759048E-08;-2,65945494174957E-08;100 nA
-0,10009765625;166,060108580739;2,8594970703125E-09;-0,099700927734375;4;318;2,85343080759048E-08;-2,65945494174957E-08;100 nA
-0,050048828125;166,560596579475;2,5543212890625E-09;-0,049835205078125;4;319;2,85343080759048E-08;-2,65945494174957E-08;100 nA
0;167,061084578211;2,496337890625E-09;0,000128173828124994;4;320;2,85343080759048E-08;-2,65945494174957E-08;100 nA
0,050048828125;167,561572576948;2,8289794921875E-09;0,050079345703125;5;321;2,86274775862694E-08;-2,6421956717968E-08;100 nA
0,10009765625;168,062060575684;3,99169921875E-09;0,10009765625;5;322;2,86274775862694E-08;-2,6421956717968E-08;100 nA
0,150146484375;168,56254857442;2,972412109375E-09;0,150115966796875;5;323;2,86274775862694E-08;-2,6421956717968E-08;100 nA
0,2001953125;169,063036573157;2,3681640625E-09;0,200042724609375;5;324;2,86274775862694E-08;-2,6421956717968E-08;100 nA
0,250244140625;169,563524571893;1,9775390625E-09;0,2501220703125;5;325;2,86274775862694E-08;-2,6421956717968E-08;100 nA
0,30029296875;170,06401257063;1,67236328125E-09;0,300079345703125;5;326;2,86274775862694E-08;-2,6421956717968E-08;100 nA
0,350341796875;170,564500569366;1,416015625E-09;0,35009765625;5;327;2,86274775862694E-08;-2,6421956717968E-08;100 nA
0,400390625;171,064988568102;1,2481689453125E-09;0,400146484375;5;328;2,86274775862694E-08;-2,6421956717968E-08;100 nA
0,450439453125;171,565476566839;1,1322021484375E-09;0,45013427734375;5;329;2,86274775862694E-08;-2,6421956717968E-08;100 nA
0,50048828125;172,065964565575;1,0345458984375E-09;0,500152587890625;5;330;2,86274775862694E-08;-2,6421956717968E-08;100 nA
0,550537109375;172,566452564312;9,613037109375E-10;0,550140380859375;5;331;2,86274775862694E-08;-2,6421956717968E-08;100 nA
0,6005859375;173,066940563048;9,368896484375E-10;0,600128173828125;5;332;2,86274775862694E-08;-2,6421956717968E-08;100 nA
0,650634765625;173,567428561784;9,33837890625E-10;0,650054931640625;5;333;2,86274775862694E-08;-2,6421956717968E-08;100 nA
0,70068359375;174,067916560521;9,368896484375E-10;0,70001220703125;5;334;2,86274775862694E-08;-2,6421956717968E-08;100 nA
0,750732421875;174,568404559257;9,979248046875E-10;0,7498779296875;5;335;2,86274775862694E-08;-2,6421956717968E-08;100 nA
0,80078125;175,068892557994;1,0101318359375E-09;0,79925537109375;5;336;2,86274775862694E-08;-2,6421956717968E-08;100 nA
0,850830078125;175,56938055673;1,0498046875E-09;0,849609375;5;337;2,86274775862694E-08;-2,6421956717968E-08;100 nA
0,90087890625;176,069868555466;1,2603759765625E-09;0,89996337890625;5;338;2,86274775862694E-08;-2,6421956717968E-08;100 nA
0,950927734375;176,570356554203;1,6510009765625E-09;0,95001220703125;5;339;2,86274775862694E-08;-2,6421956717968E-08;100 nA
1,0009765625;177,070844552939;2,1942138671875E-09;0,999755859375;5;340;2,86274775862694E-08;-2,6421956717968E-08;100 nA
0,950927734375;177,571332551675;1,08642578125E-09;0,95001220703125;5;341;2,86274775862694E-08;-2,6421956717968E-08;100 nA
0,90087890625;178,071820550412;6,04248046875E-10;0,89996337890625;5;342;2,86274775862694E-08;-2,6421956717968E-08;100 nA
0,850830078125;178,572308549148;3,753662109375E-10;0,8502197265625;5;343;2,86274775862694E-08;-2,6421956717968E-08;100 nA
0,80078125;179,072796547885;2,25830078125E-10;0,79986572265625;5;344;2,86274775862694E-08;-2,6421956717968E-08;100 nA
0,750732421875;179,573284546621;1,434326171875E-10;0,7498779296875;5;345;2,86274775862694E-08;-2,6421956717968E-08;100 nA
0,70068359375;180,073772545357;5,79833984375E-11;0,699951171875;5;346;2,86274775862694E-08;-2,6421956717968E-08;100 nA
0,650634765625;180,574260544094;-5,4931640625E-11;0,650054931640625;5;347;2,86274775862694E-08;-2,6421956717968E-08;100 nA
0,6005859375;181,07474854283;-8,23974609375E-11;0,60015869140625;5;348;2,86274775862694E-08;-2,6421956717968E-08;100 nA
0,550537109375;181,575236541567;-1,007080078125E-10;0,550140380859375;5;349;2,86274775862694E-08;-2,6421956717968E-08;100 nA
0,50048828125;182,075724540303;-1,0986328125E-10;0,50006103515625;5;350;2,86274775862694E-08;-2,6421956717968E-08;100 nA
0,450439453125;182,576212539039;-1,5869140625E-10;0,45013427734375;5;351;2,86274775862694E-08;-2,6421956717968E-08;100 nA
0,400390625;183,076700537776;-2,197265625E-10;0,400146484375;5;352;2,86274775862694E-08;-2,6421956717968E-08;100 nA
0,350341796875;183,577188536512;-2,9296875E-10;0,350128173828125;5;353;2,86274775862694E-08;-2,6421956717968E-08;100 nA
0,30029296875;184,077676535249;-4,39453125E-10;0,300140380859375;5;354;2,86274775862694E-08;-2,6421956717968E-08;100 nA
0,250244140625;184,578164533985;-6,53076171875E-10;0,25006103515625;5;355;2,86274775862694E-08;-2,6421956717968E-08;100 nA
0,2001953125;185,078652532721;-8,697509765625E-10;0,200042724609375;5;356;2,86274775862694E-08;-2,6421956717968E-08;100 nA
0,150146484375;185,579140531458;-1,2481689453125E-09;0,150115966796875;5;357;2,86274775862694E-08;-2,6421956717968E-08;100 nA
0,10009765625;186,079628530194;-2,264404296875E-09;0,100128173828125;5;358;2,86274775862694E-08;-2,6421956717968E-08;100 nA
0,050048828125;186,58011652893;-5,4656982421875E-09;0,050140380859375;5;359;2,86274775862694E-08;-2,6421956717968E-08;100 nA
0;187,080604527667;-4,6173095703125E-09;0,000152587890625;5;360;2,86274775862694E-08;-2,6421956717968E-08;100 nA
-0,050048828125;187,581092526403;-2,813720703125E-09;-0,0498046875;5;361;2,86274775862694E-08;-2,6421956717968E-08;100 nA
-0,10009765625;188,08158052514;-2,52685546875E-09;-0,099700927734375;5;362;2,86274775862694E-08;-2,6421956717968E-08;100 nA
-0,150146484375;188,582068523876;-2,490234375E-09;-0,149566650390625;5;363;2,86274775862694E-08;-2,6421956717968E-08;100 nA
-0,2001953125;189,082556522612;-2,55126953125E-09;-0,199493408203125;5;364;2,86274775862694E-08;-2,6421956717968E-08;100 nA
-0,250244140625;189,583044521349;-2,7557373046875E-09;-0,249359130859375;5;365;2,86274775862694E-08;-2,6421956717968E-08;100 nA
-0,30029296875;190,083532520085;-2,8594970703125E-09;-0,29925537109375;5;366;2,86274775862694E-08;-2,6421956717968E-08;100 nA
-0,350341796875;190,584020518822;-2,5787353515625E-09;-0,34918212890625;5;367;2,86274775862694E-08;-2,6421956717968E-08;100 nA
-0,400390625;191,084508517558;-2,2064208984375E-09;-0,399078369140625;5;368;2,86274775862694E-08;-2,6421956717968E-08;100 nA
-0,450439453125;191,584996516294;-2,01416015625E-09;-0,448944091796875;5;369;2,86274775862694E-08;-2,6421956717968E-08;100 nA
-0,50048828125;192,085484515031;-1,9866943359375E-09;-0,498931884765625;5;370;2,86274775862694E-08;-2,6421956717968E-08;100 nA
-0,550537109375;192,585972513767;-1,8646240234375E-09;-0,54876708984375;5;371;2,86274775862694E-08;-2,6421956717968E-08;100 nA
-0,6005859375;193,086460512504;-1,5533447265625E-09;-0,598663330078125;5;372;2,86274775862694E-08;-2,6421956717968E-08;100 nA
-0,650634765625;193,58694851124;-1,171875E-09;-0,6485595703125;5;373;2,86274775862694E-08;-2,6421956717968E-08;100 nA
-0,70068359375;194,087436509976;-9,124755859375E-10;-0,69866943359375;5;374;2,86274775862694E-08;-2,6421956717968E-08;100 nA
-0,750732421875;194,587924508713;-7,537841796875E-10;-0,7486572265625;5;375;2,86274775862694E-08;-2,6421956717968E-08;100 nA
-0,80078125;195,088412507449;-6,683349609375E-10;-0,79864501953125;5;376;2,86274775862694E-08;-2,6421956717968E-08;100 nA
-0,850830078125;195,588900506186;-6,622314453125E-10;-0,84869384765625;5;377;2,86274775862694E-08;-2,6421956717968E-08;100 nA
-0,90087890625;196,089388504922;-6,866455078125E-10;-0,8990478515625;5;378;2,86274775862694E-08;-2,6421956717968E-08;100 nA
-0,950927734375;196,589876503658;-7,476806640625E-10;-0,94879150390625;5;379;2,86274775862694E-08;-2,6421956717968E-08;100 nA
-1,0009765625;197,090364502395;-8,9111328125E-10;-0,99884033203125;5;380;2,86274775862694E-08;-2,6421956717968E-08;100 nA
-0,950927734375;197,590852501131;-4,974365234375E-10;-0,9490966796875;5;381;2,86274775862694E-08;-2,6421956717968E-08;100 nA
-0,90087890625;198,091340499867;-3,662109375E-10;-0,8990478515625;5;382;2,86274775862694E-08;-2,6421956717968E-08;100 nA
-0,850830078125;198,591828498604;-2,62451171875E-10;-0,84869384765625;5;383;2,86274775862694E-08;-2,6421956717968E-08;100 nA
-0,80078125;199,09231649734;-2,01416015625E-10;-0,79864501953125;5;384;2,86274775862694E-08;-2,6421956717968E-08;100 nA
-0,750732421875;199,592804496077;-1,434326171875E-10;-0,74859619140625;5;385;2,86274775862694E-08;-2,6421956717968E-08;100 nA
-0,70068359375;200,093292494813;-4,8828125E-11;-0,6986083984375;5;386;2,86274775862694E-08;-2,6421956717968E-08;100 nA
-0,650634765625;200,593780493549;7,01904296875E-11;-0,648651123046875;5;387;2,86274775862694E-08;-2,6421956717968E-08;100 nA
-0,6005859375;201,094268492286;2,38037109375E-10;-0,598663330078125;5;388;2,86274775862694E-08;-2,6421956717968E-08;100 nA
-0,550537109375;201,594756491022;4,5166015625E-10;-0,548797607421875;5;389;2,86274775862694E-08;-2,6421956717968E-08;100 nA
-0,50048828125;202,095244489759;7,476806640625E-10;-0,498870849609375;5;390;2,86274775862694E-08;-2,6421956717968E-08;100 nA
-0,450439453125;202,595732488495;9,552001953125E-10;-0,448974609375;5;391;2,86274775862694E-08;-2,6421956717968E-08;100 nA
-0,400390625;203,096220487231;1,11083984375E-09;-0,399078369140625;5;392;2,86274775862694E-08;-2,6421956717968E-08;100 nA
-0,350341796875;203,596708485968;1,3519287109375E-09;-0,349151611328125;5;393;2,86274775862694E-08;-2,6421956717968E-08;100 nA
-0,30029296875;204,097196484704;1,708984375E-09;-0,29931640625;5;394;2,86274775862694E-08;-2,6421956717968E-08;100 nA
-0,250244140625;204,597684483441;2,1514892578125E-09;-0,249359130859375;5;395;2,86274775862694E-08;-2,6421956717968E-08;100 nA
-0,2001953125;205,098172482177;2,606201171875E-09;-0,199462890625;5;396;2,86274775862694E-08;-2,6421956717968E-08;100 nA
-0,150146484375;205,598660480913;2,81982421875E-09;-0,149658203125;5;397;2,86274775862694E-08;-2,6421956717968E-08;100 nA
-0,10009765625;206,09914847965;2,8167724609375E-09;-0,099700927734375;5;398;2,86274775862694E-08;-2,6421956717968E-08;100 nA
-0,050048828125;206,599636478386;2,587890625E-09;-0,049835205078125;5;399;2,86274775862694E-08;-2,6421956717968E-08;100 nA
0;207,100124477122;2,5146484375E-09;0,000128173828124994;5;400;2,86274775862694E-08;-2,6421956717968E-08;100 nA
0,050048828125;207,600612475859;2,8350830078125E-09;0,050079345703125;6;401;2,87603586912155E-08;-2,65808030962944E-08;100 nA
0,10009765625;208,101100474595;3,973388671875E-09;0,10009765625;6;402;2,87603586912155E-08;-2,65808030962944E-08;100 nA
0,150146484375;208,601588473332;2,960205078125E-09;0,150146484375;6;403;2,87603586912155E-08;-2,65808030962944E-08;100 nA
0,2001953125;209,102076472068;2,3895263671875E-09;0,200103759765625;6;404;2,87603586912155E-08;-2,65808030962944E-08;100 nA
0,250244140625;209,602564470804;1,9927978515625E-09;0,2501220703125;6;405;2,87603586912155E-08;-2,65808030962944E-08;100 nA
0,30029296875;210,103052469541;1,6845703125E-09;0,300048828125;6;406;2,87603586912155E-08;-2,65808030962944E-08;100 nA
0,350341796875;210,603540468277;1,434326171875E-09;0,350189208984375;6;407;2,87603586912155E-08;-2,65808030962944E-08;100 nA
0,400390625;211,104028467014;1,25732421875E-09;0,400146484375;6;408;2,87603586912155E-08;-2,65808030962944E-08;100 nA
0,450439453125;211,60451646575;1,13525390625E-09;0,450103759765625;6;409;2,87603586912155E-08;-2,65808030962944E-08;100 nA
0,50048828125;212,105004464486;1,0467529296875E-09;0,500091552734375;6;410;2,87603586912155E-08;-2,65808030962944E-08;100 nA
0,550537109375;212,605492463223;9,918212890625E-10;0,55010986328125;6;411;2,87603586912155E-08;-2,65808030962944E-08;100 nA
0,6005859375;213,105980461959;9,552001953125E-10;0,600189208984375;6;412;2,87603586912155E-08;-2,65808030962944E-08;100 nA
0,650634765625;213,606468460696;9,368896484375E-10;0,65008544921875;6;413;2,87603586912155E-08;-2,65808030962944E-08;100 nA
0,70068359375;214,106956459432;9,6435546875E-10;0,699920654296875;6;414;2,87603586912155E-08;-2,65808030962944E-08;100 nA
0,750732421875;214,607444458168;1,007080078125E-09;0,7498779296875;6;415;2,87603586912155E-08;-2,65808030962944E-08;100 nA
0,80078125;215,107932456905;1,043701171875E-09;0,79925537109375;6;416;2,87603586912155E-08;-2,65808030962944E-08;100 nA
0,850830078125;215,608420455641;1,092529296875E-09;0,84991455078125;6;417;2,87603586912155E-08;-2,65808030962944E-08;100 nA
0,90087890625;216,108908454377;1,2786865234375E-09;0,89996337890625;6;418;2,87603586912155E-08;-2,65808030962944E-08;100 nA
0,950927734375;216,609396453114;1,6510009765625E-09;0,95001220703125;6;419;2,87603586912155E-08;-2,65808030962944E-08;100 nA
1,0009765625;217,10988445185;2,203369140625E-09;1,00006103515625;6;420;2,87603586912155E-08;-2,65808030962944E-08;100 nA
0,950927734375;217,610372450587;1,1077880859375E-09;0,95001220703125;6;421;2,87603586912155E-08;-2,65808030962944E-08;100 nA
0,90087890625;218,110860449323;6,28662109375E-10;0,899658203125;6;422;2,87603586912155E-08;-2,65808030962944E-08;100 nA
0,850830078125;218,611348448059;3,90625E-10;0,849609375;6;423;2,87603586912155E-08;-2,65808030962944E-08;100 nA
0,80078125;219,111836446796;2,44140625E-10;0,80047607421875;6;424;2,87603586912155E-08;-2,65808030962944E-08;100 nA
0,750732421875;219,612324445532;1,373291015625E-10;0,749908447265625;6;425;2,87603586912155E-08;-2,65808030962944E-08;100 nA
0,70068359375;220,112812444269;3,35693359375E-11;0,699951171875;6;426;2,87603586912155E-08;-2,65808030962944E-08;100 nA
0,650634765625;220,613300443005;-3,662109375E-11;0,65008544921875;6;427;2,87603586912155E-08;-2,65808030962944E-08;100 nA
0,6005859375;221,113788441741;-7,32421875E-11;0,600128173828125;6;428;2,87603586912155E-08;-2,65808030962944E-08;100 nA
0,550537109375;221,614276440478;-1,03759765625E-10;0,550140380859375;6;429;2,87603586912155E-08;-2,65808030962944E-08;100 nA
0,50048828125;222,114764439214;-1,28173828125E-10;0,50006103515625;6;430;2,87603586912155E-08;-2,65808030962944E-08;100 nA
0,450439453125;222,615252437951;-1,77001953125E-10;0,45013427734375;6;431;2,87603586912155E-08;-2,65808030962944E-08;100 nA
0,400390625;223,115740436687;-2,197265625E-10;0,400054931640625;6;432;2,87603586912155E-08;-2,65808030962944E-08;100 nA
0,350341796875;223,616228435423;-3,082275390625E-10;0,35015869140625;6;433;2,87603586912155E-08;-2,65808030962944E-08;100 nA
0,30029296875;224,11671643416;-4,425048828125E-10;0,300079345703125;6;434;2,87603586912155E-08;-2,65808030962944E-08;100 nA
0,250244140625;224,617204432896;-6,378173828125E-10;0,250152587890625;6;435;2,87603586912155E-08;-2,65808030962944E-08;100 nA
0,2001953125;225,117692431632;-9,368896484375E-10;0,200042724609375;6;436;2,87603586912155E-08;-2,65808030962944E-08;100 nA
0,150146484375;225,618180430369;-1,300048828125E-09;0,150054931640625;6;437;2,87603586912155E-08;-2,65808030962944E-08;100 nA
0,10009765625;226,118668429105;-2,2552490234375E-09;0,100128173828125;6;438;2,87603586912155E-08;-2,65808030962944E-08;100 nA
0,050048828125;226,619156427842;-5,328369140625E-09;0,050140380859375;6;439;2,87603586912155E-08;-2,65808030962944E-08;100 nA
0;227,119644426578;-4,705810546875E-09;0,0001373291015625;6;440;2,87603586912155E-08;-2,65808030962944E-08;100 nA
-0,050048828125;227,620132425314;-2,874755859375E-09;-0,0498046875;6;441;2,87603586912155E-08;-2,65808030962944E-08;100 nA
-0,10009765625;228,120620424051;-2,6153564453125E-09;-0,099700927734375;6;442;2,87603586912155E-08;-2,65808030962944E-08;100 nA
-0,150146484375;228,621108422787;-2,490234375E-09;-0,149658203125;6;443;2,87603586912155E-08;-2,65808030962944E-08;100 nA
-0,2001953125;229,121596421524;-2,5604248046875E-09;-0,199462890625;6;444;2,87603586912155E-08;-2,65808030962944E-08;100 nA
-0,250244140625;229,62208442026;-2,752685546875E-09;-0,249359130859375;6;445;2,87603586912155E-08;-2,65808030962944E-08;100 nA
-0,30029296875;230,122572418996;-2,8045654296875E-09;-0,299285888671875;6;446;2,87603586912155E-08;-2,65808030962944E-08;100 nA
-0,350341796875;230,623060417733;-2,569580078125E-09;-0,349212646484375;6;447;2,87603586912155E-08;-2,65808030962944E-08;100 nA
-0,400390625;231,123548416469;-2,2216796875E-09;-0,39910888671875;6;448;2,87603586912155E-08;-2,65808030962944E-08;100 nA
-0,450439453125;231,624036415206;-2,044677734375E-09;-0,449005126953125;6;449;2,87603586912155E-08;-2,65808030962944E-08;100 nA
-0,50048828125;232,124524413942;-2,008056640625E-09;-0,49884033203125;6;450;2,87603586912155E-08;-2,65808030962944E-08;100 nA
-0,550537109375;232,625012412678;-1,86767578125E-09;-0,548858642578125;6;451;2,87603586912155E-08;-2,65808030962944E-08;100 nA
-0,6005859375;233,125500411415;-1,5289306640625E-09;-0,598663330078125;6;452;2,87603586912155E-08;-2,65808030962944E-08;100 nA
-0,650634765625;233,625988410151;-1,1383056640625E-09;-0,64862060546875;6;453;2,87603586912155E-08;-2,65808030962944E-08;100 nA
-0,70068359375;234,126476408887;-9,1552734375E-10;-0,6986083984375;6;454;2,87603586912155E-08;-2,65808030962944E-08;100 nA
-0,750732421875;234,626964407624;-7,843017578125E-10;-0,7486572265625;6;455;2,87603586912155E-08;-2,65808030962944E-08;100 nA
-0,80078125;235,12745240636;-7,080078125E-10;-0,79864501953125;6;456;2,87603586912155E-08;-2,65808030962944E-08;100 nA
-0,850830078125;235,627940405097;-6,77490234375E-10;-0,84869384765625;6;457;2,87603586912155E-08;-2,65808030962944E-08;100 nA
-0,90087890625;236,128428403833;-7,01904296875E-10;-0,89935302734375;6;458;2,87603586912155E-08;-2,65808030962944E-08;100 nA
-0,950927734375;236,628916402569;-7,598876953125E-10;-0,948486328125;6;459;2,87603586912155E-08;-2,65808030962944E-08;100 nA
-1,0009765625;237,129404401306;-9,33837890625E-10;-0,9991455078125;6;460;2,87603586912155E-08;-2,65808030962944E-08;100 nA
-0,950927734375;237,629892400042;-5,340576171875E-10;-0,9490966796875;6;461;2,87603586912155E-08;-2,65808030962944E-08;100 nA
-0,90087890625;238,130380398779;-3,47900390625E-10;-0,8984375;6;462;2,87603586912155E-08;-2,65808030962944E-08;100 nA
-0,850830078125;238,630868397515;-2,410888671875E-10;-0,848388671875;6;463;2,87603586912155E-08;-2,65808030962944E-08;100 nA
-0,80078125;239,131356396251;-1,89208984375E-10;-0,79864501953125;6;464;2,87603586912155E-08;-2,65808030962944E-08;100 nA
-0,750732421875;239,631844394988;-1,46484375E-10;-0,74859619140625;6;465;2,87603586912155E-08;-2,65808030962944E-08;100 nA
-0,70068359375;240,132332393724;-3,96728515625E-11;-0,6986083984375;6;466;2,87603586912155E-08;-2,65808030962944E-08;100 nA
-0,650634765625;240,632820392461;7,9345703125E-11;-0,648590087890625;6;467;2,87603586912155E-08;-2,65808030962944E-08;100 nA
-0,6005859375;241,133308391197;1,89208984375E-10;-0,598663330078125;6;468;2,87603586912155E-08;-2,65808030962944E-08;100 nA
-0,550537109375;241,633796389933;3,84521484375E-10;-0,548828125;6;469;2,87603586912155E-08;-2,65808030962944E-08;100 nA
-0,50048828125;242,13428438867;6,805419921875E-10;-0,498931884765625;6;470;2,87603586912155E-08;-2,65808030962944E-08;100 nA
-0,450439453125;242,634772387406;9,185791015625E-10;-0,448974609375;6;471;2,87603586912155E-08;-2,65808030962944E-08;100 nA
-0,400390625;243,135260386142;1,116943359375E-09;-0,39910888671875;6;472;2,87603586912155E-08;-2,65808030962944E-08;100 nA
-0,350341796875;243,635748384879;1,3580322265625E-09;-0,349212646484375;6;473;2,87603586912155E-08;-2,65808030962944E-08;100 nA
-0,30029296875;244,136236383615;1,7059326171875E-09;-0,299285888671875;6;474;2,87603586912155E-08;-2,65808030962944E-08;100 nA
-0,250244140625;244,636724382352;2,1392822265625E-09;-0,249359130859375;6;475;2,87603586912155E-08;-2,65808030962944E-08;100 nA
-0,2001953125;245,137212381088;2,5390625E-09;-0,199432373046875;6;476;2,87603586912155E-08;-2,65808030962944E-08;100 nA
-0,150146484375;245,637700379824;2,886962890625E-09;-0,149627685546875;6;477;2,87603586912155E-08;-2,65808030962944E-08;100 nA
-0,10009765625;246,138188378561;2,874755859375E-09;-0,099700927734375;6;478;2,87603586912155E-08;-2,65808030962944E-08;100 nA
-0,050048828125;246,638676377297;2,6519775390625E-09;-0,0498046875;6;479;2,87603586912155E-08;-2,65808030962944E-08;100 nA
0;247,139164376034;2,5634765625E-09;0,0001220703125;6;480;2,87603586912155E-08;-2,65808030962944E-08;100 nA
0,050048828125;247,63965237477;2,899169921875E-09;0,05010986328125;7;481;2,86091491580009E-08;-2,68160179257393E-08;100 nA
0,10009765625;248,140140373506;3,99169921875E-09;0,100067138671875;7;482;2,86091491580009E-08;-2,68160179257393E-08;100 nA
0,150146484375;248,640628372243;2,9510498046875E-09;0,150115966796875;7;483;2,86091491580009E-08;-2,68160179257393E-08;100 nA
0,2001953125;249,141116370979;2,3651123046875E-09;0,200103759765625;7;484;2,86091491580009E-08;-2,68160179257393E-08;100 nA
0,250244140625;249,641604369716;1,971435546875E-09;0,25006103515625;7;485;2,86091491580009E-08;-2,68160179257393E-08;100 nA
0,30029296875;250,142092368452;1,6571044921875E-09;0,300140380859375;7;486;2,86091491580009E-08;-2,68160179257393E-08;100 nA
0,350341796875;250,642580367188;1,4190673828125E-09;0,35015869140625;7;487;2,86091491580009E-08;-2,68160179257393E-08;100 nA
0,400390625;251,143068365925;1,2451171875E-09;0,400146484375;7;488;2,86091491580009E-08;-2,68160179257393E-08;100 nA
0,450439453125;251,643556364661;1,123046875E-09;0,450103759765625;7;489;2,86091491580009E-08;-2,68160179257393E-08;100 nA
0,50048828125;252,144044363397;1,019287109375E-09;0,50018310546875;7;490;2,86091491580009E-08;-2,68160179257393E-08;100 nA
0,550537109375;252,644532362134;9,6435546875E-10;0,550140380859375;7;491;2,86091491580009E-08;-2,68160179257393E-08;100 nA
0,6005859375;253,14502036087;9,521484375E-10;0,60009765625;7;492;2,86091491580009E-08;-2,68160179257393E-08;100 nA
0,650634765625;253,645508359607;9,307861328125E-10;0,6500244140625;7;493;2,86091491580009E-08;-2,68160179257393E-08;100 nA
0,70068359375;254,145996358343;9,46044921875E-10;0,699951171875;7;494;2,86091491580009E-08;-2,68160179257393E-08;100 nA
0,750732421875;254,646484357079;1,01318359375E-09;0,7498779296875;7;495;2,86091491580009E-08;-2,68160179257393E-08;100 nA
0,80078125;255,146972355816;1,025390625E-09;0,799560546875;7;496;2,86091491580009E-08;-2,68160179257393E-08;100 nA
0,850830078125;255,647460354552;1,03759765625E-09;0,84991455078125;7;497;2,86091491580009E-08;-2,68160179257393E-08;100 nA
0,90087890625;256,147948353289;1,2420654296875E-09;0,899658203125;7;498;2,86091491580009E-08;-2,68160179257393E-08;100 nA
0,950927734375;256,648436352025;1,6204833984375E-09;0,94970703125;7;499;2,86091491580009E-08;-2,68160179257393E-08;100 nA
1,0009765625;257,148924350761;2,1575927734375E-09;0,999755859375;7;500;2,86091491580009E-08;-2,68160179257393E-08;100 nA
0,950927734375;257,649412349498;1,0894775390625E-09;0,95001220703125;7;501;2,86091491580009E-08;-2,68160179257393E-08;100 nA
0,90087890625;258,149900348234;6,103515625E-10;0,899658203125;7;502;2,86091491580009E-08;-2,68160179257393E-08;100 nA
0,850830078125;258,650388346971;3,814697265625E-10;0,8502197265625;7;503;2,86091491580009E-08;-2,68160179257393E-08;100 nA
0,80078125;259,150876345707;1,953125E-10;0,79986572265625;7;504;2,86091491580009E-08;-2,68160179257393E-08;100 nA
0,750732421875;259,651364344443;1,068115234375E-10;0,7498779296875;7;505;2,86091491580009E-08;-2,68160179257393E-08;100 nA
0,70068359375;260,15185234318;4,8828125E-11;0,699951171875;7;506;2,86091491580009E-08;-2,68160179257393E-08;100 nA
0,650634765625;260,652340341916;9,1552734375E-12;0,650115966796875;7;507;2,86091491580009E-08;-2,68160179257393E-08;100 nA
0,6005859375;261,152828340652;-5,79833984375E-11;0,60015869140625;7;508;2,86091491580009E-08;-2,68160179257393E-08;100 nA
0,550537109375;261,653316339389;-1,03759765625E-10;0,550079345703125;7;509;2,86091491580009E-08;-2,68160179257393E-08;100 nA
0,50048828125;262,153804338125;-1,312255859375E-10;0,50006103515625;7;510;2,86091491580009E-08;-2,68160179257393E-08;100 nA
0,450439453125;262,654292336862;-1,495361328125E-10;0,4500732421875;7;511;2,86091491580009E-08;-2,68160179257393E-08;100 nA
0,400390625;263,154780335598;-2,01416015625E-10;0,400146484375;7;512;2,86091491580009E-08;-2,68160179257393E-08;100 nA
0,350341796875;263,655268334334;-2,86865234375E-10;0,35015869140625;7;513;2,86091491580009E-08;-2,68160179257393E-08;100 nA
0,30029296875;264,155756333071;-4,241943359375E-10;0,300140380859375;7;514;2,86091491580009E-08;-2,68160179257393E-08;100 nA
0,250244140625;264,656244331807;-6,40869140625E-10;0,250091552734375;7;515;2,86091491580009E-08;-2,68160179257393E-08;100 nA
0,2001953125;265,156732330544;-8,60595703125E-10;0,200042724609375;7;516;2,86091491580009E-08;-2,68160179257393E-08;100 nA
0,150146484375;265,65722032928;-1,226806640625E-09;0,150115966796875;7;517;2,86091491580009E-08;-2,68160179257393E-08;100 nA
0,10009765625;266,157708328016;-2,2003173828125E-09;0,10009765625;7;518;2,86091491580009E-08;-2,68160179257393E-08;100 nA
0,050048828125;266,658196326753;-5,3497314453125E-09;0,05010986328125;7;519;2,86091491580009E-08;-2,68160179257393E-08;100 nA
0;267,158684325489;-5,5816650390625E-09;0,0001678466796875;7;520;2,86091491580009E-08;-2,68160179257393E-08;100 nA
-0,050048828125;267,659172324226;-2,9449462890625E-09;-0,049835205078125;7;521;2,86091491580009E-08;-2,68160179257393E-08;100 nA
-0,10009765625;268,159660322962;-2,679443359375E-09;-0,099639892578125;7;522;2,86091491580009E-08;-2,68160179257393E-08;100 nA
-0,150146484375;268,660148321698;-2,5421142578125E-09;-0,1495361328125;7;523;2,86091491580009E-08;-2,68160179257393E-08;100 nA
-0,2001953125;269,160636320435;-2,655029296875E-09;-0,199432373046875;7;524;2,86091491580009E-08;-2,68160179257393E-08;100 nA
-0,250244140625;269,661124319171;-2,8228759765625E-09;-0,249420166015625;7;525;2,86091491580009E-08;-2,68160179257393E-08;100 nA
-0,30029296875;270,161612317908;-2,83203125E-09;-0,29931640625;7;526;2,86091491580009E-08;-2,68160179257393E-08;100 nA
-0,350341796875;270,662100316644;-2,5543212890625E-09;-0,349151611328125;7;527;2,86091491580009E-08;-2,68160179257393E-08;100 nA
-0,400390625;271,16258831538;-2,2247314453125E-09;-0,39910888671875;7;528;2,86091491580009E-08;-2,68160179257393E-08;100 nA
-0,450439453125;271,663076314117;-2,0263671875E-09;-0,448974609375;7;529;2,86091491580009E-08;-2,68160179257393E-08;100 nA
-0,50048828125;272,163564312853;-1,971435546875E-09;-0,4989013671875;7;530;2,86091491580009E-08;-2,68160179257393E-08;100 nA
-0,550537109375;272,664052311589;-1,8280029296875E-09;-0,548828125;7;531;2,86091491580009E-08;-2,68160179257393E-08;100 nA
-0,6005859375;273,164540310326;-1,470947265625E-09;-0,598663330078125;7;532;2,86091491580009E-08;-2,68160179257393E-08;100 nA
-0,650634765625;273,665028309062;-1,104736328125E-09;-0,648651123046875;7;533;2,86091491580009E-08;-2,68160179257393E-08;100 nA
-0,70068359375;274,165516307799;-8,7890625E-10;-0,69866943359375;7;534;2,86091491580009E-08;-2,68160179257393E-08;100 nA
-0,750732421875;274,666004306535;-7,6904296875E-10;-0,7486572265625;7;535;2,86091491580009E-08;-2,68160179257393E-08;100 nA
-0,80078125;275,166492305271;-6,988525390625E-10;-0,79833984375;7;536;2,86091491580009E-08;-2,68160179257393E-08;100 nA
-0,850830078125;275,666980304008;-6,4697265625E-10;-0,8489990234375;7;537;2,86091491580009E-08;-2,68160179257393E-08;100 nA
-0,90087890625;276,167468302744;-6,439208984375E-10;-0,8990478515625;7;538;2,86091491580009E-08;-2,68160179257393E-08;100 nA
-0,950927734375;276,667956301481;-7,2021484375E-10;-0,948486328125;7;539;2,86091491580009E-08;-2,68160179257393E-08;100 nA
-1,0009765625;277,168444300217;-8,85009765625E-10;-0,99884033203125;7;540;2,86091491580009E-08;-2,68160179257393E-08;100 nA
-0,950927734375;277,668932298953;-5,096435546875E-10;-0,94879150390625;7;541;2,86091491580009E-08;-2,68160179257393E-08;100 nA
-0,90087890625;278,16942029769;-3,2958984375E-10;-0,89874267578125;7;542;2,86091491580009E-08;-2,68160179257393E-08;100 nA
-0,850830078125;278,669908296426;-2,410888671875E-10;-0,8489990234375;7;543;2,86091491580009E-08;-2,68160179257393E-08;100 nA
-0,80078125;279,170396295163;-1,953125E-10;-0,79833984375;7;544;2,86091491580009E-08;-2,68160179257393E-08;100 nA
-0,750732421875;279,670884293899;-1,46484375E-10;-0,748626708984375;7;545;2,86091491580009E-08;-2,68160179257393E-08;100 nA
-0,70068359375;280,171372292635;-4,2724609375E-11;-0,6986083984375;7;546;2,86091491580009E-08;-2,68160179257393E-08;100 nA
-0,650634765625;280,671860291372;4,2724609375E-11;-0,6485595703125;7;547;2,86091491580009E-08;-2,68160179257393E-08;100 nA
-0,6005859375;281,172348290108;1,708984375E-10;-0,598663330078125;7;548;2,86091491580009E-08;-2,68160179257393E-08;100 nA
-0,550537109375;281,672836288844;4,119873046875E-10;-0,54876708984375;7;549;2,86091491580009E-08;-2,68160179257393E-08;100 nA
-0,50048828125;282,173324287581;7,049560546875E-10;-0,498809814453125;7;550;2,86091491580009E-08;-2,68160179257393E-08;100 nA
-0,450439453125;282,673812286317;9,27734375E-10;-0,449005126953125;7;551;2,86091491580009E-08;-2,68160179257393E-08;100 nA
-0,400390625;283,174300285054;1,092529296875E-09;-0,39910888671875;7;552;2,86091491580009E-08;-2,68160179257393E-08;100 nA
-0,350341796875;283,67478828379;1,3275146484375E-09;-0,349151611328125;7;553;2,86091491580009E-08;-2,68160179257393E-08;100 nA
-0,30029296875;284,175276282526;1,66015625E-09;-0,29931640625;7;554;2,86091491580009E-08;-2,68160179257393E-08;100 nA
-0,250244140625;284,675764281263;2,0904541015625E-09;-0,2493896484375;7;555;2,86091491580009E-08;-2,68160179257393E-08;100 nA
-0,2001953125;285,176252279999;2,5665283203125E-09;-0,19952392578125;7;556;2,86091491580009E-08;-2,68160179257393E-08;100 nA
-0,150146484375;285,676740278736;2,8350830078125E-09;-0,14959716796875;7;557;2,86091491580009E-08;-2,68160179257393E-08;100 nA
-0,10009765625;286,177228277472;2,935791015625E-09;-0,099700927734375;7;558;2,86091491580009E-08;-2,68160179257393E-08;100 nA
-0,050048828125;286,677716276208;2,8076171875E-09;-0,0498046875;7;559;2,86091491580009E-08;-2,68160179257393E-08;100 nA
0;287,178204274945;2,6153564453125E-09;0,000134277343750003;7;560;2,86091491580009E-08;-2,68160179257393E-08;100 nA
0,050048828125;287,678692273681;2,8533935546875E-09;0,05010986328125;8;561;2,81860679388046E-08;-2,60950997471809E-08;100 nA
0,10009765625;288,179180272418;3,9398193359375E-09;0,100128173828125;8;562;2,81860679388046E-08;-2,60950997471809E-08;100 nA
0,150146484375;288,679668271154;2,9144287109375E-09;0,150115966796875;8;563;2,81860679388046E-08;-2,60950997471809E-08;100 nA
0,2001953125;289,18015626989;2,337646484375E-09;0,2000732421875;8;564;2,81860679388046E-08;-2,60950997471809E-08;100 nA
0,250244140625;289,680644268627;1,953125E-09;0,25006103515625;8;565;2,81860679388046E-08;-2,60950997471809E-08;100 nA
0,30029296875;290,181132267363;1,641845703125E-09;0,300079345703125;8;566;2,81860679388046E-08;-2,60950997471809E-08;100 nA
0,350341796875;290,681620266099;1,416015625E-09;0,35015869140625;8;567;2,81860679388046E-08;-2,60950997471809E-08;100 nA
0,400390625;291,182108264836;1,239013671875E-09;0,400177001953125;8;568;2,81860679388046E-08;-2,60950997471809E-08;100 nA
0,450439453125;291,682596263572;1,1138916015625E-09;0,450103759765625;8;569;2,81860679388046E-08;-2,60950997471809E-08;100 nA
0,50048828125;292,183084262309;1,019287109375E-09;0,5001220703125;8;570;2,81860679388046E-08;-2,60950997471809E-08;100 nA
0,550537109375;292,683572261045;9,521484375E-10;0,550140380859375;8;571;2,81860679388046E-08;-2,60950997471809E-08;100 nA
0,6005859375;293,184060259781;9,27734375E-10;0,60009765625;8;572;2,81860679388046E-08;-2,60950997471809E-08;100 nA
0,650634765625;293,684548258518;9,1552734375E-10;0,650054931640625;8;573;2,81860679388046E-08;-2,60950997471809E-08;100 nA
0,70068359375;294,185036257254;9,521484375E-10;0,699951171875;8;574;2,81860679388046E-08;-2,60950997471809E-08;100 nA
0,750732421875;294,685524255991;1,0040283203125E-09;0,749908447265625;8;575;2,81860679388046E-08;-2,60950997471809E-08;100 nA
0,80078125;295,186012254727;1,043701171875E-09;0,79986572265625;8;576;2,81860679388046E-08;-2,60950997471809E-08;100 nA
0,850830078125;295,686500253463;1,07421875E-09;0,84991455078125;8;577;2,81860679388046E-08;-2,60950997471809E-08;100 nA
0,90087890625;296,1869882522;1,2237548828125E-09;0,89996337890625;8;578;2,81860679388046E-08;-2,60950997471809E-08;100 nA
0,950927734375;296,687476250936;1,5838623046875E-09;0,94940185546875;8;579;2,81860679388046E-08;-2,60950997471809E-08;100 nA
1,0009765625;297,187964249673;2,154541015625E-09;0,99945068359375;8;580;2,81860679388046E-08;-2,60950997471809E-08;100 nA
0,950927734375;297,688452248409;1,08642578125E-09;0,94970703125;8;581;2,81860679388046E-08;-2,60950997471809E-08;100 nA
0,90087890625;298,188940247145;5,950927734375E-10;0,899658203125;8;582;2,81860679388046E-08;-2,60950997471809E-08;100 nA
0,850830078125;298,689428245882;3,692626953125E-10;0,84991455078125;8;583;2,81860679388046E-08;-2,60950997471809E-08;100 nA
0,80078125;299,189916244618;2,38037109375E-10;0,79986572265625;8;584;2,81860679388046E-08;-2,60950997471809E-08;100 nA
0,750732421875;299,690404243354;1,373291015625E-10;0,7498779296875;8;585;2,81860679388046E-08;-2,60950997471809E-08;100 nA
0,70068359375;300,190892242091;8,23974609375E-11;0,699951171875;8;586;2,81860679388046E-08;-2,60950997471809E-08;100 nA
0,650634765625;300,691380240827;-3,662109375E-11;0,650054931640625;8;587;2,81860679388046E-08;-2,60950997471809E-08;100 nA
0,6005859375;301,191868239564;-1,03759765625E-10;0,60009765625;8;588;2,81860679388046E-08;-2,60950997471809E-08;100 nA
0,550537109375;301,6923562383;-1,03759765625E-10;0,550079345703125;8;589;2,81860679388046E-08;-2,60950997471809E-08;100 nA
0,50048828125;302,192844237036;-9,765625E-11;0,500091552734375;8;590;2,81860679388046E-08;-2,60950997471809E-08;100 nA
0,450439453125;302,693332235773;-1,495361328125E-10;0,4500732421875;8;591;2,81860679388046E-08;-2,60950997471809E-08;100 nA
0,400390625;303,193820234509;-2,105712890625E-10;0,400115966796875;8;592;2,81860679388046E-08;-2,60950997471809E-08;100 nA
0,350341796875;303,694308233246;-2,8076171875E-10;0,350128173828125;8;593;2,81860679388046E-08;-2,60950997471809E-08;100 nA
0,30029296875;304,194796231982;-4,150390625E-10;0,300140380859375;8;594;2,81860679388046E-08;-2,60950997471809E-08;100 nA
0,250244140625;304,695284230718;-6,195068359375E-10;0,25006103515625;8;595;2,81860679388046E-08;-2,60950997471809E-08;100 nA
0,2001953125;305,195772229455;-8,331298828125E-10;0,200103759765625;8;596;2,81860679388046E-08;-2,60950997471809E-08;100 nA
0,150146484375;305,696260228191;-1,1871337890625E-09;0,150054931640625;8;597;2,81860679388046E-08;-2,60950997471809E-08;100 nA
0,10009765625;306,196748226928;-2,1209716796875E-09;0,100067138671875;8;598;2,81860679388046E-08;-2,60950997471809E-08;100 nA
0,050048828125;306,697236225664;-5,0872802734375E-09;0,050140380859375;8;599;2,81860679388046E-08;-2,60950997471809E-08;100 nA
0;307,1977242244;-5,3070068359375E-09;0,000170898437499997;8;600;2,81860679388046E-08;-2,60950997471809E-08;100 nA
-0,050048828125;307,698212223137;-2,899169921875E-09;-0,04974365234375;8;601;2,81860679388046E-08;-2,60950997471809E-08;100 nA
-0,10009765625;308,198700221873;-2,5543212890625E-09;-0,09967041015625;8;602;2,81860679388046E-08;-2,60950997471809E-08;100 nA
-0,150146484375;308,699188220609;-2,5238037109375E-09;-0,149566650390625;8;603;2,81860679388046E-08;-2,60950997471809E-08;100 nA
-0,2001953125;309,199676219346;-2,5665283203125E-09;-0,19940185546875;8;604;2,81860679388046E-08;-2,60950997471809E-08;100 nA
-0,250244140625;309,700164218082;-2,777099609375E-09;-0,2493896484375;8;605;2,81860679388046E-08;-2,60950997471809E-08;100 nA
-0,30029296875;310,200652216819;-2,7862548828125E-09;-0,299285888671875;8;606;2,81860679388046E-08;-2,60950997471809E-08;100 nA
-0,350341796875;310,701140215555;-2,4749755859375E-09;-0,349151611328125;8;607;2,81860679388046E-08;-2,60950997471809E-08;100 nA
-0,400390625;311,201628214291;-2,16064453125E-09;-0,399078369140625;8;608;2,81860679388046E-08;-2,60950997471809E-08;100 nA
-0,450439453125;311,702116213028;-2,03857421875E-09;-0,448974609375;8;609;2,81860679388046E-08;-2,60950997471809E-08;100 nA
-0,50048828125;312,202604211764;-1,9500732421875E-09;-0,49884033203125;8;610;2,81860679388046E-08;-2,60950997471809E-08;100 nA
-0,550537109375;312,703092210501;-1,776123046875E-09;-0,548736572265625;8;611;2,81860679388046E-08;-2,60950997471809E-08;100 nA
-0,6005859375;313,203580209237;-1,4373779296875E-09;-0,59869384765625;8;612;2,81860679388046E-08;-2,60950997471809E-08;100 nA
-0,650634765625;313,704068207973;-1,0650634765625E-09;-0,64862060546875;8;613;2,81860679388046E-08;-2,60950997471809E-08;100 nA
-0,70068359375;314,20455620671;-8,331298828125E-10;-0,698577880859375;8;614;2,81860679388046E-08;-2,60950997471809E-08;100 nA
-0,750732421875;314,705044205446;-7,080078125E-10;-0,74859619140625;8;615;2,81860679388046E-08;-2,60950997471809E-08;100 nA
-0,80078125;315,205532204183;-6,7138671875E-10;-0,7989501953125;8;616;2,81860679388046E-08;-2,60950997471809E-08;100 nA
-0,850830078125;315,706020202919;-6,439208984375E-10;-0,848388671875;8;617;2,81860679388046E-08;-2,60950997471809E-08;100 nA
-0,90087890625;316,206508201655;-6,4697265625E-10;-0,89935302734375;8;618;2,81860679388046E-08;-2,60950997471809E-08;100 nA
-0,950927734375;316,706996200392;-7,2021484375E-10;-0,9490966796875;8;619;2,81860679388046E-08;-2,60950997471809E-08;100 nA
-1,0009765625;317,207484199128;-8,9111328125E-10;-0,99884033203125;8;620;2,81860679388046E-08;-2,60950997471809E-08;100 nA
-0,950927734375;317,707972197864;-5,126953125E-10;-0,94879150390625;8;621;2,81860679388046E-08;-2,60950997471809E-08;100 nA
-0,90087890625;318,208460196601;-3,631591796875E-10;-0,89874267578125;8;622;2,81860679388046E-08;-2,60950997471809E-08;100 nA
-0,850830078125;318,708948195337;-2,62451171875E-10;-0,84869384765625;8;623;2,81860679388046E-08;-2,60950997471809E-08;100 nA
-0,80078125;319,209436194074;-1,983642578125E-10;-0,79864501953125;8;624;2,81860679388046E-08;-2,60950997471809E-08;100 nA
-0,750732421875;319,70992419281;-1,0986328125E-10;-0,748687744140625;8;625;2,81860679388046E-08;-2,60950997471809E-08;100 nA
-0,70068359375;320,210412191546;-1,52587890625E-11;-0,698577880859375;8;626;2,81860679388046E-08;-2,60950997471809E-08;100 nA
-0,650634765625;320,710900190283;5,79833984375E-11;-0,6485595703125;8;627;2,81860679388046E-08;-2,60950997471809E-08;100 nA
-0,6005859375;321,211388189019;1,495361328125E-10;-0,598724365234375;8;628;2,81860679388046E-08;-2,60950997471809E-08;100 nA
-0,550537109375;321,711876187756;3,387451171875E-10;-0,54876708984375;8;629;2,81860679388046E-08;-2,60950997471809E-08;100 nA
-0,50048828125;322,212364186492;6,34765625E-10;-0,4989013671875;8;630;2,81860679388046E-08;-2,60950997471809E-08;100 nA
-0,450439453125;322,712852185228;9,002685546875E-10;-0,449005126953125;8;631;2,81860679388046E-08;-2,60950997471809E-08;100 nA
-0,400390625;323,213340183965;1,07421875E-09;-0,39910888671875;8;632;2,81860679388046E-08;-2,60950997471809E-08;100 nA
-0,350341796875;323,713828182701;1,287841796875E-09;-0,349212646484375;8;633;2,81860679388046E-08;-2,60950997471809E-08;100 nA
-0,30029296875;324,214316181438;1,6265869140625E-09;-0,299285888671875;8;634;2,81860679388046E-08;-2,60950997471809E-08;100 nA
-0,250244140625;324,714804180174;2,008056640625E-09;-0,249359130859375;8;635;2,81860679388046E-08;-2,60950997471809E-08;100 nA
-0,2001953125;325,21529217891;2,4871826171875E-09;-0,199493408203125;8;636;2,81860679388046E-08;-2,60950997471809E-08;100 nA
-0,150146484375;325,715780177647;2,7923583984375E-09;-0,1495361328125;8;637;2,81860679388046E-08;-2,60950997471809E-08;100 nA
-0,10009765625;326,216268176383;2,8961181640625E-09;-0,0997314453125;8;638;2,81860679388046E-08;-2,60950997471809E-08;100 nA
-0,050048828125;326,716756175119;2,716064453125E-09;-0,0498046875;8;639;2,81860679388046E-08;-2,60950997471809E-08;100 nA
0;327,217244173856;2,5787353515625E-09;0,000128173828124994;8;640;2,81860679388046E-08;-2,60950997471809E-08;100 nA
0,050048828125;327,717732172592;2,874755859375E-09;0,050140380859375;9;641;2,82227247953415E-08;-2,68175452947617E-08;100 nA
0,10009765625;328,218220171329;3,900146484375E-09;0,10009765625;9;642;2,82227247953415E-08;-2,68175452947617E-08;100 nA
0,150146484375;328,718708170065;2,886962890625E-09;0,15008544921875;9;643;2,82227247953415E-08;-2,68175452947617E-08;100 nA
0,2001953125;329,219196168801;2,325439453125E-09;0,20013427734375;9;644;2,82227247953415E-08;-2,68175452947617E-08;100 nA
0,250244140625;329,719684167538;1,9500732421875E-09;0,250091552734375;9;645;2,82227247953415E-08;-2,68175452947617E-08;100 nA
0,30029296875;330,220172166274;1,6326904296875E-09;0,300079345703125;9;646;2,82227247953415E-08;-2,68175452947617E-08;100 nA
0,350341796875;330,720660165011;1,3946533203125E-09;0,35009765625;9;647;2,82227247953415E-08;-2,68175452947617E-08;100 nA
0,400390625;331,221148163747;1,2237548828125E-09;0,400146484375;9;648;2,82227247953415E-08;-2,68175452947617E-08;100 nA
0,450439453125;331,721636162483;1,0955810546875E-09;0,450103759765625;9;649;2,82227247953415E-08;-2,68175452947617E-08;100 nA
0,50048828125;332,22212416122;1,007080078125E-09;0,500152587890625;9;650;2,82227247953415E-08;-2,68175452947617E-08;100 nA
0,550537109375;332,722612159956;9,490966796875E-10;0,550201416015625;9;651;2,82227247953415E-08;-2,68175452947617E-08;100 nA
0,6005859375;333,223100158693;9,246826171875E-10;0,60009765625;9;652;2,82227247953415E-08;-2,68175452947617E-08;100 nA
0,650634765625;333,723588157429;9,09423828125E-10;0,6500244140625;9;653;2,82227247953415E-08;-2,68175452947617E-08;100 nA
0,70068359375;334,224076156165;9,3994140625E-10;0,699981689453125;9;654;2,82227247953415E-08;-2,68175452947617E-08;100 nA
0,750732421875;334,724564154902;9,94873046875E-10;0,7498779296875;9;655;2,82227247953415E-08;-2,68175452947617E-08;100 nA
0,80078125;335,225052153638;1,0223388671875E-09;0,799560546875;9;656;2,82227247953415E-08;-2,68175452947617E-08;100 nA
0,850830078125;335,725540152374;1,0650634765625E-09;0,84991455078125;9;657;2,82227247953415E-08;-2,68175452947617E-08;100 nA
0,90087890625;336,226028151111;1,2481689453125E-09;0,89996337890625;9;658;2,82227247953415E-08;-2,68175452947617E-08;100 nA
0,950927734375;336,726516149847;1,6265869140625E-09;0,94970703125;9;659;2,82227247953415E-08;-2,68175452947617E-08;100 nA
1,0009765625;337,227004148584;2,1484375E-09;1,00006103515625;9;660;2,82227247953415E-08;-2,68175452947617E-08;100 nA
0,950927734375;337,72749214732;1,08642578125E-09;0,95001220703125;9;661;2,82227247953415E-08;-2,68175452947617E-08;100 nA
0,90087890625;338,227980146056;5,828857421875E-10;0,899658203125;9;662;2,82227247953415E-08;-2,68175452947617E-08;100 nA
0,850830078125;338,728468144793;3,35693359375E-10;0,849609375;9;663;2,82227247953415E-08;-2,68175452947617E-08;100 nA
0,80078125;339,228956143529;2,166748046875E-10;0,8001708984375;9;664;2,82227247953415E-08;-2,68175452947617E-08;100 nA
0,750732421875;339,729444142266;1,373291015625E-10;0,7498779296875;9;665;2,82227247953415E-08;-2,68175452947617E-08;100 nA
0,70068359375;340,229932141002;5,79833984375E-11;0,699951171875;9;666;2,82227247953415E-08;-2,68175452947617E-08;100 nA
0,650634765625;340,730420139738;-3,0517578125E-11;0,650054931640625;9;667;2,82227247953415E-08;-2,68175452947617E-08;100 nA
0,6005859375;341,230908138475;-9,1552734375E-11;0,60009765625;9;668;2,82227247953415E-08;-2,68175452947617E-08;100 nA
0,550537109375;341,731396137211;-1,068115234375E-10;0,550140380859375;9;669;2,82227247953415E-08;-2,68175452947617E-08;100 nA
0,50048828125;342,231884135948;-1,434326171875E-10;0,50006103515625;9;670;2,82227247953415E-08;-2,68175452947617E-08;100 nA
0,450439453125;342,732372134684;-1,5869140625E-10;0,450164794921875;9;671;2,82227247953415E-08;-2,68175452947617E-08;100 nA
0,400390625;343,23286013342;-1,861572265625E-10;0,400146484375;9;672;2,82227247953415E-08;-2,68175452947617E-08;100 nA
0,350341796875;343,733348132157;-3,265380859375E-10;0,350128173828125;9;673;2,82227247953415E-08;-2,68175452947617E-08;100 nA
0,30029296875;344,233836130893;-4,69970703125E-10;0,300018310546875;9;674;2,82227247953415E-08;-2,68175452947617E-08;100 nA
0,250244140625;344,73432412963;-6,2255859375E-10;0,25006103515625;9;675;2,82227247953415E-08;-2,68175452947617E-08;100 nA
0,2001953125;345,234812128366;-8,514404296875E-10;0,200103759765625;9;676;2,82227247953415E-08;-2,68175452947617E-08;100 nA
0,150146484375;345,735300127102;-1,2115478515625E-09;0,150054931640625;9;677;2,82227247953415E-08;-2,68175452947617E-08;100 nA
0,10009765625;346,235788125839;-2,1148681640625E-09;0,10009765625;9;678;2,82227247953415E-08;-2,68175452947617E-08;100 nA
0,050048828125;346,736276124575;-5,0689697265625E-09;0,05010986328125;9;679;2,82227247953415E-08;-2,68175452947617E-08;100 nA
0;347,236764123311;-5,6549072265625E-09;0,000146484375000006;9;680;2,82227247953415E-08;-2,68175452947617E-08;100 nA
-0,050048828125;347,737252122048;-3,045654296875E-09;-0,0498046875;9;681;2,82227247953415E-08;-2,68175452947617E-08;100 nA
-0,10009765625;348,237740120784;-2,6885986328125E-09;-0,09967041015625;9;682;2,82227247953415E-08;-2,68175452947617E-08;100 nA
-0,150146484375;348,738228119521;-2,6092529296875E-09;-0,14959716796875;9;683;2,82227247953415E-08;-2,68175452947617E-08;100 nA
-0,2001953125;349,238716118257;-2,6702880859375E-09;-0,199493408203125;9;684;2,82227247953415E-08;-2,68175452947617E-08;100 nA
-0,250244140625;349,739204116993;-2,8564453125E-09;-0,2493896484375;9;685;2,82227247953415E-08;-2,68175452947617E-08;100 nA
-0,30029296875;350,23969211573;-2,77099609375E-09;-0,299285888671875;9;686;2,82227247953415E-08;-2,68175452947617E-08;100 nA
-0,350341796875;350,740180114466;-2,4749755859375E-09;-0,34918212890625;9;687;2,82227247953415E-08;-2,68175452947617E-08;100 nA
-0,400390625;351,240668113203;-2,178955078125E-09;-0,3990478515625;9;688;2,82227247953415E-08;-2,68175452947617E-08;100 nA
-0,450439453125;351,741156111939;-2,03857421875E-09;-0,448974609375;9;689;2,82227247953415E-08;-2,68175452947617E-08;100 nA
-0,50048828125;352,241644110675;-1,9866943359375E-09;-0,4989013671875;9;690;2,82227247953415E-08;-2,68175452947617E-08;100 nA
-0,550537109375;352,742132109412;-1,806640625E-09;-0,548736572265625;9;691;2,82227247953415E-08;-2,68175452947617E-08;100 nA
-0,6005859375;353,242620108148;-1,4404296875E-09;-0,5986328125;9;692;2,82227247953415E-08;-2,68175452947617E-08;100 nA
-0,650634765625;353,743108106885;-1,068115234375E-09;-0,648651123046875;9;693;2,82227247953415E-08;-2,68175452947617E-08;100 nA
-0,70068359375;354,243596105621;-8,72802734375E-10;-0,698638916015625;9;694;2,82227247953415E-08;-2,68175452947617E-08;100 nA
-0,750732421875;354,744084104357;-7,568359375E-10;-0,748626708984375;9;695;2,82227247953415E-08;-2,68175452947617E-08;100 nA
-0,80078125;355,244572103094;-6,89697265625E-10;-0,79864501953125;9;696;2,82227247953415E-08;-2,68175452947617E-08;100 nA
-0,850830078125;355,74506010183;-6,591796875E-10;-0,84869384765625;9;697;2,82227247953415E-08;-2,68175452947617E-08;100 nA
-0,90087890625;356,245548100566;-6,8359375E-10;-0,89874267578125;9;698;2,82227247953415E-08;-2,68175452947617E-08;100 nA
-0,950927734375;356,746036099303;-7,537841796875E-10;-0,9490966796875;9;699;2,82227247953415E-08;-2,68175452947617E-08;100 nA
-1,0009765625;357,246524098039;-9,185791015625E-10;-0,9991455078125;9;700;2,82227247953415E-08;-2,68175452947617E-08;100 nA
-0,950927734375;357,747012096776;-5,279541015625E-10;-0,9490966796875;9;701;2,82227247953415E-08;-2,68175452947617E-08;100 nA
-0,90087890625;358,247500095512;-3,570556640625E-10;-0,89874267578125;9;702;2,82227247953415E-08;-2,68175452947617E-08;100 nA
-0,850830078125;358,747988094248;-2,655029296875E-10;-0,848388671875;9;703;2,82227247953415E-08;-2,68175452947617E-08;100 nA
-0,80078125;359,248476092985;-2,197265625E-10;-0,7989501953125;9;704;2,82227247953415E-08;-2,68175452947617E-08;100 nA
-0,750732421875;359,748964091721;-1,617431640625E-10;-0,748626708984375;9;705;2,82227247953415E-08;-2,68175452947617E-08;100 nA
-0,70068359375;360,249452090458;-4,2724609375E-11;-0,6986083984375;9;706;2,82227247953415E-08;-2,68175452947617E-08;100 nA
-0,650634765625;360,749940089194;7,32421875E-11;-0,648651123046875;9;707;2,82227247953415E-08;-2,68175452947617E-08;100 nA
-0,6005859375;361,25042808793;1,5869140625E-10;-0,598663330078125;9;708;2,82227247953415E-08;-2,68175452947617E-08;100 nA
-0,550537109375;361,750916086667;3,41796875E-10;-0,548797607421875;9;709;2,82227247953415E-08;-2,68175452947617E-08;100 nA
-0,50048828125;362,251404085403;6,40869140625E-10;-0,4989013671875;9;710;2,82227247953415E-08;-2,68175452947617E-08;100 nA
-0,450439453125;362,75189208414;8,72802734375E-10;-0,448974609375;9;711;2,82227247953415E-08;-2,68175452947617E-08;100 nA
-0,400390625;363,252380082876;1,0589599609375E-09;-0,399139404296875;9;712;2,82227247953415E-08;-2,68175452947617E-08;100 nA
-0,350341796875;363,752868081612;1,263427734375E-09;-0,349212646484375;9;713;2,82227247953415E-08;-2,68175452947617E-08;100 nA
-0,30029296875;364,253356080349;1,6265869140625E-09;-0,299285888671875;9;714;2,82227247953415E-08;-2,68175452947617E-08;100 nA
-0,250244140625;364,753844079085;1,9744873046875E-09;-0,2493896484375;9;715;2,82227247953415E-08;-2,68175452947617E-08;100 nA
-0,2001953125;365,254332077821;2,45361328125E-09;-0,199493408203125;9;716;2,82227247953415E-08;-2,68175452947617E-08;100 nA
-0,150146484375;365,754820076558;2,911376953125E-09;-0,149627685546875;9;717;2,82227247953415E-08;-2,68175452947617E-08;100 nA
-0,10009765625;366,255308075294;2,984619140625E-09;-0,099700927734375;9;718;2,82227247953415E-08;-2,68175452947617E-08;100 nA
-0,050048828125;366,755796074031;2,813720703125E-09;-0,04974365234375;9;719;2,82227247953415E-08;-2,68175452947617E-08;100 nA
0;367,256284072767;2,679443359375E-09;0,000115966796875006;9;720;2,82227247953415E-08;-2,68175452947617E-08;100 nA
0,050048828125;367,756772071503;2,9937744140625E-09;0,05010986328125;10;721;2,81814858317375E-08;-2,60492786765099E-08;100 nA
0,10009765625;368,25726007024;3,9703369140625E-09;0,100067138671875;10;722;2,81814858317375E-08;-2,60492786765099E-08;100 nA
0,150146484375;368,757748068976;2,911376953125E-09;0,150115966796875;10;723;2,81814858317375E-08;-2,60492786765099E-08;100 nA
0,2001953125;369,258236067713;2,349853515625E-09;0,2000732421875;10;724;2,81814858317375E-08;-2,60492786765099E-08;100 nA
0,250244140625;369,758724066449;1,9561767578125E-09;0,250152587890625;10;725;2,81814858317375E-08;-2,60492786765099E-08;100 nA
0,30029296875;370,259212065185;1,6326904296875E-09;0,300079345703125;10;726;2,81814858317375E-08;-2,60492786765099E-08;100 nA
0,350341796875;370,759700063922;1,397705078125E-09;0,35015869140625;10;727;2,81814858317375E-08;-2,60492786765099E-08;100 nA
0,400390625;371,260188062658;1,2054443359375E-09;0,400146484375;10;728;2,81814858317375E-08;-2,60492786765099E-08;100 nA
0,450439453125;371,760676061395;1,0955810546875E-09;0,45013427734375;10;729;2,81814858317375E-08;-2,60492786765099E-08;100 nA
0,50048828125;372,261164060131;1,007080078125E-09;0,5001220703125;10;730;2,81814858317375E-08;-2,60492786765099E-08;100 nA
0,550537109375;372,761652058867;9,521484375E-10;0,550079345703125;10;731;2,81814858317375E-08;-2,60492786765099E-08;100 nA
0,6005859375;373,262140057604;9,246826171875E-10;0,600128173828125;10;732;2,81814858317375E-08;-2,60492786765099E-08;100 nA
0,650634765625;373,76262805634;9,063720703125E-10;0,650054931640625;10;733;2,81814858317375E-08;-2,60492786765099E-08;100 nA
0,70068359375;374,263116055076;9,3994140625E-10;0,699981689453125;10;734;2,81814858317375E-08;-2,60492786765099E-08;100 nA
0,750732421875;374,763604053813;9,796142578125E-10;0,749908447265625;10;735;2,81814858317375E-08;-2,60492786765099E-08;100 nA
0,80078125;375,264092052549;9,82666015625E-10;0,8001708984375;10;736;2,81814858317375E-08;-2,60492786765099E-08;100 nA
0,850830078125;375,764580051286;1,031494140625E-09;0,849609375;10;737;2,81814858317375E-08;-2,60492786765099E-08;100 nA
0,90087890625;376,265068050022;1,220703125E-09;0,899658203125;10;738;2,81814858317375E-08;-2,60492786765099E-08;100 nA
0,950927734375;376,765556048758;1,57470703125E-09;0,94940185546875;10;739;2,81814858317375E-08;-2,60492786765099E-08;100 nA
1,0009765625;377,266044047495;2,1209716796875E-09;1,00006103515625;10;740;2,81814858317375E-08;-2,60492786765099E-08;100 nA
0,950927734375;377,766532046231;1,0711669921875E-09;0,95001220703125;10;741;2,81814858317375E-08;-2,60492786765099E-08;100 nA
0,90087890625;378,267020044968;6,28662109375E-10;0,899658203125;10;742;2,81814858317375E-08;-2,60492786765099E-08;100 nA
0,850830078125;378,767508043704;3,326416015625E-10;0,84991455078125;10;743;2,81814858317375E-08;-2,60492786765099E-08;100 nA
0,80078125;379,26799604244;2,197265625E-10;0,8001708984375;10;744;2,81814858317375E-08;-2,60492786765099E-08;100 nA
0,750732421875;379,768484041177;1,5869140625E-10;0,749908447265625;10;745;2,81814858317375E-08;-2,60492786765099E-08;100 nA
0,70068359375;380,268972039913;9,1552734375E-11;0,699981689453125;10;746;2,81814858317375E-08;-2,60492786765099E-08;100 nA
0,650634765625;380,76946003865;-3,0517578125E-12;0,65008544921875;10;747;2,81814858317375E-08;-2,60492786765099E-08;100 nA
0,6005859375;381,269948037386;-6,40869140625E-11;0,60009765625;10;748;2,81814858317375E-08;-2,60492786765099E-08;100 nA
0,550537109375;381,770436036122;-1,068115234375E-10;0,550140380859375;10;749;2,81814858317375E-08;-2,60492786765099E-08;100 nA
0,50048828125;382,270924034859;-1,068115234375E-10;0,500091552734375;10;750;2,81814858317375E-08;-2,60492786765099E-08;100 nA
0,450439453125;382,771412033595;-1,40380859375E-10;0,45013427734375;10;751;2,81814858317375E-08;-2,60492786765099E-08;100 nA
0,400390625;383,271900032331;-1,89208984375E-10;0,400146484375;10;752;2,81814858317375E-08;-2,60492786765099E-08;100 nA
0,350341796875;383,772388031068;-2,410888671875E-10;0,350189208984375;10;753;2,81814858317375E-08;-2,60492786765099E-08;100 nA
0,30029296875;384,272876029804;-3,662109375E-10;0,30010986328125;10;754;2,81814858317375E-08;-2,60492786765099E-08;100 nA
0,250244140625;384,773364028541;-5,55419921875E-10;0,250152587890625;10;755;2,81814858317375E-08;-2,60492786765099E-08;100 nA
0,2001953125;385,273852027277;-7,965087890625E-10;0,200042724609375;10;756;2,81814858317375E-08;-2,60492786765099E-08;100 nA
0,150146484375;385,774340026013;-1,1383056640625E-09;0,150115966796875;10;757;2,81814858317375E-08;-2,60492786765099E-08;100 nA
0,10009765625;386,27482802475;-1,983642578125E-09;0,100128173828125;10;758;2,81814858317375E-08;-2,60492786765099E-08;100 nA
0,050048828125;386,775316023486;-4,931640625E-09;0,05010986328125;10;759;2,81814858317375E-08;-2,60492786765099E-08;100 nA
0;387,275804022223;-5,6976318359375E-09;0,000155639648437497;10;760;2,81814858317375E-08;-2,60492786765099E-08;100 nA
-0,050048828125;387,776292020959;-3,045654296875E-09;-0,049835205078125;10;761;2,81814858317375E-08;-2,60492786765099E-08;100 nA
-0,10009765625;388,276780019695;-2,606201171875E-09;-0,09967041015625;10;762;2,81814858317375E-08;-2,60492786765099E-08;100 nA
-0,150146484375;388,777268018432;-2,569580078125E-09;-0,149566650390625;10;763;2,81814858317375E-08;-2,60492786765099E-08;100 nA
-0,2001953125;389,277756017168;-2,6458740234375E-09;-0,199493408203125;10;764;2,81814858317375E-08;-2,60492786765099E-08;100 nA
-0,250244140625;389,778244015905;-2,81982421875E-09;-0,249359130859375;10;765;2,81814858317375E-08;-2,60492786765099E-08;100 nA
-0,30029296875;390,278732014641;-2,7557373046875E-09;-0,29925537109375;10;766;2,81814858317375E-08;-2,60492786765099E-08;100 nA
-0,350341796875;390,779220013377;-2,435302734375E-09;-0,349212646484375;10;767;2,81814858317375E-08;-2,60492786765099E-08;100 nA
-0,400390625;391,279708012114;-2,1392822265625E-09;-0,399139404296875;10;768;2,81814858317375E-08;-2,60492786765099E-08;100 nA
-0,450439453125;391,78019601085;-1,9989013671875E-09;-0,449005126953125;10;769;2,81814858317375E-08;-2,60492786765099E-08;100 nA
-0,50048828125;392,280684009586;-1,9317626953125E-09;-0,4989013671875;10;770;2,81814858317375E-08;-2,60492786765099E-08;100 nA
-0,550537109375;392,781172008323;-1,751708984375E-09;-0,548797607421875;10;771;2,81814858317375E-08;-2,60492786765099E-08;100 nA
-0,6005859375;393,281660007059;-1,3885498046875E-09;-0,59869384765625;10;772;2,81814858317375E-08;-2,60492786765099E-08;100 nA
-0,650634765625;393,782148005796;-1,0284423828125E-09;-0,648529052734375;10;773;2,81814858317375E-08;-2,60492786765099E-08;100 nA
-0,70068359375;394,282636004532;-8,453369140625E-10;-0,698638916015625;10;774;2,81814858317375E-08;-2,60492786765099E-08;100 nA
-0,750732421875;394,783124003268;-7,4462890625E-10;-0,748626708984375;10;775;2,81814858317375E-08;-2,60492786765099E-08;100 nA
-0,80078125;395,283612002005;-6,7138671875E-10;-0,79864501953125;10;776;2,81814858317375E-08;-2,60492786765099E-08;100 nA
-0,850830078125;395,784100000741;-6,195068359375E-10;-0,84869384765625;10;777;2,81814858317375E-08;-2,60492786765099E-08;100 nA
-0,90087890625;396,284587999478;-6,317138671875E-10;-0,8990478515625;10;778;2,81814858317375E-08;-2,60492786765099E-08;100 nA
-0,950927734375;396,785075998214;-7,354736328125E-10;-0,948486328125;10;779;2,81814858317375E-08;-2,60492786765099E-08;100 nA
-1,0009765625;397,28556399695;-8,9111328125E-10;-0,99884033203125;10;780;2,81814858317375E-08;-2,60492786765099E-08;100 nA
-0,950927734375;397,786051995687;-4,913330078125E-10;-0,948486328125;10;781;2,81814858317375E-08;-2,60492786765099E-08;100 nA
-0,90087890625;398,286539994423;-3,47900390625E-10;-0,89874267578125;10;782;2,81814858317375E-08;-2,60492786765099E-08;100 nA
-0,850830078125;398,78702799316;-2,5634765625E-10;-0,84869384765625;10;783;2,81814858317375E-08;-2,60492786765099E-08;100 nA
-0,80078125;399,287515991896;-2,13623046875E-10;-0,79864501953125;10;784;2,81814858317375E-08;-2,60492786765099E-08;100 nA
-0,750732421875;399,788003990632;-1,312255859375E-10;-0,748687744140625;10;785;2,81814858317375E-08;-2,60492786765099E-08;100 nA
-0,70068359375;400,288491989369;-3,0517578125E-11;-0,698577880859375;10;786;2,81814858317375E-08;-2,60492786765099E-08;100 nA
-0,650634765625;400,788979988105;2,13623046875E-11;-0,648590087890625;10;787;2,81814858317375E-08;-2,60492786765099E-08;100 nA
-0,6005859375;401,289467986841;1,15966796875E-10;-0,598663330078125;10;788;2,81814858317375E-08;-2,60492786765099E-08;100 nA
-0,550537109375;401,789955985578;3,23486328125E-10;-0,54876708984375;10;789;2,81814858317375E-08;-2,60492786765099E-08;100 nA
-0,50048828125;402,290443984314;6,16455078125E-10;-0,498870849609375;10;790;2,81814858317375E-08;-2,60492786765099E-08;100 nA
-0,450439453125;402,790931983051;8,30078125E-10;-0,449005126953125;10;791;2,81814858317375E-08;-2,60492786765099E-08;100 nA
-0,400390625;403,291419981787;1,0467529296875E-09;-0,399078369140625;10;792;2,81814858317375E-08;-2,60492786765099E-08;100 nA
-0,350341796875;403,791907980523;1,2359619140625E-09;-0,3492431640625;10;793;2,81814858317375E-08;-2,60492786765099E-08;100 nA
-0,30029296875;404,29239597926;1,5167236328125E-09;-0,299285888671875;10;794;2,81814858317375E-08;-2,60492786765099E-08;100 nA
-0,250244140625;404,792883977996;2,0111083984375E-09;-0,24932861328125;10;795;2,81814858317375E-08;-2,60492786765099E-08;100 nA
-0,2001953125;405,293371976733;2,410888671875E-09;-0,199554443359375;10;796;2,81814858317375E-08;-2,60492786765099E-08;100 nA
-0,150146484375;405,793859975469;2,8350830078125E-09;-0,149627685546875;10;797;2,81814858317375E-08;-2,60492786765099E-08;100 nA
-0,10009765625;406,294347974205;2,9022216796875E-09;-0,09967041015625;10;798;2,81814858317375E-08;-2,60492786765099E-08;100 nA
-0,050048828125;406,794835972942;2,94189453125E-09;-0,04974365234375;10;799;2,81814858317375E-08;-2,60492786765099E-08;100 nA
0;407,295323971678;2,84423828125E-09;0,000131225585937506;10;800;2,81814858317375E-08;-2,60492786765099E-08;100 nA
