Potential applied (V);Time (s);WE(1).Current (A);WE(1).Potential (V);Scan;Index;Q+;Q-;Current range
0,050048828125;7,37211098138721;2,0477294921875E-09;0,050140380859375;1;1;1,34472623467445E-07;-1,47026069462299E-07;100 nA
0,10009765625;7,8725989801236;4,0863037109375E-09;0,10009765625;1;2;1,34472623467445E-07;-1,47026069462299E-07;100 nA
0,150146484375;8,37308697885999;4,5501708984375E-09;0,150115966796875;1;3;1,34472623467445E-07;-1,47026069462299E-07;100 nA
0,2001953125;8,87357497759638;4,8126220703125E-09;0,200042724609375;1;4;1,34472623467445E-07;-1,47026069462299E-07;100 nA
0,250244140625;9,37406297633277;5,2215576171875E-09;0,2501220703125;1;5;1,34472623467445E-07;-1,47026069462299E-07;100 nA
0,30029296875;9,87455097506916;5,645751953125E-09;0,30010986328125;1;6;1,34472623467445E-07;-1,47026069462299E-07;100 nA
0,350341796875;10,3750389738055;6,09130859375E-09;0,350128173828125;1;7;1,34472623467445E-07;-1,47026069462299E-07;100 nA
0,400390625;10,8755269725419;6,597900390625E-09;0,400115966796875;1;8;1,34472623467445E-07;-1,47026069462299E-07;100 nA
0,450439453125;11,3760149712783;7,1014404296875E-09;0,45013427734375;1;9;1,34472623467445E-07;-1,47026069462299E-07;100 nA
0,50048828125;11,8765029700147;7,550048828125E-09;0,5001220703125;1;10;1,34472623467445E-07;-1,47026069462299E-07;100 nA
0,550537109375;12,3769909687511;8,0322265625E-09;0,550140380859375;1;11;1,34472623467445E-07;-1,47026069462299E-07;100 nA
0,6005859375;12,8774789674875;8,453369140625E-09;0,600067138671875;1;12;1,34472623467445E-07;-1,47026069462299E-07;100 nA
0,650634765625;13,3779669662239;8,9752197265625E-09;0,65008544921875;1;13;1,34472623467445E-07;-1,47026069462299E-07;100 nA
0,70068359375;13,8784549649603;9,3963623046875E-09;0,69989013671875;1;14;1,34472623467445E-07;-1,47026069462299E-07;100 nA
0,750732421875;14,3789429636967;9,857177734375E-09;0,7498779296875;1;15;1,34472623467445E-07;-1,47026069462299E-07;100 nA
0,80078125;14,879430962433;1,04034423828125E-08;0,799560546875;1;16;1,34472623467445E-07;-1,47026069462299E-07;100 nA
0,850830078125;15,3799189611694;1,09619140625E-08;0,849609375;1;17;1,34472623467445E-07;-1,47026069462299E-07;100 nA
0,90087890625;15,8804069599058;1,15753173828125E-08;0,899658203125;1;18;1,34472623467445E-07;-1,47026069462299E-07;100 nA
0,950927734375;16,3808949586422;1,2408447265625E-08;0,95001220703125;1;19;1,34472623467445E-07;-1,47026069462299E-07;100 nA
1,0009765625;16,8813829573786;1,34002685546875E-08;0,999755859375;1;20;1,34472623467445E-07;-1,47026069462299E-07;100 nA
0,950927734375;17,381870956115;1,1761474609375E-08;0,94970703125;1;21;1,34472623467445E-07;-1,47026069462299E-07;100 nA
0,90087890625;17,8823589548514;1,0736083984375E-08;0,8990478515625;1;22;1,34472623467445E-07;-1,47026069462299E-07;100 nA
0,850830078125;18,3828469535878;9,9151611328125E-09;0,849609375;1;23;1,34472623467445E-07;-1,47026069462299E-07;100 nA
0,80078125;18,8833349523242;9,1644287109375E-09;0,79986572265625;1;24;1,34472623467445E-07;-1,47026069462299E-07;100 nA
0,750732421875;19,3838229510606;8,5418701171875E-09;0,7498779296875;1;25;1,34472623467445E-07;-1,47026069462299E-07;100 nA
0,70068359375;19,8843109497969;7,87353515625E-09;0,699981689453125;1;26;1,34472623467445E-07;-1,47026069462299E-07;100 nA
0,650634765625;20,3847989485333;7,2174072265625E-09;0,650054931640625;1;27;1,34472623467445E-07;-1,47026069462299E-07;100 nA
0,6005859375;20,8852869472697;6,5673828125E-09;0,600128173828125;1;28;1,34472623467445E-07;-1,47026069462299E-07;100 nA
0,550537109375;21,3857749460061;5,9356689453125E-09;0,55010986328125;1;29;1,34472623467445E-07;-1,47026069462299E-07;100 nA
0,50048828125;21,8862629447425;5,2886962890625E-09;0,50018310546875;1;30;1,34472623467445E-07;-1,47026069462299E-07;100 nA
0,450439453125;22,3867509434789;4,67529296875E-09;0,45013427734375;1;31;1,34472623467445E-07;-1,47026069462299E-07;100 nA
0,400390625;22,8872389422153;4,010009765625E-09;0,400115966796875;1;32;1,34472623467445E-07;-1,47026069462299E-07;100 nA
0,350341796875;23,3877269409517;3,3233642578125E-09;0,35009765625;1;33;1,34472623467445E-07;-1,47026069462299E-07;100 nA
0,30029296875;23,8882149396881;2,5604248046875E-09;0,300048828125;1;34;1,34472623467445E-07;-1,47026069462299E-07;100 nA
0,250244140625;24,3887029384244;1,7242431640625E-09;0,25006103515625;1;35;1,34472623467445E-07;-1,47026069462299E-07;100 nA
0,2001953125;24,8891909371608;9,307861328125E-10;0,200103759765625;1;36;1,34472623467445E-07;-1,47026069462299E-07;100 nA
0,150146484375;25,3896789358972;-1,495361328125E-10;0,150115966796875;1;37;1,34472623467445E-07;-1,47026069462299E-07;100 nA
0,10009765625;25,8901669346336;-1,8218994140625E-09;0,10009765625;1;38;1,34472623467445E-07;-1,47026069462299E-07;100 nA
0,050048828125;26,39065493337;-4,412841796875E-09;0,050140380859375;1;39;1,34472623467445E-07;-1,47026069462299E-07;100 nA
0;26,8911429321064;-3,4912109375E-09;0,0001373291015625;1;40;1,34472623467445E-07;-1,47026069462299E-07;100 nA
-0,050048828125;27,3916309308428;-3,704833984375E-09;-0,04986572265625;1;41;1,34472623467445E-07;-1,47026069462299E-07;100 nA
-0,10009765625;27,8921189295792;-4,5257568359375E-09;-0,099700927734375;1;42;1,34472623467445E-07;-1,47026069462299E-07;100 nA
-0,150146484375;28,3926069283156;-5,194091796875E-09;-0,14959716796875;1;43;1,34472623467445E-07;-1,47026069462299E-07;100 nA
-0,2001953125;28,8930949270519;-5,902099609375E-09;-0,199432373046875;1;44;1,34472623467445E-07;-1,47026069462299E-07;100 nA
-0,250244140625;29,3935829257883;-6,549072265625E-09;-0,24932861328125;1;45;1,34472623467445E-07;-1,47026069462299E-07;100 nA
-0,30029296875;29,8940709245247;-7,366943359375E-09;-0,29931640625;1;46;1,34472623467445E-07;-1,47026069462299E-07;100 nA
-0,350341796875;30,3945589232611;-8,123779296875E-09;-0,349151611328125;1;47;1,34472623467445E-07;-1,47026069462299E-07;100 nA
-0,400390625;30,8950469219975;-8,612060546875E-09;-0,39910888671875;1;48;1,34472623467445E-07;-1,47026069462299E-07;100 nA
-0,450439453125;31,3955349207339;-9,0423583984375E-09;-0,448944091796875;1;49;1,34472623467445E-07;-1,47026069462299E-07;100 nA
-0,50048828125;31,8960229194703;-9,6038818359375E-09;-0,49884033203125;1;50;1,34472623467445E-07;-1,47026069462299E-07;100 nA
-0,550537109375;32,3965109182067;-1,031494140625E-08;-0,54876708984375;1;51;1,34472623467445E-07;-1,47026069462299E-07;100 nA
-0,6005859375;32,8969989169431;-1,0882568359375E-08;-0,5986328125;1;52;1,34472623467445E-07;-1,47026069462299E-07;100 nA
-0,650634765625;33,3974869156795;-1,13006591796875E-08;-0,6485595703125;1;53;1,34472623467445E-07;-1,47026069462299E-07;100 nA
-0,70068359375;33,8979749144158;-1,1602783203125E-08;-0,698577880859375;1;54;1,34472623467445E-07;-1,47026069462299E-07;100 nA
-0,750732421875;34,3984629131522;-1,18133544921875E-08;-0,748565673828125;1;55;1,34472623467445E-07;-1,47026069462299E-07;100 nA
-0,80078125;34,8989509118886;-1,21978759765625E-08;-0,79803466796875;1;56;1,34472623467445E-07;-1,47026069462299E-07;100 nA
-0,850830078125;35,399438910625;-1,27288818359375E-08;-0,84869384765625;1;57;1,34472623467445E-07;-1,47026069462299E-07;100 nA
-0,90087890625;35,8999269093614;-1,3262939453125E-08;-0,8984375;1;58;1,34472623467445E-07;-1,47026069462299E-07;100 nA
-0,950927734375;36,4004149080978;-1,37939453125E-08;-0,94879150390625;1;59;1,34472623467445E-07;-1,47026069462299E-07;100 nA
-1,0009765625;36,9009029068342;-1,439208984375E-08;-0,9991455078125;1;60;1,34472623467445E-07;-1,47026069462299E-07;100 nA
-0,950927734375;37,4013909055706;-1,295166015625E-08;-0,9490966796875;1;61;1,34472623467445E-07;-1,47026069462299E-07;100 nA
-0,90087890625;37,901878904307;-1,180419921875E-08;-0,8984375;1;62;1,34472623467445E-07;-1,47026069462299E-07;100 nA
-0,850830078125;38,4023669030433;-1,082763671875E-08;-0,84869384765625;1;63;1,34472623467445E-07;-1,47026069462299E-07;100 nA
-0,80078125;38,9028549017797;-9,8358154296875E-09;-0,79864501953125;1;64;1,34472623467445E-07;-1,47026069462299E-07;100 nA
-0,750732421875;39,4033429005161;-8,8287353515625E-09;-0,7486572265625;1;65;1,34472623467445E-07;-1,47026069462299E-07;100 nA
-0,70068359375;39,9038308992525;-7,8643798828125E-09;-0,698577880859375;1;66;1,34472623467445E-07;-1,47026069462299E-07;100 nA
-0,650634765625;40,4043188979889;-6,9366455078125E-09;-0,648590087890625;1;67;1,34472623467445E-07;-1,47026069462299E-07;100 nA
-0,6005859375;40,9048068967253;-6,048583984375E-09;-0,598724365234375;1;68;1,34472623467445E-07;-1,47026069462299E-07;100 nA
-0,550537109375;41,4052948954617;-5,1239013671875E-09;-0,548797607421875;1;69;1,34472623467445E-07;-1,47026069462299E-07;100 nA
-0,50048828125;41,9057828941981;-4,1961669921875E-09;-0,498931884765625;1;70;1,34472623467445E-07;-1,47026069462299E-07;100 nA
-0,450439453125;42,4062708929345;-3,4027099609375E-09;-0,448974609375;1;71;1,34472623467445E-07;-1,47026069462299E-07;100 nA
-0,400390625;42,9067588916708;-2,532958984375E-09;-0,399017333984375;1;72;1,34472623467445E-07;-1,47026069462299E-07;100 nA
-0,350341796875;43,4072468904072;-1,7364501953125E-09;-0,3492431640625;1;73;1,34472623467445E-07;-1,47026069462299E-07;100 nA
-0,30029296875;43,9077348891436;-7,32421875E-10;-0,29931640625;1;74;1,34472623467445E-07;-1,47026069462299E-07;100 nA
-0,250244140625;44,40822288788;-1,52587890625E-10;-0,249420166015625;1;75;1,34472623467445E-07;-1,47026069462299E-07;100 nA
-0,2001953125;44,9087108866164;7,080078125E-10;-0,199462890625;1;76;1,34472623467445E-07;-1,47026069462299E-07;100 nA
-0,150146484375;45,4091988853528;1,556396484375E-09;-0,149566650390625;1;77;1,34472623467445E-07;-1,47026069462299E-07;100 nA
-0,10009765625;45,9096868840892;2,2552490234375E-09;-0,099700927734375;1;78;1,34472623467445E-07;-1,47026069462299E-07;100 nA
-0,050048828125;46,4101748828256;2,996826171875E-09;-0,049835205078125;1;79;1,34472623467445E-07;-1,47026069462299E-07;100 nA
0;46,910662881562;3,77197265625E-09;0,000128173828124994;1;80;1,34472623467445E-07;-1,47026069462299E-07;100 nA
0,050048828125;47,4111508802984;4,5562744140625E-09;0,05010986328125;2;81;1,46964974701405E-07;-1,45391784608364E-07;100 nA
0,10009765625;47,9116388790347;5,9326171875E-09;0,100128173828125;2;82;1,46964974701405E-07;-1,45391784608364E-07;100 nA
0,150146484375;48,4121268777711;6,1798095703125E-09;0,150146484375;2;83;1,46964974701405E-07;-1,45391784608364E-07;100 nA
0,2001953125;48,9126148765075;6,304931640625E-09;0,2000732421875;2;84;1,46964974701405E-07;-1,45391784608364E-07;100 nA
0,250244140625;49,4131028752439;6,6131591796875E-09;0,2501220703125;2;85;1,46964974701405E-07;-1,45391784608364E-07;100 nA
0,30029296875;49,9135908739803;6,89697265625E-09;0,300140380859375;2;86;1,46964974701405E-07;-1,45391784608364E-07;100 nA
0,350341796875;50,4140788727167;7,2998046875E-09;0,35009765625;2;87;1,46964974701405E-07;-1,45391784608364E-07;100 nA
0,400390625;50,9145668714531;7,7606201171875E-09;0,400146484375;2;88;1,46964974701405E-07;-1,45391784608364E-07;100 nA
0,450439453125;51,4150548701895;8,251953125E-09;0,450103759765625;2;89;1,46964974701405E-07;-1,45391784608364E-07;100 nA
0,50048828125;51,9155428689259;8,77685546875E-09;0,500030517578125;2;90;1,46964974701405E-07;-1,45391784608364E-07;100 nA
0,550537109375;52,4160308676622;9,320068359375E-09;0,550140380859375;2;91;1,46964974701405E-07;-1,45391784608364E-07;100 nA
0,6005859375;52,9165188663986;9,87548828125E-09;0,600128173828125;2;92;1,46964974701405E-07;-1,45391784608364E-07;100 nA
0,650634765625;53,417006865135;1,0400390625E-08;0,649993896484375;2;93;1,46964974701405E-07;-1,45391784608364E-07;100 nA
0,70068359375;53,9174948638714;1,07757568359375E-08;0,699920654296875;2;94;1,46964974701405E-07;-1,45391784608364E-07;100 nA
0,750732421875;54,4179828626078;1,0955810546875E-08;0,749847412109375;2;95;1,46964974701405E-07;-1,45391784608364E-07;100 nA
0,80078125;54,9184708613442;1,1236572265625E-08;0,799560546875;2;96;1,46964974701405E-07;-1,45391784608364E-07;100 nA
0,850830078125;55,4189588600806;1,14990234375E-08;0,84991455078125;2;97;1,46964974701405E-07;-1,45391784608364E-07;100 nA
0,90087890625;55,919446858817;1,19842529296875E-08;0,89996337890625;2;98;1,46964974701405E-07;-1,45391784608364E-07;100 nA
0,950927734375;56,4199348575534;1,26556396484375E-08;0,94940185546875;2;99;1,46964974701405E-07;-1,45391784608364E-07;100 nA
1,0009765625;56,9204228562897;1,36016845703125E-08;0,999755859375;2;100;1,46964974701405E-07;-1,45391784608364E-07;100 nA
0,950927734375;57,4209108550261;1,1895751953125E-08;0,94970703125;2;101;1,46964974701405E-07;-1,45391784608364E-07;100 nA
0,90087890625;57,9213988537625;1,08123779296875E-08;0,899658203125;2;102;1,46964974701405E-07;-1,45391784608364E-07;100 nA
0,850830078125;58,4218868524989;9,9609375E-09;0,84991455078125;2;103;1,46964974701405E-07;-1,45391784608364E-07;100 nA
0,80078125;58,9223748512353;9,2437744140625E-09;0,8001708984375;2;104;1,46964974701405E-07;-1,45391784608364E-07;100 nA
0,750732421875;59,4228628499717;8,5662841796875E-09;0,7498779296875;2;105;1,46964974701405E-07;-1,45391784608364E-07;100 nA
0,70068359375;59,9233508487081;7,92236328125E-09;0,699951171875;2;106;1,46964974701405E-07;-1,45391784608364E-07;100 nA
0,650634765625;60,4238388474445;7,257080078125E-09;0,650054931640625;2;107;1,46964974701405E-07;-1,45391784608364E-07;100 nA
0,6005859375;60,9243268461809;6,6009521484375E-09;0,60015869140625;2;108;1,46964974701405E-07;-1,45391784608364E-07;100 nA
0,550537109375;61,4248148449173;5,9661865234375E-09;0,550201416015625;2;109;1,46964974701405E-07;-1,45391784608364E-07;100 nA
0,50048828125;61,9253028436536;5,3466796875E-09;0,5001220703125;2;110;1,46964974701405E-07;-1,45391784608364E-07;100 nA
0,450439453125;62,42579084239;4,74853515625E-09;0,450103759765625;2;111;1,46964974701405E-07;-1,45391784608364E-07;100 nA
0,400390625;62,9262788411264;4,0435791015625E-09;0,400115966796875;2;112;1,46964974701405E-07;-1,45391784608364E-07;100 nA
0,350341796875;63,4267668398628;3,35693359375E-09;0,350128173828125;2;113;1,46964974701405E-07;-1,45391784608364E-07;100 nA
0,30029296875;63,9272548385992;2,5848388671875E-09;0,300140380859375;2;114;1,46964974701405E-07;-1,45391784608364E-07;100 nA
0,250244140625;64,4277428373356;1,788330078125E-09;0,250152587890625;2;115;1,46964974701405E-07;-1,45391784608364E-07;100 nA
0,2001953125;64,928230836072;9,246826171875E-10;0,2001953125;2;116;1,46964974701405E-07;-1,45391784608364E-07;100 nA
0,150146484375;65,4287188348084;-9,46044921875E-11;0,15008544921875;2;117;1,46964974701405E-07;-1,45391784608364E-07;100 nA
0,10009765625;65,9292068335448;-1,800537109375E-09;0,100067138671875;2;118;1,46964974701405E-07;-1,45391784608364E-07;100 nA
0,050048828125;66,4296948322811;-4,52880859375E-09;0,05010986328125;2;119;1,46964974701405E-07;-1,45391784608364E-07;100 nA
0;66,9301828310175;-3,6041259765625E-09;0,000112915039062494;2;120;1,46964974701405E-07;-1,45391784608364E-07;100 nA
-0,050048828125;67,4306708297539;-3,936767578125E-09;-0,049835205078125;2;121;1,46964974701405E-07;-1,45391784608364E-07;100 nA
-0,10009765625;67,9311588284903;-4,50439453125E-09;-0,099700927734375;2;122;1,46964974701405E-07;-1,45391784608364E-07;100 nA
-0,150146484375;68,4316468272267;-4,9957275390625E-09;-0,14959716796875;2;123;1,46964974701405E-07;-1,45391784608364E-07;100 nA
-0,2001953125;68,9321348259631;-5,6610107421875E-09;-0,199462890625;2;124;1,46964974701405E-07;-1,45391784608364E-07;100 nA
-0,250244140625;69,4326228246995;-6,5277099609375E-09;-0,2493896484375;2;125;1,46964974701405E-07;-1,45391784608364E-07;100 nA
-0,30029296875;69,9331108234359;-7,12890625E-09;-0,29931640625;2;126;1,46964974701405E-07;-1,45391784608364E-07;100 nA
-0,350341796875;70,4335988221723;-7,818603515625E-09;-0,349212646484375;2;127;1,46964974701405E-07;-1,45391784608364E-07;100 nA
-0,400390625;70,9340868209086;-8,2794189453125E-09;-0,399169921875;2;128;1,46964974701405E-07;-1,45391784608364E-07;100 nA
-0,450439453125;71,434574819645;-8,8531494140625E-09;-0,449066162109375;2;129;1,46964974701405E-07;-1,45391784608364E-07;100 nA
-0,50048828125;71,9350628183814;-9,4085693359375E-09;-0,498870849609375;2;130;1,46964974701405E-07;-1,45391784608364E-07;100 nA
-0,550537109375;72,4355508171178;-1,01165771484375E-08;-0,548858642578125;2;131;1,46964974701405E-07;-1,45391784608364E-07;100 nA
-0,6005859375;72,9360388158542;-1,07147216796875E-08;-0,598663330078125;2;132;1,46964974701405E-07;-1,45391784608364E-07;100 nA
-0,650634765625;73,4365268145906;-1,123046875E-08;-0,6485595703125;2;133;1,46964974701405E-07;-1,45391784608364E-07;100 nA
-0,70068359375;73,937014813327;-1,14349365234375E-08;-0,698577880859375;2;134;1,46964974701405E-07;-1,45391784608364E-07;100 nA
-0,750732421875;74,4375028120634;-1,17828369140625E-08;-0,74853515625;2;135;1,46964974701405E-07;-1,45391784608364E-07;100 nA
-0,80078125;74,9379908107998;-1,22161865234375E-08;-0,7989501953125;2;136;1,46964974701405E-07;-1,45391784608364E-07;100 nA
-0,850830078125;75,4384788095362;-1,26953125E-08;-0,848388671875;2;137;1,46964974701405E-07;-1,45391784608364E-07;100 nA
-0,90087890625;75,9389668082725;-1,318359375E-08;-0,8984375;2;138;1,46964974701405E-07;-1,45391784608364E-07;100 nA
-0,950927734375;76,4394548070089;-1,37054443359375E-08;-0,9490966796875;2;139;1,46964974701405E-07;-1,45391784608364E-07;100 nA
-1,0009765625;76,9399428057453;-1,42913818359375E-08;-0,99945068359375;2;140;1,46964974701405E-07;-1,45391784608364E-07;100 nA
-0,950927734375;77,4404308044817;-1,292724609375E-08;-0,9490966796875;2;141;1,46964974701405E-07;-1,45391784608364E-07;100 nA
-0,90087890625;77,9409188032181;-1,185302734375E-08;-0,89874267578125;2;142;1,46964974701405E-07;-1,45391784608364E-07;100 nA
-0,850830078125;78,4414068019545;-1,08184814453125E-08;-0,848388671875;2;143;1,46964974701405E-07;-1,45391784608364E-07;100 nA
-0,80078125;78,9418948006909;-9,7747802734375E-09;-0,79864501953125;2;144;1,46964974701405E-07;-1,45391784608364E-07;100 nA
-0,750732421875;79,4423827994273;-8,8043212890625E-09;-0,748626708984375;2;145;1,46964974701405E-07;-1,45391784608364E-07;100 nA
-0,70068359375;79,9428707981637;-7,8704833984375E-09;-0,698577880859375;2;146;1,46964974701405E-07;-1,45391784608364E-07;100 nA
-0,650634765625;80,4433587969;-6,9122314453125E-09;-0,648590087890625;2;147;1,46964974701405E-07;-1,45391784608364E-07;100 nA
-0,6005859375;80,9438467956364;-5,9478759765625E-09;-0,598663330078125;2;148;1,46964974701405E-07;-1,45391784608364E-07;100 nA
-0,550537109375;81,4443347943728;-4,974365234375E-09;-0,548797607421875;2;149;1,46964974701405E-07;-1,45391784608364E-07;100 nA
-0,50048828125;81,9448227931092;-4,1717529296875E-09;-0,498931884765625;2;150;1,46964974701405E-07;-1,45391784608364E-07;100 nA
-0,450439453125;82,4453107918456;-3,240966796875E-09;-0,448974609375;2;151;1,46964974701405E-07;-1,45391784608364E-07;100 nA
-0,400390625;82,945798790582;-2,3834228515625E-09;-0,39910888671875;2;152;1,46964974701405E-07;-1,45391784608364E-07;100 nA
-0,350341796875;83,4462867893184;-1,5960693359375E-09;-0,349212646484375;2;153;1,46964974701405E-07;-1,45391784608364E-07;100 nA
-0,30029296875;83,9467747880548;-7,110595703125E-10;-0,299346923828125;2;154;1,46964974701405E-07;-1,45391784608364E-07;100 nA
-0,250244140625;84,4472627867912;9,1552734375E-11;-0,24945068359375;2;155;1,46964974701405E-07;-1,45391784608364E-07;100 nA
-0,2001953125;84,9477507855275;8,209228515625E-10;-0,19952392578125;2;156;1,46964974701405E-07;-1,45391784608364E-07;100 nA
-0,150146484375;85,4482387842639;1,6326904296875E-09;-0,149627685546875;2;157;1,46964974701405E-07;-1,45391784608364E-07;100 nA
-0,10009765625;85,9487267830003;2,386474609375E-09;-0,099700927734375;2;158;1,46964974701405E-07;-1,45391784608364E-07;100 nA
-0,050048828125;86,4492147817367;3,021240234375E-09;-0,049835205078125;2;159;1,46964974701405E-07;-1,45391784608364E-07;100 nA
0;86,9497027804731;3,7933349609375E-09;0,0001220703125;2;160;1,46964974701405E-07;-1,45391784608364E-07;100 nA
0,050048828125;87,4501907792095;4,62646484375E-09;0,05010986328125;3;161;1,47139094769955E-07;-1,44736543297768E-07;100 nA
0,10009765625;87,9506787779459;6,11572265625E-09;0,100067138671875;3;162;1,47139094769955E-07;-1,44736543297768E-07;100 nA
0,150146484375;88,4511667766823;6,18896484375E-09;0,150115966796875;3;163;1,47139094769955E-07;-1,44736543297768E-07;100 nA
0,2001953125;88,9516547754187;6,34765625E-09;0,200042724609375;3;164;1,47139094769955E-07;-1,44736543297768E-07;100 nA
0,250244140625;89,4521427741551;6,60400390625E-09;0,250091552734375;3;165;1,47139094769955E-07;-1,44736543297768E-07;100 nA
0,30029296875;89,9526307728914;6,951904296875E-09;0,300079345703125;3;166;1,47139094769955E-07;-1,44736543297768E-07;100 nA
0,350341796875;90,4531187716278;7,3272705078125E-09;0,35015869140625;3;167;1,47139094769955E-07;-1,44736543297768E-07;100 nA
0,400390625;90,9536067703642;7,7972412109375E-09;0,400115966796875;3;168;1,47139094769955E-07;-1,44736543297768E-07;100 nA
0,450439453125;91,4540947691006;8,2489013671875E-09;0,4500732421875;3;169;1,47139094769955E-07;-1,44736543297768E-07;100 nA
0,50048828125;91,954582767837;8,770751953125E-09;0,5001220703125;3;170;1,47139094769955E-07;-1,44736543297768E-07;100 nA
0,550537109375;92,4550707665734;9,356689453125E-09;0,550140380859375;3;171;1,47139094769955E-07;-1,44736543297768E-07;100 nA
0,6005859375;92,9555587653098;9,9029541015625E-09;0,600128173828125;3;172;1,47139094769955E-07;-1,44736543297768E-07;100 nA
0,650634765625;93,4560467640462;1,041259765625E-08;0,650115966796875;3;173;1,47139094769955E-07;-1,44736543297768E-07;100 nA
0,70068359375;93,9565347627826;1,07757568359375E-08;0,699951171875;3;174;1,47139094769955E-07;-1,44736543297768E-07;100 nA
0,750732421875;94,4570227615189;1,10382080078125E-08;0,7498779296875;3;175;1,47139094769955E-07;-1,44736543297768E-07;100 nA
0,80078125;94,9575107602553;1,12701416015625E-08;0,799560546875;3;176;1,47139094769955E-07;-1,44736543297768E-07;100 nA
0,850830078125;95,4579987589917;1,15753173828125E-08;0,84991455078125;3;177;1,47139094769955E-07;-1,44736543297768E-07;100 nA
0,90087890625;95,9584867577281;1,199951171875E-08;0,899658203125;3;178;1,47139094769955E-07;-1,44736543297768E-07;100 nA
0,950927734375;96,4589747564645;1,27227783203125E-08;0,94970703125;3;179;1,47139094769955E-07;-1,44736543297768E-07;100 nA
1,0009765625;96,9594627552009;1,36077880859375E-08;0,99945068359375;3;180;1,47139094769955E-07;-1,44736543297768E-07;100 nA
0,950927734375;97,4599507539373;1,1907958984375E-08;0,9490966796875;3;181;1,47139094769955E-07;-1,44736543297768E-07;100 nA
0,90087890625;97,9604387526737;1,0784912109375E-08;0,89996337890625;3;182;1,47139094769955E-07;-1,44736543297768E-07;100 nA
0,850830078125;98,4609267514101;9,9334716796875E-09;0,84991455078125;3;183;1,47139094769955E-07;-1,44736543297768E-07;100 nA
0,80078125;98,9614147501464;9,1552734375E-09;0,799560546875;3;184;1,47139094769955E-07;-1,44736543297768E-07;100 nA
0,750732421875;99,4619027488828;8,48388671875E-09;0,749847412109375;3;185;1,47139094769955E-07;-1,44736543297768E-07;100 nA
0,70068359375;99,9623907476192;7,84912109375E-09;0,699920654296875;3;186;1,47139094769955E-07;-1,44736543297768E-07;100 nA
0,650634765625;100,462878746356;7,18994140625E-09;0,650054931640625;3;187;1,47139094769955E-07;-1,44736543297768E-07;100 nA
0,6005859375;100,963366745092;6,5032958984375E-09;0,60009765625;3;188;1,47139094769955E-07;-1,44736543297768E-07;100 nA
0,550537109375;101,463854743828;5,92041015625E-09;0,550140380859375;3;189;1,47139094769955E-07;-1,44736543297768E-07;100 nA
0,50048828125;101,964342742565;5,316162109375E-09;0,5001220703125;3;190;1,47139094769955E-07;-1,44736543297768E-07;100 nA
0,450439453125;102,464830741301;4,6966552734375E-09;0,4500732421875;3;191;1,47139094769955E-07;-1,44736543297768E-07;100 nA
0,400390625;102,965318740038;4,034423828125E-09;0,400115966796875;3;192;1,47139094769955E-07;-1,44736543297768E-07;100 nA
0,350341796875;103,465806738774;3,4088134765625E-09;0,35015869140625;3;193;1,47139094769955E-07;-1,44736543297768E-07;100 nA
0,30029296875;103,96629473751;2,6397705078125E-09;0,300079345703125;3;194;1,47139094769955E-07;-1,44736543297768E-07;100 nA
0,250244140625;104,466782736247;1,84326171875E-09;0,2501220703125;3;195;1,47139094769955E-07;-1,44736543297768E-07;100 nA
0,2001953125;104,967270734983;9,796142578125E-10;0,2000732421875;3;196;1,47139094769955E-07;-1,44736543297768E-07;100 nA
0,150146484375;105,46775873372;-3,35693359375E-11;0,150115966796875;3;197;1,47139094769955E-07;-1,44736543297768E-07;100 nA
0,10009765625;105,968246732456;-1,66015625E-09;0,100128173828125;3;198;1,47139094769955E-07;-1,44736543297768E-07;100 nA
0,050048828125;106,468734731192;-4,39453125E-09;0,050079345703125;3;199;1,47139094769955E-07;-1,44736543297768E-07;100 nA
0;106,969222729929;-3,5003662109375E-09;0,000134277343750003;3;200;1,47139094769955E-07;-1,44736543297768E-07;100 nA
-0,050048828125;107,469710728665;-3,765869140625E-09;-0,0498046875;3;201;1,47139094769955E-07;-1,44736543297768E-07;100 nA
-0,10009765625;107,970198727401;-4,3060302734375E-09;-0,099700927734375;3;202;1,47139094769955E-07;-1,44736543297768E-07;100 nA
-0,150146484375;108,470686726138;-4,925537109375E-09;-0,149658203125;3;203;1,47139094769955E-07;-1,44736543297768E-07;100 nA
-0,2001953125;108,971174724874;-5,5877685546875E-09;-0,199432373046875;3;204;1,47139094769955E-07;-1,44736543297768E-07;100 nA
-0,250244140625;109,471662723611;-6,378173828125E-09;-0,249267578125;3;205;1,47139094769955E-07;-1,44736543297768E-07;100 nA
-0,30029296875;109,972150722347;-7,037353515625E-09;-0,299224853515625;3;206;1,47139094769955E-07;-1,44736543297768E-07;100 nA
-0,350341796875;110,472638721083;-7,7880859375E-09;-0,3492431640625;3;207;1,47139094769955E-07;-1,44736543297768E-07;100 nA
-0,400390625;110,97312671982;-8,38623046875E-09;-0,39910888671875;3;208;1,47139094769955E-07;-1,44736543297768E-07;100 nA
-0,450439453125;111,473614718556;-8,80126953125E-09;-0,44903564453125;3;209;1,47139094769955E-07;-1,44736543297768E-07;100 nA
-0,50048828125;111,974102717293;-9,527587890625E-09;-0,49884033203125;3;210;1,47139094769955E-07;-1,44736543297768E-07;100 nA
-0,550537109375;112,474590716029;-1,0150146484375E-08;-0,54876708984375;3;211;1,47139094769955E-07;-1,44736543297768E-07;100 nA
-0,6005859375;112,975078714765;-1,07879638671875E-08;-0,598724365234375;3;212;1,47139094769955E-07;-1,44736543297768E-07;100 nA
-0,650634765625;113,475566713502;-1,12701416015625E-08;-0,648590087890625;3;213;1,47139094769955E-07;-1,44736543297768E-07;100 nA
-0,70068359375;113,976054712238;-1,14776611328125E-08;-0,69866943359375;3;214;1,47139094769955E-07;-1,44736543297768E-07;100 nA
-0,750732421875;114,476542710975;-1,1761474609375E-08;-0,748626708984375;3;215;1,47139094769955E-07;-1,44736543297768E-07;100 nA
-0,80078125;114,977030709711;-1,2237548828125E-08;-0,79833984375;3;216;1,47139094769955E-07;-1,44736543297768E-07;100 nA
-0,850830078125;115,477518708447;-1,2762451171875E-08;-0,848388671875;3;217;1,47139094769955E-07;-1,44736543297768E-07;100 nA
-0,90087890625;115,978006707184;-1,32080078125E-08;-0,89874267578125;3;218;1,47139094769955E-07;-1,44736543297768E-07;100 nA
-0,950927734375;116,47849470592;-1,37664794921875E-08;-0,9490966796875;3;219;1,47139094769955E-07;-1,44736543297768E-07;100 nA
-1,0009765625;116,978982704656;-1,42913818359375E-08;-0,99853515625;3;220;1,47139094769955E-07;-1,44736543297768E-07;100 nA
-0,950927734375;117,479470703393;-1,292724609375E-08;-0,948486328125;3;221;1,47139094769955E-07;-1,44736543297768E-07;100 nA
-0,90087890625;117,979958702129;-1,17828369140625E-08;-0,89813232421875;3;222;1,47139094769955E-07;-1,44736543297768E-07;100 nA
-0,850830078125;118,480446700866;-1,07666015625E-08;-0,84930419921875;3;223;1,47139094769955E-07;-1,44736543297768E-07;100 nA
-0,80078125;118,980934699602;-9,72900390625E-09;-0,79864501953125;3;224;1,47139094769955E-07;-1,44736543297768E-07;100 nA
-0,750732421875;119,481422698338;-8,740234375E-09;-0,74853515625;3;225;1,47139094769955E-07;-1,44736543297768E-07;100 nA
-0,70068359375;119,981910697075;-7,8094482421875E-09;-0,6986083984375;3;226;1,47139094769955E-07;-1,44736543297768E-07;100 nA
-0,650634765625;120,482398695811;-6,9000244140625E-09;-0,64862060546875;3;227;1,47139094769955E-07;-1,44736543297768E-07;100 nA
-0,6005859375;120,982886694548;-5,8929443359375E-09;-0,5986328125;3;228;1,47139094769955E-07;-1,44736543297768E-07;100 nA
-0,550537109375;121,483374693284;-4,931640625E-09;-0,548736572265625;3;229;1,47139094769955E-07;-1,44736543297768E-07;100 nA
-0,50048828125;121,98386269202;-4,1015625E-09;-0,4989013671875;3;230;1,47139094769955E-07;-1,44736543297768E-07;100 nA
-0,450439453125;122,484350690757;-3,240966796875E-09;-0,449005126953125;3;231;1,47139094769955E-07;-1,44736543297768E-07;100 nA
-0,400390625;122,984838689493;-2,3590087890625E-09;-0,399078369140625;3;232;1,47139094769955E-07;-1,44736543297768E-07;100 nA
-0,350341796875;123,48532668823;-1,507568359375E-09;-0,34930419921875;3;233;1,47139094769955E-07;-1,44736543297768E-07;100 nA
-0,30029296875;123,985814686966;-6,9580078125E-10;-0,29931640625;3;234;1,47139094769955E-07;-1,44736543297768E-07;100 nA
-0,250244140625;124,486302685702;5,79833984375E-11;-0,249420166015625;3;235;1,47139094769955E-07;-1,44736543297768E-07;100 nA
-0,2001953125;124,986790684439;8,453369140625E-10;-0,199462890625;3;236;1,47139094769955E-07;-1,44736543297768E-07;100 nA
-0,150146484375;125,487278683175;1,6357421875E-09;-0,149566650390625;3;237;1,47139094769955E-07;-1,44736543297768E-07;100 nA
-0,10009765625;125,987766681911;2,3834228515625E-09;-0,0997314453125;3;238;1,47139094769955E-07;-1,44736543297768E-07;100 nA
-0,050048828125;126,488254680648;3,0670166015625E-09;-0,049835205078125;3;239;1,47139094769955E-07;-1,44736543297768E-07;100 nA
0;126,988742679384;3,7139892578125E-09;0,000134277343750003;3;240;1,47139094769955E-07;-1,44736543297768E-07;100 nA
0,050048828125;127,489230678121;4,5135498046875E-09;0,050018310546875;4;241;1,46690048277378E-07;-1,44704468548298E-07;100 nA
0,10009765625;127,989718676857;6,0302734375E-09;0,10009765625;4;242;1,46690048277378E-07;-1,44704468548298E-07;100 nA
0,150146484375;128,490206675593;6,1309814453125E-09;0,150054931640625;4;243;1,46690048277378E-07;-1,44704468548298E-07;100 nA
0,2001953125;128,99069467433;6,1981201171875E-09;0,200042724609375;4;244;1,46690048277378E-07;-1,44704468548298E-07;100 nA
0,250244140625;129,491182673066;6,48193359375E-09;0,25006103515625;4;245;1,46690048277378E-07;-1,44704468548298E-07;100 nA
0,30029296875;129,991670671803;6,8450927734375E-09;0,300079345703125;4;246;1,46690048277378E-07;-1,44704468548298E-07;100 nA
0,350341796875;130,492158670539;7,1929931640625E-09;0,35015869140625;4;247;1,46690048277378E-07;-1,44704468548298E-07;100 nA
0,400390625;130,992646669275;7,6904296875E-09;0,400054931640625;4;248;1,46690048277378E-07;-1,44704468548298E-07;100 nA
0,450439453125;131,493134668012;8,1787109375E-09;0,450042724609375;4;249;1,46690048277378E-07;-1,44704468548298E-07;100 nA
0,50048828125;131,993622666748;8,7005615234375E-09;0,500091552734375;4;250;1,46690048277378E-07;-1,44704468548298E-07;100 nA
0,550537109375;132,494110665485;9,3048095703125E-09;0,550079345703125;4;251;1,46690048277378E-07;-1,44704468548298E-07;100 nA
0,6005859375;132,994598664221;9,906005859375E-09;0,60009765625;4;252;1,46690048277378E-07;-1,44704468548298E-07;100 nA
0,650634765625;133,495086662957;1,03759765625E-08;0,6500244140625;4;253;1,46690048277378E-07;-1,44704468548298E-07;100 nA
0,70068359375;133,995574661694;1,07574462890625E-08;0,699920654296875;4;254;1,46690048277378E-07;-1,44704468548298E-07;100 nA
0,750732421875;134,49606266043;1,102294921875E-08;0,7498779296875;4;255;1,46690048277378E-07;-1,44704468548298E-07;100 nA
0,80078125;134,996550659166;1,12518310546875E-08;0,8001708984375;4;256;1,46690048277378E-07;-1,44704468548298E-07;100 nA
0,850830078125;135,497038657903;1,15570068359375E-08;0,8502197265625;4;257;1,46690048277378E-07;-1,44704468548298E-07;100 nA
0,90087890625;135,997526656639;1,20208740234375E-08;0,89935302734375;4;258;1,46690048277378E-07;-1,44704468548298E-07;100 nA
0,950927734375;136,498014655376;1,2725830078125E-08;0,95001220703125;4;259;1,46690048277378E-07;-1,44704468548298E-07;100 nA
1,0009765625;136,998502654112;1,358642578125E-08;0,999755859375;4;260;1,46690048277378E-07;-1,44704468548298E-07;100 nA
0,950927734375;137,498990652848;1,19171142578125E-08;0,94970703125;4;261;1,46690048277378E-07;-1,44704468548298E-07;100 nA
0,90087890625;137,999478651585;1,08154296875E-08;0,89996337890625;4;262;1,46690048277378E-07;-1,44704468548298E-07;100 nA
0,850830078125;138,499966650321;9,991455078125E-09;0,84991455078125;4;263;1,46690048277378E-07;-1,44704468548298E-07;100 nA
0,80078125;139,000454649058;9,246826171875E-09;0,79986572265625;4;264;1,46690048277378E-07;-1,44704468548298E-07;100 nA
0,750732421875;139,500942647794;8,5418701171875E-09;0,74993896484375;4;265;1,46690048277378E-07;-1,44704468548298E-07;100 nA
0,70068359375;140,00143064653;7,87353515625E-09;0,70001220703125;4;266;1,46690048277378E-07;-1,44704468548298E-07;100 nA
0,650634765625;140,501918645267;7,2113037109375E-09;0,65008544921875;4;267;1,46690048277378E-07;-1,44704468548298E-07;100 nA
0,6005859375;141,002406644003;6,549072265625E-09;0,60003662109375;4;268;1,46690048277378E-07;-1,44704468548298E-07;100 nA
0,550537109375;141,50289464274;5,9295654296875E-09;0,550140380859375;4;269;1,46690048277378E-07;-1,44704468548298E-07;100 nA
0,50048828125;142,003382641476;5,279541015625E-09;0,50006103515625;4;270;1,46690048277378E-07;-1,44704468548298E-07;100 nA
0,450439453125;142,503870640212;4,681396484375E-09;0,4500732421875;4;271;1,46690048277378E-07;-1,44704468548298E-07;100 nA
0,400390625;143,004358638949;4,010009765625E-09;0,400115966796875;4;272;1,46690048277378E-07;-1,44704468548298E-07;100 nA
0,350341796875;143,504846637685;3,2806396484375E-09;0,350067138671875;4;273;1,46690048277378E-07;-1,44704468548298E-07;100 nA
0,30029296875;144,005334636421;2,55126953125E-09;0,300048828125;4;274;1,46690048277378E-07;-1,44704468548298E-07;100 nA
0,250244140625;144,505822635158;1,77001953125E-09;0,25006103515625;4;275;1,46690048277378E-07;-1,44704468548298E-07;100 nA
0,2001953125;145,006310633894;9,033203125E-10;0,20013427734375;4;276;1,46690048277378E-07;-1,44704468548298E-07;100 nA
0,150146484375;145,506798632631;-2,74658203125E-11;0,1500244140625;4;277;1,46690048277378E-07;-1,44704468548298E-07;100 nA
0,10009765625;146,007286631367;-1,666259765625E-09;0,10009765625;4;278;1,46690048277378E-07;-1,44704468548298E-07;100 nA
0,050048828125;146,507774630103;-4,4342041015625E-09;0,050140380859375;4;279;1,46690048277378E-07;-1,44704468548298E-07;100 nA
0;147,00826262884;-3,5797119140625E-09;0,000134277343750003;4;280;1,46690048277378E-07;-1,44704468548298E-07;100 nA
-0,050048828125;147,508750627576;-3,7628173828125E-09;-0,049774169921875;4;281;1,46690048277378E-07;-1,44704468548298E-07;100 nA
-0,10009765625;148,009238626313;-4,33349609375E-09;-0,09967041015625;4;282;1,46690048277378E-07;-1,44704468548298E-07;100 nA
-0,150146484375;148,509726625049;-4,9591064453125E-09;-0,149566650390625;4;283;1,46690048277378E-07;-1,44704468548298E-07;100 nA
-0,2001953125;149,010214623785;-5,596923828125E-09;-0,19940185546875;4;284;1,46690048277378E-07;-1,44704468548298E-07;100 nA
-0,250244140625;149,510702622522;-6,31103515625E-09;-0,2493896484375;4;285;1,46690048277378E-07;-1,44704468548298E-07;100 nA
-0,30029296875;150,011190621258;-7,0220947265625E-09;-0,29925537109375;4;286;1,46690048277378E-07;-1,44704468548298E-07;100 nA
-0,350341796875;150,511678619995;-7,6507568359375E-09;-0,349212646484375;4;287;1,46690048277378E-07;-1,44704468548298E-07;100 nA
-0,400390625;151,012166618731;-8,2855224609375E-09;-0,399139404296875;4;288;1,46690048277378E-07;-1,44704468548298E-07;100 nA
-0,450439453125;151,512654617467;-8,8226318359375E-09;-0,448974609375;4;289;1,46690048277378E-07;-1,44704468548298E-07;100 nA
-0,50048828125;152,013142616204;-9,4268798828125E-09;-0,498809814453125;4;290;1,46690048277378E-07;-1,44704468548298E-07;100 nA
-0,550537109375;152,51363061494;-1,0101318359375E-08;-0,548797607421875;4;291;1,46690048277378E-07;-1,44704468548298E-07;100 nA
-0,6005859375;153,014118613676;-1,0736083984375E-08;-0,5986328125;4;292;1,46690048277378E-07;-1,44704468548298E-07;100 nA
-0,650634765625;153,514606612413;-1,1163330078125E-08;-0,6485595703125;4;293;1,46690048277378E-07;-1,44704468548298E-07;100 nA
-0,70068359375;154,015094611149;-1,1370849609375E-08;-0,6986083984375;4;294;1,46690048277378E-07;-1,44704468548298E-07;100 nA
-0,750732421875;154,515582609886;-1,17156982421875E-08;-0,74859619140625;4;295;1,46690048277378E-07;-1,44704468548298E-07;100 nA
-0,80078125;155,016070608622;-1,22406005859375E-08;-0,7989501953125;4;296;1,46690048277378E-07;-1,44704468548298E-07;100 nA
-0,850830078125;155,516558607358;-1,27593994140625E-08;-0,84869384765625;4;297;1,46690048277378E-07;-1,44704468548298E-07;100 nA
-0,90087890625;156,017046606095;-1,32354736328125E-08;-0,89874267578125;4;298;1,46690048277378E-07;-1,44704468548298E-07;100 nA
-0,950927734375;156,517534604831;-1,37939453125E-08;-0,9490966796875;4;299;1,46690048277378E-07;-1,44704468548298E-07;100 nA
-1,0009765625;157,018022603568;-1,43280029296875E-08;-0,9991455078125;4;300;1,46690048277378E-07;-1,44704468548298E-07;100 nA
-0,950927734375;157,518510602304;-1,2957763671875E-08;-0,948486328125;4;301;1,46690048277378E-07;-1,44704468548298E-07;100 nA
-0,90087890625;158,01899860104;-1,1834716796875E-08;-0,89874267578125;4;302;1,46690048277378E-07;-1,44704468548298E-07;100 nA
-0,850830078125;158,519486599777;-1,07879638671875E-08;-0,84869384765625;4;303;1,46690048277378E-07;-1,44704468548298E-07;100 nA
-0,80078125;159,019974598513;-9,80224609375E-09;-0,7989501953125;4;304;1,46690048277378E-07;-1,44704468548298E-07;100 nA
-0,750732421875;159,52046259725;-8,7799072265625E-09;-0,7486572265625;4;305;1,46690048277378E-07;-1,44704468548298E-07;100 nA
-0,70068359375;160,020950595986;-7,84912109375E-09;-0,698638916015625;4;306;1,46690048277378E-07;-1,44704468548298E-07;100 nA
-0,650634765625;160,521438594722;-6,9091796875E-09;-0,64862060546875;4;307;1,46690048277378E-07;-1,44704468548298E-07;100 nA
-0,6005859375;161,021926593459;-5,9173583984375E-09;-0,598724365234375;4;308;1,46690048277378E-07;-1,44704468548298E-07;100 nA
-0,550537109375;161,522414592195;-5,0262451171875E-09;-0,54876708984375;4;309;1,46690048277378E-07;-1,44704468548298E-07;100 nA
-0,50048828125;162,022902590931;-4,119873046875E-09;-0,4989013671875;4;310;1,46690048277378E-07;-1,44704468548298E-07;100 nA
-0,450439453125;162,523390589668;-3,28369140625E-09;-0,448883056640625;4;311;1,46690048277378E-07;-1,44704468548298E-07;100 nA
-0,400390625;163,023878588404;-2,4078369140625E-09;-0,399078369140625;4;312;1,46690048277378E-07;-1,44704468548298E-07;100 nA
-0,350341796875;163,524366587141;-1,483154296875E-09;-0,3492431640625;4;313;1,46690048277378E-07;-1,44704468548298E-07;100 nA
-0,30029296875;164,024854585877;-6,439208984375E-10;-0,29931640625;4;314;1,46690048277378E-07;-1,44704468548298E-07;100 nA
-0,250244140625;164,525342584613;1,77001953125E-10;-0,2493896484375;4;315;1,46690048277378E-07;-1,44704468548298E-07;100 nA
-0,2001953125;165,02583058335;8,819580078125E-10;-0,199432373046875;4;316;1,46690048277378E-07;-1,44704468548298E-07;100 nA
-0,150146484375;165,526318582086;1,690673828125E-09;-0,149566650390625;4;317;1,46690048277378E-07;-1,44704468548298E-07;100 nA
-0,10009765625;166,026806580823;2,4322509765625E-09;-0,0997314453125;4;318;1,46690048277378E-07;-1,44704468548298E-07;100 nA
-0,050048828125;166,527294579559;3,094482421875E-09;-0,049835205078125;4;319;1,46690048277378E-07;-1,44704468548298E-07;100 nA
0;167,027782578295;3,7933349609375E-09;0,000134277343750003;4;320;1,46690048277378E-07;-1,44704468548298E-07;100 nA
0,050048828125;167,528270577032;4,6142578125E-09;0,05010986328125;5;321;1,46757252514362E-07;-1,44790001213551E-07;100 nA
0,10009765625;168,028758575768;6,0638427734375E-09;0,100128173828125;5;322;1,46757252514362E-07;-1,44790001213551E-07;100 nA
0,150146484375;168,529246574505;6,1431884765625E-09;0,150115966796875;5;323;1,46757252514362E-07;-1,44790001213551E-07;100 nA
0,2001953125;169,029734573241;6,2591552734375E-09;0,20001220703125;5;324;1,46757252514362E-07;-1,44790001213551E-07;100 nA
0,250244140625;169,530222571977;6,5185546875E-09;0,250091552734375;5;325;1,46757252514362E-07;-1,44790001213551E-07;100 nA
0,30029296875;170,030710570714;6,817626953125E-09;0,30010986328125;5;326;1,46757252514362E-07;-1,44790001213551E-07;100 nA
0,350341796875;170,53119856945;7,244873046875E-09;0,35009765625;5;327;1,46757252514362E-07;-1,44790001213551E-07;100 nA
0,400390625;171,031686568187;7,6751708984375E-09;0,40008544921875;5;328;1,46757252514362E-07;-1,44790001213551E-07;100 nA
0,450439453125;171,532174566923;8,1298828125E-09;0,4500732421875;5;329;1,46757252514362E-07;-1,44790001213551E-07;100 nA
0,50048828125;172,032662565659;8,685302734375E-09;0,50006103515625;5;330;1,46757252514362E-07;-1,44790001213551E-07;100 nA
0,550537109375;172,533150564396;9,24072265625E-09;0,550140380859375;5;331;1,46757252514362E-07;-1,44790001213551E-07;100 nA
0,6005859375;173,033638563132;9,7503662109375E-09;0,60009765625;5;332;1,46757252514362E-07;-1,44790001213551E-07;100 nA
0,650634765625;173,534126561868;1,03363037109375E-08;0,6500244140625;5;333;1,46757252514362E-07;-1,44790001213551E-07;100 nA
0,70068359375;174,034614560605;1,06658935546875E-08;0,699920654296875;5;334;1,46757252514362E-07;-1,44790001213551E-07;100 nA
0,750732421875;174,535102559341;1,09405517578125E-08;0,7498779296875;5;335;1,46757252514362E-07;-1,44790001213551E-07;100 nA
0,80078125;175,035590558078;1,1151123046875E-08;0,8001708984375;5;336;1,46757252514362E-07;-1,44790001213551E-07;100 nA
0,850830078125;175,536078556814;1,148681640625E-08;0,8502197265625;5;337;1,46757252514362E-07;-1,44790001213551E-07;100 nA
0,90087890625;176,03656655555;1,1968994140625E-08;0,899658203125;5;338;1,46757252514362E-07;-1,44790001213551E-07;100 nA
0,950927734375;176,537054554287;1,26678466796875E-08;0,9503173828125;5;339;1,46757252514362E-07;-1,44790001213551E-07;100 nA
1,0009765625;177,037542553023;1,35711669921875E-08;0,999755859375;5;340;1,46757252514362E-07;-1,44790001213551E-07;100 nA
0,950927734375;177,53803055176;1,19049072265625E-08;0,94940185546875;5;341;1,46757252514362E-07;-1,44790001213551E-07;100 nA
0,90087890625;178,038518550496;1,08123779296875E-08;0,89996337890625;5;342;1,46757252514362E-07;-1,44790001213551E-07;100 nA
0,850830078125;178,539006549232;1,00189208984375E-08;0,84991455078125;5;343;1,46757252514362E-07;-1,44790001213551E-07;100 nA
0,80078125;179,039494547969;9,3048095703125E-09;0,79986572265625;5;344;1,46757252514362E-07;-1,44790001213551E-07;100 nA
0,750732421875;179,539982546705;8,5479736328125E-09;0,749908447265625;5;345;1,46757252514362E-07;-1,44790001213551E-07;100 nA
0,70068359375;180,040470545442;7,87353515625E-09;0,699981689453125;5;346;1,46757252514362E-07;-1,44790001213551E-07;100 nA
0,650634765625;180,540958544178;7,23876953125E-09;0,6500244140625;5;347;1,46757252514362E-07;-1,44790001213551E-07;100 nA
0,6005859375;181,041446542914;6,5765380859375E-09;0,600128173828125;5;348;1,46757252514362E-07;-1,44790001213551E-07;100 nA
0,550537109375;181,541934541651;5,9478759765625E-09;0,55010986328125;5;349;1,46757252514362E-07;-1,44790001213551E-07;100 nA
0,50048828125;182,042422540387;5,3192138671875E-09;0,500152587890625;5;350;1,46757252514362E-07;-1,44790001213551E-07;100 nA
0,450439453125;182,542910539123;4,693603515625E-09;0,45013427734375;5;351;1,46757252514362E-07;-1,44790001213551E-07;100 nA
0,400390625;183,04339853786;4,034423828125E-09;0,400146484375;5;352;1,46757252514362E-07;-1,44790001213551E-07;100 nA
0,350341796875;183,543886536596;3,350830078125E-09;0,35015869140625;5;353;1,46757252514362E-07;-1,44790001213551E-07;100 nA
0,30029296875;184,044374535333;2,6153564453125E-09;0,300048828125;5;354;1,46757252514362E-07;-1,44790001213551E-07;100 nA
0,250244140625;184,544862534069;1,788330078125E-09;0,2501220703125;5;355;1,46757252514362E-07;-1,44790001213551E-07;100 nA
0,2001953125;185,045350532805;9,613037109375E-10;0,200042724609375;5;356;1,46757252514362E-07;-1,44790001213551E-07;100 nA
0,150146484375;185,545838531542;-4,8828125E-11;0,15008544921875;5;357;1,46757252514362E-07;-1,44790001213551E-07;100 nA
0,10009765625;186,046326530278;-1,715087890625E-09;0,100128173828125;5;358;1,46757252514362E-07;-1,44790001213551E-07;100 nA
0,050048828125;186,546814529015;-4,4677734375E-09;0,050079345703125;5;359;1,46757252514362E-07;-1,44790001213551E-07;100 nA
0;187,047302527751;-3,662109375E-09;0,000134277343750003;5;360;1,46757252514362E-07;-1,44790001213551E-07;100 nA
-0,050048828125;187,547790526487;-3,9031982421875E-09;-0,0498046875;5;361;1,46757252514362E-07;-1,44790001213551E-07;100 nA
-0,10009765625;188,048278525224;-4,43115234375E-09;-0,0997314453125;5;362;1,46757252514362E-07;-1,44790001213551E-07;100 nA
-0,150146484375;188,54876652396;-4,986572265625E-09;-0,149566650390625;5;363;1,46757252514362E-07;-1,44790001213551E-07;100 nA
-0,2001953125;189,049254522697;-5,70068359375E-09;-0,199493408203125;5;364;1,46757252514362E-07;-1,44790001213551E-07;100 nA
-0,250244140625;189,549742521433;-6,3629150390625E-09;-0,249359130859375;5;365;1,46757252514362E-07;-1,44790001213551E-07;100 nA
-0,30029296875;190,050230520169;-7,0709228515625E-09;-0,29925537109375;5;366;1,46757252514362E-07;-1,44790001213551E-07;100 nA
-0,350341796875;190,550718518906;-7,781982421875E-09;-0,34918212890625;5;367;1,46757252514362E-07;-1,44790001213551E-07;100 nA
-0,400390625;191,051206517642;-8,3465576171875E-09;-0,39910888671875;5;368;1,46757252514362E-07;-1,44790001213551E-07;100 nA
-0,450439453125;191,551694516378;-8,87451171875E-09;-0,448974609375;5;369;1,46757252514362E-07;-1,44790001213551E-07;100 nA
-0,50048828125;192,052182515115;-9,417724609375E-09;-0,498870849609375;5;370;1,46757252514362E-07;-1,44790001213551E-07;100 nA
-0,550537109375;192,552670513851;-1,0076904296875E-08;-0,548797607421875;5;371;1,46757252514362E-07;-1,44790001213551E-07;100 nA
-0,6005859375;193,053158512588;-1,0699462890625E-08;-0,5986328125;5;372;1,46757252514362E-07;-1,44790001213551E-07;100 nA
-0,650634765625;193,553646511324;-1,11480712890625E-08;-0,64862060546875;5;373;1,46757252514362E-07;-1,44790001213551E-07;100 nA
-0,70068359375;194,05413451006;-1,13067626953125E-08;-0,6986083984375;5;374;1,46757252514362E-07;-1,44790001213551E-07;100 nA
-0,750732421875;194,554622508797;-1,16302490234375E-08;-0,748626708984375;5;375;1,46757252514362E-07;-1,44790001213551E-07;100 nA
-0,80078125;195,055110507533;-1,21337890625E-08;-0,79864501953125;5;376;1,46757252514362E-07;-1,44790001213551E-07;100 nA
-0,850830078125;195,55559850627;-1,2628173828125E-08;-0,84869384765625;5;377;1,46757252514362E-07;-1,44790001213551E-07;100 nA
-0,90087890625;196,056086505006;-1,314697265625E-08;-0,8984375;5;378;1,46757252514362E-07;-1,44790001213551E-07;100 nA
-0,950927734375;196,556574503742;-1,36932373046875E-08;-0,94879150390625;5;379;1,46757252514362E-07;-1,44790001213551E-07;100 nA
-1,0009765625;197,057062502479;-1,42669677734375E-08;-0,99884033203125;5;380;1,46757252514362E-07;-1,44790001213551E-07;100 nA
-0,950927734375;197,557550501215;-1,2890625E-08;-0,94879150390625;5;381;1,46757252514362E-07;-1,44790001213551E-07;100 nA
-0,90087890625;198,058038499952;-1,18011474609375E-08;-0,8984375;5;382;1,46757252514362E-07;-1,44790001213551E-07;100 nA
-0,850830078125;198,558526498688;-1,07574462890625E-08;-0,84869384765625;5;383;1,46757252514362E-07;-1,44790001213551E-07;100 nA
-0,80078125;199,059014497424;-9,7991943359375E-09;-0,79864501953125;5;384;1,46757252514362E-07;-1,44790001213551E-07;100 nA
-0,750732421875;199,559502496161;-8,8165283203125E-09;-0,748565673828125;5;385;1,46757252514362E-07;-1,44790001213551E-07;100 nA
-0,70068359375;200,059990494897;-7,891845703125E-09;-0,698577880859375;5;386;1,46757252514362E-07;-1,44790001213551E-07;100 nA
-0,650634765625;200,560478493633;-6,93359375E-09;-0,64862060546875;5;387;1,46757252514362E-07;-1,44790001213551E-07;100 nA
-0,6005859375;201,06096649237;-5,99365234375E-09;-0,5986328125;5;388;1,46757252514362E-07;-1,44790001213551E-07;100 nA
-0,550537109375;201,561454491106;-5,01708984375E-09;-0,54876708984375;5;389;1,46757252514362E-07;-1,44790001213551E-07;100 nA
-0,50048828125;202,061942489843;-4,1229248046875E-09;-0,498870849609375;5;390;1,46757252514362E-07;-1,44790001213551E-07;100 nA
-0,450439453125;202,562430488579;-3,192138671875E-09;-0,448974609375;5;391;1,46757252514362E-07;-1,44790001213551E-07;100 nA
-0,400390625;203,062918487315;-2,349853515625E-09;-0,399078369140625;5;392;1,46757252514362E-07;-1,44790001213551E-07;100 nA
-0,350341796875;203,563406486052;-1,5838623046875E-09;-0,3492431640625;5;393;1,46757252514362E-07;-1,44790001213551E-07;100 nA
-0,30029296875;204,063894484788;-6,4697265625E-10;-0,299224853515625;5;394;1,46757252514362E-07;-1,44790001213551E-07;100 nA
-0,250244140625;204,564382483525;1,64794921875E-10;-0,2493896484375;5;395;1,46757252514362E-07;-1,44790001213551E-07;100 nA
-0,2001953125;205,064870482261;9,063720703125E-10;-0,199462890625;5;396;1,46757252514362E-07;-1,44790001213551E-07;100 nA
-0,150146484375;205,565358480997;1,763916015625E-09;-0,14959716796875;5;397;1,46757252514362E-07;-1,44790001213551E-07;100 nA
-0,10009765625;206,065846479734;2,45361328125E-09;-0,099700927734375;5;398;1,46757252514362E-07;-1,44790001213551E-07;100 nA
-0,050048828125;206,56633447847;3,1768798828125E-09;-0,049835205078125;5;399;1,46757252514362E-07;-1,44790001213551E-07;100 nA
0;207,066822477207;3,8421630859375E-09;0,0001220703125;5;400;1,46757252514362E-07;-1,44790001213551E-07;100 nA
0,050048828125;207,567310475943;4,67529296875E-09;0,050018310546875;6;401;1,46745033562183E-07;-1,44463144242763E-07;100 nA
0,10009765625;208,067798474679;6,1065673828125E-09;0,100067138671875;6;402;1,46745033562183E-07;-1,44463144242763E-07;100 nA
0,150146484375;208,568286473416;6,1767578125E-09;0,15008544921875;6;403;1,46745033562183E-07;-1,44463144242763E-07;100 nA
0,2001953125;209,068774472152;6,28662109375E-09;0,200042724609375;6;404;1,46745033562183E-07;-1,44463144242763E-07;100 nA
0,250244140625;209,569262470888;6,5277099609375E-09;0,25006103515625;6;405;1,46745033562183E-07;-1,44463144242763E-07;100 nA
0,30029296875;210,069750469625;6,8817138671875E-09;0,30010986328125;6;406;1,46745033562183E-07;-1,44463144242763E-07;100 nA
0,350341796875;210,570238468361;7,2662353515625E-09;0,350128173828125;6;407;1,46745033562183E-07;-1,44463144242763E-07;100 nA
0,400390625;211,070726467098;7,7117919921875E-09;0,40008544921875;6;408;1,46745033562183E-07;-1,44463144242763E-07;100 nA
0,450439453125;211,571214465834;8,184814453125E-09;0,450103759765625;6;409;1,46745033562183E-07;-1,44463144242763E-07;100 nA
0,50048828125;212,07170246457;8,721923828125E-09;0,50006103515625;6;410;1,46745033562183E-07;-1,44463144242763E-07;100 nA
0,550537109375;212,572190463307;9,2742919921875E-09;0,550079345703125;6;411;1,46745033562183E-07;-1,44463144242763E-07;100 nA
0,6005859375;213,072678462043;9,796142578125E-09;0,60015869140625;6;412;1,46745033562183E-07;-1,44463144242763E-07;100 nA
0,650634765625;213,57316646078;1,0223388671875E-08;0,65008544921875;6;413;1,46745033562183E-07;-1,44463144242763E-07;100 nA
0,70068359375;214,073654459516;1,0638427734375E-08;0,699859619140625;6;414;1,46745033562183E-07;-1,44463144242763E-07;100 nA
0,750732421875;214,574142458252;1,0870361328125E-08;0,74981689453125;6;415;1,46745033562183E-07;-1,44463144242763E-07;100 nA
0,80078125;215,074630456989;1,1053466796875E-08;0,79925537109375;6;416;1,46745033562183E-07;-1,44463144242763E-07;100 nA
0,850830078125;215,575118455725;1,14410400390625E-08;0,8502197265625;6;417;1,46745033562183E-07;-1,44463144242763E-07;100 nA
0,90087890625;216,075606454462;1,18927001953125E-08;0,899658203125;6;418;1,46745033562183E-07;-1,44463144242763E-07;100 nA
0,950927734375;216,576094453198;1,2579345703125E-08;0,94970703125;6;419;1,46745033562183E-07;-1,44463144242763E-07;100 nA
1,0009765625;217,076582451934;1,35009765625E-08;0,9991455078125;6;420;1,46745033562183E-07;-1,44463144242763E-07;100 nA
0,950927734375;217,577070450671;1,18896484375E-08;0,9503173828125;6;421;1,46745033562183E-07;-1,44463144242763E-07;100 nA
0,90087890625;218,077558449407;1,08001708984375E-08;0,899658203125;6;422;1,46745033562183E-07;-1,44463144242763E-07;100 nA
0,850830078125;218,578046448143;9,967041015625E-09;0,84991455078125;6;423;1,46745033562183E-07;-1,44463144242763E-07;100 nA
0,80078125;219,07853444688;9,2498779296875E-09;0,80047607421875;6;424;1,46745033562183E-07;-1,44463144242763E-07;100 nA
0,750732421875;219,579022445616;8,6151123046875E-09;0,7498779296875;6;425;1,46745033562183E-07;-1,44463144242763E-07;100 nA
0,70068359375;220,079510444353;7,9345703125E-09;0,699981689453125;6;426;1,46745033562183E-07;-1,44463144242763E-07;100 nA
0,650634765625;220,579998443089;7,2418212890625E-09;0,65008544921875;6;427;1,46745033562183E-07;-1,44463144242763E-07;100 nA
0,6005859375;221,080486441825;6,5948486328125E-09;0,60009765625;6;428;1,46745033562183E-07;-1,44463144242763E-07;100 nA
0,550537109375;221,580974440562;5,9600830078125E-09;0,55010986328125;6;429;1,46745033562183E-07;-1,44463144242763E-07;100 nA
0,50048828125;222,081462439298;5,3466796875E-09;0,500091552734375;6;430;1,46745033562183E-07;-1,44463144242763E-07;100 nA
0,450439453125;222,581950438035;4,718017578125E-09;0,45013427734375;6;431;1,46745033562183E-07;-1,44463144242763E-07;100 nA
0,400390625;223,082438436771;4,0740966796875E-09;0,400146484375;6;432;1,46745033562183E-07;-1,44463144242763E-07;100 nA
0,350341796875;223,582926435507;3,3935546875E-09;0,350189208984375;6;433;1,46745033562183E-07;-1,44463144242763E-07;100 nA
0,30029296875;224,083414434244;2,62451171875E-09;0,300079345703125;6;434;1,46745033562183E-07;-1,44463144242763E-07;100 nA
0,250244140625;224,58390243298;1,8157958984375E-09;0,2501220703125;6;435;1,46745033562183E-07;-1,44463144242763E-07;100 nA
0,2001953125;225,084390431717;9,94873046875E-10;0,200103759765625;6;436;1,46745033562183E-07;-1,44463144242763E-07;100 nA
0,150146484375;225,584878430453;1,52587890625E-11;0,150146484375;6;437;1,46745033562183E-07;-1,44463144242763E-07;100 nA
0,10009765625;226,085366429189;-1,6204833984375E-09;0,10009765625;6;438;1,46745033562183E-07;-1,44463144242763E-07;100 nA
0,050048828125;226,585854427926;-4,5074462890625E-09;0,050048828125;6;439;1,46745033562183E-07;-1,44463144242763E-07;100 nA
0;227,086342426662;-3,5858154296875E-09;0,000128173828124994;6;440;1,46745033562183E-07;-1,44463144242763E-07;100 nA
-0,050048828125;227,586830425398;-3,8177490234375E-09;-0,049774169921875;6;441;1,46745033562183E-07;-1,44463144242763E-07;100 nA
-0,10009765625;228,087318424135;-4,4036865234375E-09;-0,099700927734375;6;442;1,46745033562183E-07;-1,44463144242763E-07;100 nA
-0,150146484375;228,587806422871;-5,0506591796875E-09;-0,149566650390625;6;443;1,46745033562183E-07;-1,44463144242763E-07;100 nA
-0,2001953125;229,088294421608;-5,6182861328125E-09;-0,199432373046875;6;444;1,46745033562183E-07;-1,44463144242763E-07;100 nA
-0,250244140625;229,588782420344;-6,4361572265625E-09;-0,249359130859375;6;445;1,46745033562183E-07;-1,44463144242763E-07;100 nA
-0,30029296875;230,08927041908;-7,1441650390625E-09;-0,29925537109375;6;446;1,46745033562183E-07;-1,44463144242763E-07;100 nA
-0,350341796875;230,589758417817;-7,7850341796875E-09;-0,349212646484375;6;447;1,46745033562183E-07;-1,44463144242763E-07;100 nA
-0,400390625;231,090246416553;-8,3770751953125E-09;-0,399078369140625;6;448;1,46745033562183E-07;-1,44463144242763E-07;100 nA
-0,450439453125;231,59073441529;-8,9569091796875E-09;-0,449005126953125;6;449;1,46745033562183E-07;-1,44463144242763E-07;100 nA
-0,50048828125;232,091222414026;-9,4512939453125E-09;-0,49884033203125;6;450;1,46745033562183E-07;-1,44463144242763E-07;100 nA
-0,550537109375;232,591710412762;-1,01898193359375E-08;-0,5487060546875;6;451;1,46745033562183E-07;-1,44463144242763E-07;100 nA
-0,6005859375;233,092198411499;-1,07147216796875E-08;-0,59869384765625;6;452;1,46745033562183E-07;-1,44463144242763E-07;100 nA
-0,650634765625;233,592686410235;-1,1126708984375E-08;-0,6485595703125;6;453;1,46745033562183E-07;-1,44463144242763E-07;100 nA
-0,70068359375;234,093174408972;-1,1383056640625E-08;-0,6986083984375;6;454;1,46745033562183E-07;-1,44463144242763E-07;100 nA
-0,750732421875;234,593662407708;-1,16119384765625E-08;-0,74853515625;6;455;1,46745033562183E-07;-1,44463144242763E-07;100 nA
-0,80078125;235,094150406444;-1,2139892578125E-08;-0,79833984375;6;456;1,46745033562183E-07;-1,44463144242763E-07;100 nA
-0,850830078125;235,594638405181;-1,258544921875E-08;-0,84869384765625;6;457;1,46745033562183E-07;-1,44463144242763E-07;100 nA
-0,90087890625;236,095126403917;-1,31195068359375E-08;-0,89874267578125;6;458;1,46745033562183E-07;-1,44463144242763E-07;100 nA
-0,950927734375;236,595614402654;-1,3677978515625E-08;-0,94879150390625;6;459;1,46745033562183E-07;-1,44463144242763E-07;100 nA
-1,0009765625;237,09610240139;-1,4080810546875E-08;-0,9991455078125;6;460;1,46745033562183E-07;-1,44463144242763E-07;100 nA
-0,950927734375;237,596590400126;-1,28875732421875E-08;-0,94940185546875;6;461;1,46745033562183E-07;-1,44463144242763E-07;100 nA
-0,90087890625;238,097078398863;-1,17156982421875E-08;-0,89874267578125;6;462;1,46745033562183E-07;-1,44463144242763E-07;100 nA
-0,850830078125;238,597566397599;-1,07391357421875E-08;-0,84869384765625;6;463;1,46745033562183E-07;-1,44463144242763E-07;100 nA
-0,80078125;239,098054396335;-9,7442626953125E-09;-0,7989501953125;6;464;1,46745033562183E-07;-1,44463144242763E-07;100 nA
-0,750732421875;239,598542395072;-8,7615966796875E-09;-0,748626708984375;6;465;1,46745033562183E-07;-1,44463144242763E-07;100 nA
-0,70068359375;240,099030393808;-7,7850341796875E-09;-0,6986083984375;6;466;1,46745033562183E-07;-1,44463144242763E-07;100 nA
-0,650634765625;240,599518392545;-6,7657470703125E-09;-0,648651123046875;6;467;1,46745033562183E-07;-1,44463144242763E-07;100 nA
-0,6005859375;241,100006391281;-5,853271484375E-09;-0,598724365234375;6;468;1,46745033562183E-07;-1,44463144242763E-07;100 nA
-0,550537109375;241,600494390017;-4,681396484375E-09;-0,54876708984375;6;469;1,46745033562183E-07;-1,44463144242763E-07;100 nA
-0,50048828125;242,100982388754;-4,229736328125E-09;-0,4989013671875;6;470;1,46745033562183E-07;-1,44463144242763E-07;100 nA
-0,450439453125;242,60147038749;-3,43017578125E-09;-0,449005126953125;6;471;1,46745033562183E-07;-1,44463144242763E-07;100 nA
-0,400390625;243,101958386227;-2,4200439453125E-09;-0,399139404296875;6;472;1,46745033562183E-07;-1,44463144242763E-07;100 nA
-0,350341796875;243,602446384963;-1,50146484375E-09;-0,34918212890625;6;473;1,46745033562183E-07;-1,44463144242763E-07;100 nA
-0,30029296875;244,102934383699;-7,171630859375E-10;-0,299224853515625;6;474;1,46745033562183E-07;-1,44463144242763E-07;100 nA
-0,250244140625;244,603422382436;-2,74658203125E-11;-0,249359130859375;6;475;1,46745033562183E-07;-1,44463144242763E-07;100 nA
-0,2001953125;245,103910381172;9,1552734375E-10;-0,199493408203125;6;476;1,46745033562183E-07;-1,44463144242763E-07;100 nA
-0,150146484375;245,604398379909;1,6754150390625E-09;-0,149566650390625;6;477;1,46745033562183E-07;-1,44463144242763E-07;100 nA
-0,10009765625;246,104886378645;2,6123046875E-09;-0,0997314453125;6;478;1,46745033562183E-07;-1,44463144242763E-07;100 nA
-0,050048828125;246,605374377381;3,1463623046875E-09;-0,0498046875;6;479;1,46745033562183E-07;-1,44463144242763E-07;100 nA
0;247,105862376118;3,80859375E-09;0,000152587890625;6;480;1,46745033562183E-07;-1,44463144242763E-07;100 nA
0,050048828125;247,606350374854;4,6966552734375E-09;0,050140380859375;7;481;1,46777108311653E-07;-1,44319571554661E-07;100 nA
0,10009765625;248,10683837359;6,146240234375E-09;0,100128173828125;7;482;1,46777108311653E-07;-1,44319571554661E-07;100 nA
0,150146484375;248,607326372327;6,2286376953125E-09;0,150054931640625;7;483;1,46777108311653E-07;-1,44319571554661E-07;100 nA
0,2001953125;249,107814371063;6,31103515625E-09;0,200042724609375;7;484;1,46777108311653E-07;-1,44319571554661E-07;100 nA
0,250244140625;249,6083023698;6,5765380859375E-09;0,2501220703125;7;485;1,46777108311653E-07;-1,44319571554661E-07;100 nA
0,30029296875;250,108790368536;6,8756103515625E-09;0,300140380859375;7;486;1,46777108311653E-07;-1,44319571554661E-07;100 nA
0,350341796875;250,609278367272;7,269287109375E-09;0,350128173828125;7;487;1,46777108311653E-07;-1,44319571554661E-07;100 nA
0,400390625;251,109766366009;7,7392578125E-09;0,400115966796875;7;488;1,46777108311653E-07;-1,44319571554661E-07;100 nA
0,450439453125;251,610254364745;8,2183837890625E-09;0,450103759765625;7;489;1,46777108311653E-07;-1,44319571554661E-07;100 nA
0,50048828125;252,110742363482;8,7646484375E-09;0,5001220703125;7;490;1,46777108311653E-07;-1,44319571554661E-07;100 nA
0,550537109375;252,611230362218;9,3048095703125E-09;0,550140380859375;7;491;1,46777108311653E-07;-1,44319571554661E-07;100 nA
0,6005859375;253,111718360954;9,87548828125E-09;0,60009765625;7;492;1,46777108311653E-07;-1,44319571554661E-07;100 nA
0,650634765625;253,612206359691;1,03424072265625E-08;0,650115966796875;7;493;1,46777108311653E-07;-1,44319571554661E-07;100 nA
0,70068359375;254,112694358427;1,068115234375E-08;0,699920654296875;7;494;1,46777108311653E-07;-1,44319571554661E-07;100 nA
0,750732421875;254,613182357164;1,09039306640625E-08;0,74981689453125;7;495;1,46777108311653E-07;-1,44319571554661E-07;100 nA
0,80078125;255,1136703559;1,1126708984375E-08;0,79986572265625;7;496;1,46777108311653E-07;-1,44319571554661E-07;100 nA
0,850830078125;255,614158354636;1,14349365234375E-08;0,84991455078125;7;497;1,46777108311653E-07;-1,44319571554661E-07;100 nA
0,90087890625;256,114646353373;1,19049072265625E-08;0,899658203125;7;498;1,46777108311653E-07;-1,44319571554661E-07;100 nA
0,950927734375;256,615134352109;1,25701904296875E-08;0,94970703125;7;499;1,46777108311653E-07;-1,44319571554661E-07;100 nA
1,0009765625;257,115622350845;1,34429931640625E-08;0,99945068359375;7;500;1,46777108311653E-07;-1,44319571554661E-07;100 nA
0,950927734375;257,616110349582;1,18316650390625E-08;0,95001220703125;7;501;1,46777108311653E-07;-1,44319571554661E-07;100 nA
0,90087890625;258,116598348318;1,075439453125E-08;0,89935302734375;7;502;1,46777108311653E-07;-1,44319571554661E-07;100 nA
0,850830078125;258,617086347055;9,9151611328125E-09;0,84991455078125;7;503;1,46777108311653E-07;-1,44319571554661E-07;100 nA
0,80078125;259,117574345791;9,228515625E-09;0,79986572265625;7;504;1,46777108311653E-07;-1,44319571554661E-07;100 nA
0,750732421875;259,618062344527;8,526611328125E-09;0,7498779296875;7;505;1,46777108311653E-07;-1,44319571554661E-07;100 nA
0,70068359375;260,118550343264;7,879638671875E-09;0,699951171875;7;506;1,46777108311653E-07;-1,44319571554661E-07;100 nA
0,650634765625;260,619038342;7,2174072265625E-09;0,650054931640625;7;507;1,46777108311653E-07;-1,44319571554661E-07;100 nA
0,6005859375;261,119526340737;6,585693359375E-09;0,60015869140625;7;508;1,46777108311653E-07;-1,44319571554661E-07;100 nA
0,550537109375;261,620014339473;5,987548828125E-09;0,550140380859375;7;509;1,46777108311653E-07;-1,44319571554661E-07;100 nA
0,50048828125;262,120502338209;5,3802490234375E-09;0,5001220703125;7;510;1,46777108311653E-07;-1,44319571554661E-07;100 nA
0,450439453125;262,620990336946;4,74853515625E-09;0,45013427734375;7;511;1,46777108311653E-07;-1,44319571554661E-07;100 nA
0,400390625;263,121478335682;4,095458984375E-09;0,400146484375;7;512;1,46777108311653E-07;-1,44319571554661E-07;100 nA
0,350341796875;263,621966334419;3,424072265625E-09;0,350128173828125;7;513;1,46777108311653E-07;-1,44319571554661E-07;100 nA
0,30029296875;264,122454333155;2,6702880859375E-09;0,30010986328125;7;514;1,46777108311653E-07;-1,44319571554661E-07;100 nA
0,250244140625;264,622942331891;1,86767578125E-09;0,250152587890625;7;515;1,46777108311653E-07;-1,44319571554661E-07;100 nA
0,2001953125;265,123430330628;1,043701171875E-09;0,200103759765625;7;516;1,46777108311653E-07;-1,44319571554661E-07;100 nA
0,150146484375;265,623918329364;6,103515625E-12;0,150115966796875;7;517;1,46777108311653E-07;-1,44319571554661E-07;100 nA
0,10009765625;266,1244063281;-1,611328125E-09;0,100128173828125;7;518;1,46777108311653E-07;-1,44319571554661E-07;100 nA
0,050048828125;266,624894326837;-4,4403076171875E-09;0,050140380859375;7;519;1,46777108311653E-07;-1,44319571554661E-07;100 nA
0;267,125382325573;-3,582763671875E-09;0,000140380859374997;7;520;1,46777108311653E-07;-1,44319571554661E-07;100 nA
-0,050048828125;267,62587032431;-3,8482666015625E-09;-0,0498046875;7;521;1,46777108311653E-07;-1,44319571554661E-07;100 nA
-0,10009765625;268,126358323046;-4,4158935546875E-09;-0,09967041015625;7;522;1,46777108311653E-07;-1,44319571554661E-07;100 nA
-0,150146484375;268,626846321782;-5,0323486328125E-09;-0,1495361328125;7;523;1,46777108311653E-07;-1,44319571554661E-07;100 nA
-0,2001953125;269,127334320519;-5,682373046875E-09;-0,199493408203125;7;524;1,46777108311653E-07;-1,44319571554661E-07;100 nA
-0,250244140625;269,627822319255;-6,2530517578125E-09;-0,249359130859375;7;525;1,46777108311653E-07;-1,44319571554661E-07;100 nA
-0,30029296875;270,128310317992;-7,012939453125E-09;-0,29931640625;7;526;1,46777108311653E-07;-1,44319571554661E-07;100 nA
-0,350341796875;270,628798316728;-7,7056884765625E-09;-0,3492431640625;7;527;1,46777108311653E-07;-1,44319571554661E-07;100 nA
-0,400390625;271,129286315464;-8,4228515625E-09;-0,39910888671875;7;528;1,46777108311653E-07;-1,44319571554661E-07;100 nA
-0,450439453125;271,629774314201;-8,9447021484375E-09;-0,449005126953125;7;529;1,46777108311653E-07;-1,44319571554661E-07;100 nA
-0,50048828125;272,130262312937;-9,4573974609375E-09;-0,498809814453125;7;530;1,46777108311653E-07;-1,44319571554661E-07;100 nA
-0,550537109375;272,630750311674;-1,00616455078125E-08;-0,548828125;7;531;1,46777108311653E-07;-1,44319571554661E-07;100 nA
-0,6005859375;273,13123831041;-1,0797119140625E-08;-0,598724365234375;7;532;1,46777108311653E-07;-1,44319571554661E-07;100 nA
-0,650634765625;273,631726309146;-1,1199951171875E-08;-0,648681640625;7;533;1,46777108311653E-07;-1,44319571554661E-07;100 nA
-0,70068359375;274,132214307883;-1,1376953125E-08;-0,698577880859375;7;534;1,46777108311653E-07;-1,44319571554661E-07;100 nA
-0,750732421875;274,632702306619;-1,17156982421875E-08;-0,748565673828125;7;535;1,46777108311653E-07;-1,44319571554661E-07;100 nA
-0,80078125;275,133190305355;-1,2158203125E-08;-0,79925537109375;7;536;1,46777108311653E-07;-1,44319571554661E-07;100 nA
-0,850830078125;275,633678304092;-1,26373291015625E-08;-0,848388671875;7;537;1,46777108311653E-07;-1,44319571554661E-07;100 nA
-0,90087890625;276,134166302828;-1,3165283203125E-08;-0,8990478515625;7;538;1,46777108311653E-07;-1,44319571554661E-07;100 nA
-0,950927734375;276,634654301565;-1,365966796875E-08;-0,94879150390625;7;539;1,46777108311653E-07;-1,44319571554661E-07;100 nA
-1,0009765625;277,135142300301;-1,41510009765625E-08;-0,99884033203125;7;540;1,46777108311653E-07;-1,44319571554661E-07;100 nA
-0,950927734375;277,635630299037;-1,28448486328125E-08;-0,9490966796875;7;541;1,46777108311653E-07;-1,44319571554661E-07;100 nA
-0,90087890625;278,136118297774;-1,17095947265625E-08;-0,89874267578125;7;542;1,46777108311653E-07;-1,44319571554661E-07;100 nA
-0,850830078125;278,63660629651;-1,06292724609375E-08;-0,8489990234375;7;543;1,46777108311653E-07;-1,44319571554661E-07;100 nA
-0,80078125;279,137094295247;-9,6710205078125E-09;-0,79864501953125;7;544;1,46777108311653E-07;-1,44319571554661E-07;100 nA
-0,750732421875;279,637582293983;-8,7066650390625E-09;-0,748626708984375;7;545;1,46777108311653E-07;-1,44319571554661E-07;100 nA
-0,70068359375;280,138070292719;-7,8033447265625E-09;-0,698638916015625;7;546;1,46777108311653E-07;-1,44319571554661E-07;100 nA
-0,650634765625;280,638558291456;-6,854248046875E-09;-0,648651123046875;7;547;1,46777108311653E-07;-1,44319571554661E-07;100 nA
-0,6005859375;281,139046290192;-5,9478759765625E-09;-0,598663330078125;7;548;1,46777108311653E-07;-1,44319571554661E-07;100 nA
-0,550537109375;281,639534288929;-4,9896240234375E-09;-0,54876708984375;7;549;1,46777108311653E-07;-1,44319571554661E-07;100 nA
-0,50048828125;282,140022287665;-4,1107177734375E-09;-0,498870849609375;7;550;1,46777108311653E-07;-1,44319571554661E-07;100 nA
-0,450439453125;282,640510286401;-3,2073974609375E-09;-0,448883056640625;7;551;1,46777108311653E-07;-1,44319571554661E-07;100 nA
-0,400390625;283,140998285138;-2,386474609375E-09;-0,399139404296875;7;552;1,46777108311653E-07;-1,44319571554661E-07;100 nA
-0,350341796875;283,641486283874;-1,5289306640625E-09;-0,349273681640625;7;553;1,46777108311653E-07;-1,44319571554661E-07;100 nA
-0,30029296875;284,14197428261;-6,34765625E-10;-0,299285888671875;7;554;1,46777108311653E-07;-1,44319571554661E-07;100 nA
-0,250244140625;284,642462281347;7,62939453125E-11;-0,2493896484375;7;555;1,46777108311653E-07;-1,44319571554661E-07;100 nA
-0,2001953125;285,142950280083;8,85009765625E-10;-0,199493408203125;7;556;1,46777108311653E-07;-1,44319571554661E-07;100 nA
-0,150146484375;285,64343827882;1,6510009765625E-09;-0,14959716796875;7;557;1,46777108311653E-07;-1,44319571554661E-07;100 nA
-0,10009765625;286,143926277556;2,35595703125E-09;-0,0997314453125;7;558;1,46777108311653E-07;-1,44319571554661E-07;100 nA
-0,050048828125;286,644414276292;3,0059814453125E-09;-0,049835205078125;7;559;1,46777108311653E-07;-1,44319571554661E-07;100 nA
0;287,144902275029;3,717041015625E-09;0,000112915039062494;7;560;1,46777108311653E-07;-1,44319571554661E-07;100 nA
0,050048828125;287,645390273765;4,608154296875E-09;0,050048828125;8;561;1,46526619791985E-07;-1,44224874675274E-07;100 nA
0,10009765625;288,145878272502;6,0394287109375E-09;0,100067138671875;8;562;1,46526619791985E-07;-1,44224874675274E-07;100 nA
0,150146484375;288,646366271238;6,1065673828125E-09;0,150115966796875;8;563;1,46526619791985E-07;-1,44224874675274E-07;100 nA
0,2001953125;289,146854269974;6,2591552734375E-09;0,2000732421875;8;564;1,46526619791985E-07;-1,44224874675274E-07;100 nA
0,250244140625;289,647342268711;6,494140625E-09;0,25006103515625;8;565;1,46526619791985E-07;-1,44224874675274E-07;100 nA
0,30029296875;290,147830267447;6,8878173828125E-09;0,300048828125;8;566;1,46526619791985E-07;-1,44224874675274E-07;100 nA
0,350341796875;290,648318266184;7,2967529296875E-09;0,350128173828125;8;567;1,46526619791985E-07;-1,44224874675274E-07;100 nA
0,400390625;291,14880626492;7,769775390625E-09;0,400115966796875;8;568;1,46526619791985E-07;-1,44224874675274E-07;100 nA
0,450439453125;291,649294263656;8,2122802734375E-09;0,450103759765625;8;569;1,46526619791985E-07;-1,44224874675274E-07;100 nA
0,50048828125;292,149782262393;8,7310791015625E-09;0,500152587890625;8;570;1,46526619791985E-07;-1,44224874675274E-07;100 nA
0,550537109375;292,650270261129;9,3017578125E-09;0,55010986328125;8;571;1,46526619791985E-07;-1,44224874675274E-07;100 nA
0,6005859375;293,150758259865;9,857177734375E-09;0,60015869140625;8;572;1,46526619791985E-07;-1,44224874675274E-07;100 nA
0,650634765625;293,651246258602;1,03546142578125E-08;0,650054931640625;8;573;1,46526619791985E-07;-1,44224874675274E-07;100 nA
0,70068359375;294,151734257338;1,0662841796875E-08;0,69989013671875;8;574;1,46526619791985E-07;-1,44224874675274E-07;100 nA
0,750732421875;294,652222256075;1,09100341796875E-08;0,749847412109375;8;575;1,46526619791985E-07;-1,44224874675274E-07;100 nA
0,80078125;295,152710254811;1,11358642578125E-08;0,799560546875;8;576;1,46526619791985E-07;-1,44224874675274E-07;100 nA
0,850830078125;295,653198253547;1,14410400390625E-08;0,849609375;8;577;1,46526619791985E-07;-1,44224874675274E-07;100 nA
0,90087890625;296,153686252284;1,18865966796875E-08;0,899658203125;8;578;1,46526619791985E-07;-1,44224874675274E-07;100 nA
0,950927734375;296,65417425102;1,26068115234375E-08;0,94970703125;8;579;1,46526619791985E-07;-1,44224874675274E-07;100 nA
1,0009765625;297,154662249757;1,34918212890625E-08;0,99945068359375;8;580;1,46526619791985E-07;-1,44224874675274E-07;100 nA
0,950927734375;297,655150248493;1,18560791015625E-08;0,9490966796875;8;581;1,46526619791985E-07;-1,44224874675274E-07;100 nA
0,90087890625;298,155638247229;1,0797119140625E-08;0,89996337890625;8;582;1,46526619791985E-07;-1,44224874675274E-07;100 nA
0,850830078125;298,656126245966;9,97314453125E-09;0,849609375;8;583;1,46526619791985E-07;-1,44224874675274E-07;100 nA
0,80078125;299,156614244702;9,2437744140625E-09;0,79986572265625;8;584;1,46526619791985E-07;-1,44224874675274E-07;100 nA
0,750732421875;299,657102243439;8,5479736328125E-09;0,749786376953125;8;585;1,46526619791985E-07;-1,44224874675274E-07;100 nA
0,70068359375;300,157590242175;7,8582763671875E-09;0,699981689453125;8;586;1,46526619791985E-07;-1,44224874675274E-07;100 nA
0,650634765625;300,658078240911;7,1868896484375E-09;0,6500244140625;8;587;1,46526619791985E-07;-1,44224874675274E-07;100 nA
0,6005859375;301,158566239648;6,5155029296875E-09;0,600067138671875;8;588;1,46526619791985E-07;-1,44224874675274E-07;100 nA
0,550537109375;301,659054238384;5,8929443359375E-09;0,55010986328125;8;589;1,46526619791985E-07;-1,44224874675274E-07;100 nA
0,50048828125;302,15954223712;5,2642822265625E-09;0,50006103515625;8;590;1,46526619791985E-07;-1,44224874675274E-07;100 nA
0,450439453125;302,660030235857;4,6722412109375E-09;0,4500732421875;8;591;1,46526619791985E-07;-1,44224874675274E-07;100 nA
0,400390625;303,160518234593;4,0191650390625E-09;0,4000244140625;8;592;1,46526619791985E-07;-1,44224874675274E-07;100 nA
0,350341796875;303,66100623333;3,3660888671875E-09;0,350128173828125;8;593;1,46526619791985E-07;-1,44224874675274E-07;100 nA
0,30029296875;304,161494232066;2,64892578125E-09;0,300079345703125;8;594;1,46526619791985E-07;-1,44224874675274E-07;100 nA
0,250244140625;304,661982230802;1,8341064453125E-09;0,250030517578125;8;595;1,46526619791985E-07;-1,44224874675274E-07;100 nA
0,2001953125;305,162470229539;1,0040283203125E-09;0,2000732421875;8;596;1,46526619791985E-07;-1,44224874675274E-07;100 nA
0,150146484375;305,662958228275;6,40869140625E-11;0,15008544921875;8;597;1,46526619791985E-07;-1,44224874675274E-07;100 nA
0,10009765625;306,163446227012;-1,605224609375E-09;0,100128173828125;8;598;1,46526619791985E-07;-1,44224874675274E-07;100 nA
0,050048828125;306,663934225748;-4,437255859375E-09;0,050140380859375;8;599;1,46526619791985E-07;-1,44224874675274E-07;100 nA
0;307,164422224484;-3,55224609375E-09;0,000140380859374997;8;600;1,46526619791985E-07;-1,44224874675274E-07;100 nA
-0,050048828125;307,664910223221;-3,790283203125E-09;-0,049774169921875;8;601;1,46526619791985E-07;-1,44224874675274E-07;100 nA
-0,10009765625;308,165398221957;-4,3731689453125E-09;-0,099639892578125;8;602;1,46526619791985E-07;-1,44224874675274E-07;100 nA
-0,150146484375;308,665886220694;-5,084228515625E-09;-0,149566650390625;8;603;1,46526619791985E-07;-1,44224874675274E-07;100 nA
-0,2001953125;309,16637421943;-5,6182861328125E-09;-0,199462890625;8;604;1,46526619791985E-07;-1,44224874675274E-07;100 nA
-0,250244140625;309,666862218166;-6,28662109375E-09;-0,2493896484375;8;605;1,46526619791985E-07;-1,44224874675274E-07;100 nA
-0,30029296875;310,167350216903;-7,0281982421875E-09;-0,29925537109375;8;606;1,46526619791985E-07;-1,44224874675274E-07;100 nA
-0,350341796875;310,667838215639;-7,6324462890625E-09;-0,349212646484375;8;607;1,46526619791985E-07;-1,44224874675274E-07;100 nA
-0,400390625;311,168326214376;-8,19091796875E-09;-0,399139404296875;8;608;1,46526619791985E-07;-1,44224874675274E-07;100 nA
-0,450439453125;311,668814213112;-8,7432861328125E-09;-0,448944091796875;8;609;1,46526619791985E-07;-1,44224874675274E-07;100 nA
-0,50048828125;312,169302211848;-9,38720703125E-09;-0,498870849609375;8;610;1,46526619791985E-07;-1,44224874675274E-07;100 nA
-0,550537109375;312,669790210585;-1,00616455078125E-08;-0,548797607421875;8;611;1,46526619791985E-07;-1,44224874675274E-07;100 nA
-0,6005859375;313,170278209321;-1,06781005859375E-08;-0,598724365234375;8;612;1,46526619791985E-07;-1,44224874675274E-07;100 nA
-0,650634765625;313,670766208057;-1,1126708984375E-08;-0,64862060546875;8;613;1,46526619791985E-07;-1,44224874675274E-07;100 nA
-0,70068359375;314,171254206794;-1,13555908203125E-08;-0,698577880859375;8;614;1,46526619791985E-07;-1,44224874675274E-07;100 nA
-0,750732421875;314,67174220553;-1,16607666015625E-08;-0,748626708984375;8;615;1,46526619791985E-07;-1,44224874675274E-07;100 nA
-0,80078125;315,172230204267;-1,21856689453125E-08;-0,79864501953125;8;616;1,46526619791985E-07;-1,44224874675274E-07;100 nA
-0,850830078125;315,672718203003;-1,2652587890625E-08;-0,8489990234375;8;617;1,46526619791985E-07;-1,44224874675274E-07;100 nA
-0,90087890625;316,173206201739;-1,3153076171875E-08;-0,8984375;8;618;1,46526619791985E-07;-1,44224874675274E-07;100 nA
-0,950927734375;316,673694200476;-1,36566162109375E-08;-0,94879150390625;8;619;1,46526619791985E-07;-1,44224874675274E-07;100 nA
-1,0009765625;317,174182199212;-1,4178466796875E-08;-0,99884033203125;8;620;1,46526619791985E-07;-1,44224874675274E-07;100 nA
-0,950927734375;317,674670197949;-1,28265380859375E-08;-0,94879150390625;8;621;1,46526619791985E-07;-1,44224874675274E-07;100 nA
-0,90087890625;318,175158196685;-1,17523193359375E-08;-0,8990478515625;8;622;1,46526619791985E-07;-1,44224874675274E-07;100 nA
-0,850830078125;318,675646195421;-1,0723876953125E-08;-0,84869384765625;8;623;1,46526619791985E-07;-1,44224874675274E-07;100 nA
-0,80078125;319,176134194158;-9,759521484375E-09;-0,79833984375;8;624;1,46526619791985E-07;-1,44224874675274E-07;100 nA
-0,750732421875;319,676622192894;-8,7677001953125E-09;-0,748626708984375;8;625;1,46526619791985E-07;-1,44224874675274E-07;100 nA
-0,70068359375;320,177110191631;-7,8765869140625E-09;-0,6986083984375;8;626;1,46526619791985E-07;-1,44224874675274E-07;100 nA
-0,650634765625;320,677598190367;-6,939697265625E-09;-0,64862060546875;8;627;1,46526619791985E-07;-1,44224874675274E-07;100 nA
-0,6005859375;321,178086189103;-5,9967041015625E-09;-0,598663330078125;8;628;1,46526619791985E-07;-1,44224874675274E-07;100 nA
-0,550537109375;321,67857418784;-5,0628662109375E-09;-0,54876708984375;8;629;1,46526619791985E-07;-1,44224874675274E-07;100 nA
-0,50048828125;322,179062186576;-4,1473388671875E-09;-0,498809814453125;8;630;1,46526619791985E-07;-1,44224874675274E-07;100 nA
-0,450439453125;322,679550185312;-3,3172607421875E-09;-0,448944091796875;8;631;1,46526619791985E-07;-1,44224874675274E-07;100 nA
-0,400390625;323,180038184049;-2,3773193359375E-09;-0,39910888671875;8;632;1,46526619791985E-07;-1,44224874675274E-07;100 nA
-0,350341796875;323,680526182785;-1,4923095703125E-09;-0,3492431640625;8;633;1,46526619791985E-07;-1,44224874675274E-07;100 nA
-0,30029296875;324,181014181522;-6,89697265625E-10;-0,299285888671875;8;634;1,46526619791985E-07;-1,44224874675274E-07;100 nA
-0,250244140625;324,681502180258;8,23974609375E-11;-0,2493896484375;8;635;1,46526619791985E-07;-1,44224874675274E-07;100 nA
-0,2001953125;325,181990178994;9,21630859375E-10;-0,199462890625;8;636;1,46526619791985E-07;-1,44224874675274E-07;100 nA
-0,150146484375;325,682478177731;1,605224609375E-09;-0,149627685546875;8;637;1,46526619791985E-07;-1,44224874675274E-07;100 nA
-0,10009765625;326,182966176467;2,4261474609375E-09;-0,09967041015625;8;638;1,46526619791985E-07;-1,44224874675274E-07;100 nA
-0,050048828125;326,683454175204;3,082275390625E-09;-0,0498046875;8;639;1,46526619791985E-07;-1,44224874675274E-07;100 nA
0;327,18394217394;3,851318359375E-09;0,000125122070312497;8;640;1,46526619791985E-07;-1,44224874675274E-07;100 nA
0,050048828125;327,684430172676;4,6600341796875E-09;0,050079345703125;9;641;1,45811811089516E-07;-1,44246257841587E-07;100 nA
0,10009765625;328,184918171413;6,11572265625E-09;0,100067138671875;9;642;1,45811811089516E-07;-1,44246257841587E-07;100 nA
0,150146484375;328,685406170149;6,2103271484375E-09;0,150054931640625;9;643;1,45811811089516E-07;-1,44246257841587E-07;100 nA
0,2001953125;329,185894168886;6,292724609375E-09;0,200103759765625;9;644;1,45811811089516E-07;-1,44246257841587E-07;100 nA
0,250244140625;329,686382167622;6,5704345703125E-09;0,2501220703125;9;645;1,45811811089516E-07;-1,44246257841587E-07;100 nA
0,30029296875;330,186870166358;6,890869140625E-09;0,30010986328125;9;646;1,45811811089516E-07;-1,44246257841587E-07;100 nA
0,350341796875;330,687358165095;7,2601318359375E-09;0,35009765625;9;647;1,45811811089516E-07;-1,44246257841587E-07;100 nA
0,400390625;331,187846163831;7,71484375E-09;0,400115966796875;9;648;1,45811811089516E-07;-1,44246257841587E-07;100 nA
0,450439453125;331,688334162567;8,221435546875E-09;0,450164794921875;9;649;1,45811811089516E-07;-1,44246257841587E-07;100 nA
0,50048828125;332,188822161304;8,7371826171875E-09;0,500091552734375;9;650;1,45811811089516E-07;-1,44246257841587E-07;100 nA
0,550537109375;332,68931016004;9,28955078125E-09;0,550079345703125;9;651;1,45811811089516E-07;-1,44246257841587E-07;100 nA
0,6005859375;333,189798158777;9,8175048828125E-09;0,600128173828125;9;652;1,45811811089516E-07;-1,44246257841587E-07;100 nA
0,650634765625;333,690286157513;1,02874755859375E-08;0,6500244140625;9;653;1,45811811089516E-07;-1,44246257841587E-07;100 nA
0,70068359375;334,190774156249;1,06231689453125E-08;0,699951171875;9;654;1,45811811089516E-07;-1,44246257841587E-07;100 nA
0,750732421875;334,691262154986;1,08367919921875E-08;0,7498779296875;9;655;1,45811811089516E-07;-1,44246257841587E-07;100 nA
0,80078125;335,191750153722;1,1083984375E-08;0,8001708984375;9;656;1,45811811089516E-07;-1,44246257841587E-07;100 nA
0,850830078125;335,692238152459;1,13555908203125E-08;0,8502197265625;9;657;1,45811811089516E-07;-1,44246257841587E-07;100 nA
0,90087890625;336,192726151195;1,181640625E-08;0,89996337890625;9;658;1,45811811089516E-07;-1,44246257841587E-07;100 nA
0,950927734375;336,693214149931;1,25244140625E-08;0,94970703125;9;659;1,45811811089516E-07;-1,44246257841587E-07;100 nA
1,0009765625;337,193702148668;1,3385009765625E-08;1,00006103515625;9;660;1,45811811089516E-07;-1,44246257841587E-07;100 nA
0,950927734375;337,694190147404;1,18316650390625E-08;0,95001220703125;9;661;1,45811811089516E-07;-1,44246257841587E-07;100 nA
0,90087890625;338,194678146141;1,0693359375E-08;0,89996337890625;9;662;1,45811811089516E-07;-1,44246257841587E-07;100 nA
0,850830078125;338,695166144877;9,8968505859375E-09;0,84991455078125;9;663;1,45811811089516E-07;-1,44246257841587E-07;100 nA
0,80078125;339,195654143613;9,1094970703125E-09;0,8001708984375;9;664;1,45811811089516E-07;-1,44246257841587E-07;100 nA
0,750732421875;339,69614214235;8,50830078125E-09;0,74981689453125;9;665;1,45811811089516E-07;-1,44246257841587E-07;100 nA
0,70068359375;340,196630141086;7,806396484375E-09;0,70001220703125;9;666;1,45811811089516E-07;-1,44246257841587E-07;100 nA
0,650634765625;340,697118139822;6,6131591796875E-09;0,6500244140625;9;667;1,45811811089516E-07;-1,44246257841587E-07;100 nA
0,6005859375;341,197606138559;6,53076171875E-09;0,600067138671875;9;668;1,45811811089516E-07;-1,44246257841587E-07;100 nA
0,550537109375;341,698094137295;5,9295654296875E-09;0,55010986328125;9;669;1,45811811089516E-07;-1,44246257841587E-07;100 nA
0,50048828125;342,198582136032;5,3131103515625E-09;0,500091552734375;9;670;1,45811811089516E-07;-1,44246257841587E-07;100 nA
0,450439453125;342,699070134768;4,69970703125E-09;0,450103759765625;9;671;1,45811811089516E-07;-1,44246257841587E-07;100 nA
0,400390625;343,199558133504;4,0618896484375E-09;0,400115966796875;9;672;1,45811811089516E-07;-1,44246257841587E-07;100 nA
0,350341796875;343,700046132241;3,4332275390625E-09;0,35009765625;9;673;1,45811811089516E-07;-1,44246257841587E-07;100 nA
0,30029296875;344,200534130977;2,6824951171875E-09;0,300140380859375;9;674;1,45811811089516E-07;-1,44246257841587E-07;100 nA
0,250244140625;344,701022129714;1,8768310546875E-09;0,250152587890625;9;675;1,45811811089516E-07;-1,44246257841587E-07;100 nA
0,2001953125;345,20151012845;1,0528564453125E-09;0,200164794921875;9;676;1,45811811089516E-07;-1,44246257841587E-07;100 nA
0,150146484375;345,701998127186;7,01904296875E-11;0,150115966796875;9;677;1,45811811089516E-07;-1,44246257841587E-07;100 nA
0,10009765625;346,202486125923;-1,5716552734375E-09;0,10015869140625;9;678;1,45811811089516E-07;-1,44246257841587E-07;100 nA
0,050048828125;346,702974124659;-4,40673828125E-09;0,05010986328125;9;679;1,45811811089516E-07;-1,44246257841587E-07;100 nA
0;347,203462123396;-3,6468505859375E-09;0,000134277343750003;9;680;1,45811811089516E-07;-1,44246257841587E-07;100 nA
-0,050048828125;347,703950122132;-3,7506103515625E-09;-0,0497467041015625;9;681;1,45811811089516E-07;-1,44246257841587E-07;100 nA
-0,10009765625;348,204438120868;-4,302978515625E-09;-0,0997314453125;9;682;1,45811811089516E-07;-1,44246257841587E-07;100 nA
-0,150146484375;348,704926119605;-4,931640625E-09;-0,14959716796875;9;683;1,45811811089516E-07;-1,44246257841587E-07;100 nA
-0,2001953125;349,205414118341;-5,596923828125E-09;-0,19952392578125;9;684;1,45811811089516E-07;-1,44246257841587E-07;100 nA
-0,250244140625;349,705902117077;-6,280517578125E-09;-0,249359130859375;9;685;1,45811811089516E-07;-1,44246257841587E-07;100 nA
-0,30029296875;350,206390115814;-7,0343017578125E-09;-0,299224853515625;9;686;1,45811811089516E-07;-1,44246257841587E-07;100 nA
-0,350341796875;350,70687811455;-7,635498046875E-09;-0,3492431640625;9;687;1,45811811089516E-07;-1,44246257841587E-07;100 nA
-0,400390625;351,207366113287;-8,1787109375E-09;-0,39898681640625;9;688;1,45811811089516E-07;-1,44246257841587E-07;100 nA
-0,450439453125;351,707854112023;-8,7738037109375E-09;-0,448974609375;9;689;1,45811811089516E-07;-1,44246257841587E-07;100 nA
-0,50048828125;352,208342110759;-9,3597412109375E-09;-0,498931884765625;9;690;1,45811811089516E-07;-1,44246257841587E-07;100 nA
-0,550537109375;352,708830109496;-1,004638671875E-08;-0,548797607421875;9;691;1,45811811089516E-07;-1,44246257841587E-07;100 nA
-0,6005859375;353,209318108232;-1,0693359375E-08;-0,59869384765625;9;692;1,45811811089516E-07;-1,44246257841587E-07;100 nA
-0,650634765625;353,709806106969;-1,11328125E-08;-0,648681640625;9;693;1,45811811089516E-07;-1,44246257841587E-07;100 nA
-0,70068359375;354,210294105705;-1,13311767578125E-08;-0,698638916015625;9;694;1,45811811089516E-07;-1,44246257841587E-07;100 nA
-0,750732421875;354,710782104441;-1,16424560546875E-08;-0,74859619140625;9;695;1,45811811089516E-07;-1,44246257841587E-07;100 nA
-0,80078125;355,211270103178;-1,21429443359375E-08;-0,79864501953125;9;696;1,45811811089516E-07;-1,44246257841587E-07;100 nA
-0,850830078125;355,711758101914;-1,26739501953125E-08;-0,8489990234375;9;697;1,45811811089516E-07;-1,44246257841587E-07;100 nA
-0,90087890625;356,212246100651;-1,3177490234375E-08;-0,89874267578125;9;698;1,45811811089516E-07;-1,44246257841587E-07;100 nA
-0,950927734375;356,712734099387;-1,3677978515625E-08;-0,948486328125;9;699;1,45811811089516E-07;-1,44246257841587E-07;100 nA
-1,0009765625;357,213222098123;-1,4215087890625E-08;-0,99853515625;9;700;1,45811811089516E-07;-1,44246257841587E-07;100 nA
-0,950927734375;357,71371009686;-1,28448486328125E-08;-0,9490966796875;9;701;1,45811811089516E-07;-1,44246257841587E-07;100 nA
-0,90087890625;358,214198095596;-1,1724853515625E-08;-0,8990478515625;9;702;1,45811811089516E-07;-1,44246257841587E-07;100 nA
-0,850830078125;358,714686094332;-1,07025146484375E-08;-0,84869384765625;9;703;1,45811811089516E-07;-1,44246257841587E-07;100 nA
-0,80078125;359,215174093069;-9,7625732421875E-09;-0,79864501953125;9;704;1,45811811089516E-07;-1,44246257841587E-07;100 nA
-0,750732421875;359,715662091805;-8,7432861328125E-09;-0,748626708984375;9;705;1,45811811089516E-07;-1,44246257841587E-07;100 nA
-0,70068359375;360,216150090542;-7,8704833984375E-09;-0,69866943359375;9;706;1,45811811089516E-07;-1,44246257841587E-07;100 nA
-0,650634765625;360,716638089278;-6,9488525390625E-09;-0,648651123046875;9;707;1,45811811089516E-07;-1,44246257841587E-07;100 nA
-0,6005859375;361,217126088014;-6,01806640625E-09;-0,598663330078125;9;708;1,45811811089516E-07;-1,44246257841587E-07;100 nA
-0,550537109375;361,717614086751;-5,0689697265625E-09;-0,548828125;9;709;1,45811811089516E-07;-1,44246257841587E-07;100 nA
-0,50048828125;362,218102085487;-4,193115234375E-09;-0,498931884765625;9;710;1,45811811089516E-07;-1,44246257841587E-07;100 nA
-0,450439453125;362,718590084224;-3,3172607421875E-09;-0,44903564453125;9;711;1,45811811089516E-07;-1,44246257841587E-07;100 nA
-0,400390625;363,21907808296;-2,4810791015625E-09;-0,399078369140625;9;712;1,45811811089516E-07;-1,44246257841587E-07;100 nA
-0,350341796875;363,719566081696;-1,6082763671875E-09;-0,3492431640625;9;713;1,45811811089516E-07;-1,44246257841587E-07;100 nA
-0,30029296875;364,220054080433;-7,232666015625E-10;-0,299285888671875;9;714;1,45811811089516E-07;-1,44246257841587E-07;100 nA
-0,250244140625;364,720542079169;2,13623046875E-11;-0,249359130859375;9;715;1,45811811089516E-07;-1,44246257841587E-07;100 nA
-0,2001953125;365,221030077906;7,598876953125E-10;-0,199462890625;9;716;1,45811811089516E-07;-1,44246257841587E-07;100 nA
-0,150146484375;365,721518076642;1,5716552734375E-09;-0,14959716796875;9;717;1,45811811089516E-07;-1,44246257841587E-07;100 nA
-0,10009765625;366,222006075378;2,3590087890625E-09;-0,09967041015625;9;718;1,45811811089516E-07;-1,44246257841587E-07;100 nA
-0,050048828125;366,722494074115;3,070068359375E-09;-0,049835205078125;9;719;1,45811811089516E-07;-1,44246257841587E-07;100 nA
0;367,222982072851;3,753662109375E-09;0,000152587890625;9;720;1,45811811089516E-07;-1,44246257841587E-07;100 nA
0,050048828125;367,723470071587;4,583740234375E-09;0,050079345703125;10;721;1,46558694541454E-07;-1,50902532041073E-07;100 nA
0,10009765625;368,223958070324;5,987548828125E-09;0,100128173828125;10;722;1,46558694541454E-07;-1,50902532041073E-07;100 nA
0,150146484375;368,72444606906;6,1279296875E-09;0,150115966796875;10;723;1,46558694541454E-07;-1,50902532041073E-07;100 nA
0,2001953125;369,224934067797;6,2957763671875E-09;0,200103759765625;10;724;1,46558694541454E-07;-1,50902532041073E-07;100 nA
0,250244140625;369,725422066533;6,5460205078125E-09;0,250091552734375;10;725;1,46558694541454E-07;-1,50902532041073E-07;100 nA
0,30029296875;370,225910065269;6,878662109375E-09;0,300079345703125;10;726;1,46558694541454E-07;-1,50902532041073E-07;100 nA
0,350341796875;370,726398064006;7,275390625E-09;0,35015869140625;10;727;1,46558694541454E-07;-1,50902532041073E-07;100 nA
0,400390625;371,226886062742;7,7178955078125E-09;0,400146484375;10;728;1,46558694541454E-07;-1,50902532041073E-07;100 nA
0,450439453125;371,727374061479;8,2916259765625E-09;0,45013427734375;10;729;1,46558694541454E-07;-1,50902532041073E-07;100 nA
0,50048828125;372,227862060215;8,7371826171875E-09;0,50018310546875;10;730;1,46558694541454E-07;-1,50902532041073E-07;100 nA
0,550537109375;372,728350058951;9,28955078125E-09;0,55010986328125;10;731;1,46558694541454E-07;-1,50902532041073E-07;100 nA
0,6005859375;373,228838057688;9,7991943359375E-09;0,60009765625;10;732;1,46558694541454E-07;-1,50902532041073E-07;100 nA
0,650634765625;373,729326056424;1,02569580078125E-08;0,650054931640625;10;733;1,46558694541454E-07;-1,50902532041073E-07;100 nA
0,70068359375;374,229814055161;1,06048583984375E-08;0,699981689453125;10;734;1,46558694541454E-07;-1,50902532041073E-07;100 nA
0,750732421875;374,730302053897;1,0845947265625E-08;0,74993896484375;10;735;1,46558694541454E-07;-1,50902532041073E-07;100 nA
0,80078125;375,230790052633;1,11175537109375E-08;0,79986572265625;10;736;1,46558694541454E-07;-1,50902532041073E-07;100 nA
0,850830078125;375,73127805137;1,142578125E-08;0,84991455078125;10;737;1,46558694541454E-07;-1,50902532041073E-07;100 nA
0,90087890625;376,231766050106;1,18896484375E-08;0,89996337890625;10;738;1,46558694541454E-07;-1,50902532041073E-07;100 nA
0,950927734375;376,732254048842;1,25885009765625E-08;0,95001220703125;10;739;1,46558694541454E-07;-1,50902532041073E-07;100 nA
1,0009765625;377,232742047579;1,34429931640625E-08;1,00006103515625;10;740;1,46558694541454E-07;-1,50902532041073E-07;100 nA
0,950927734375;377,733230046315;1,1865234375E-08;0,94970703125;10;741;1,46558694541454E-07;-1,50902532041073E-07;100 nA
0,90087890625;378,233718045052;1,08062744140625E-08;0,89996337890625;10;742;1,46558694541454E-07;-1,50902532041073E-07;100 nA
0,850830078125;378,734206043788;9,954833984375E-09;0,849609375;10;743;1,46558694541454E-07;-1,50902532041073E-07;100 nA
0,80078125;379,234694042524;9,2559814453125E-09;0,79986572265625;10;744;1,46558694541454E-07;-1,50902532041073E-07;100 nA
0,750732421875;379,735182041261;8,5540771484375E-09;0,7498779296875;10;745;1,46558694541454E-07;-1,50902532041073E-07;100 nA
0,70068359375;380,235670039997;7,8948974609375E-09;0,699981689453125;10;746;1,46558694541454E-07;-1,50902532041073E-07;100 nA
0,650634765625;380,736158038734;7,244873046875E-09;0,6500244140625;10;747;1,46558694541454E-07;-1,50902532041073E-07;100 nA
0,6005859375;381,23664603747;6,5948486328125E-09;0,600128173828125;10;748;1,46558694541454E-07;-1,50902532041073E-07;100 nA
0,550537109375;381,737134036206;5,950927734375E-09;0,5501708984375;10;749;1,46558694541454E-07;-1,50902532041073E-07;100 nA
0,50048828125;382,237622034943;5,328369140625E-09;0,500152587890625;10;750;1,46558694541454E-07;-1,50902532041073E-07;100 nA
0,450439453125;382,738110033679;4,7149658203125E-09;0,450103759765625;10;751;1,46558694541454E-07;-1,50902532041073E-07;100 nA
0,400390625;383,238598032416;4,0771484375E-09;0,40020751953125;10;752;1,46558694541454E-07;-1,50902532041073E-07;100 nA
0,350341796875;383,739086031152;3,369140625E-09;0,35015869140625;10;753;1,46558694541454E-07;-1,50902532041073E-07;100 nA
0,30029296875;384,239574029888;2,6611328125E-09;0,300079345703125;10;754;1,46558694541454E-07;-1,50902532041073E-07;100 nA
0,250244140625;384,740062028625;1,81884765625E-09;0,250091552734375;10;755;1,46558694541454E-07;-1,50902532041073E-07;100 nA
0,2001953125;385,240550027361;1,0040283203125E-09;0,200042724609375;10;756;1,46558694541454E-07;-1,50902532041073E-07;100 nA
0,150146484375;385,741038026098;4,2724609375E-11;0,150115966796875;10;757;1,46558694541454E-07;-1,50902532041073E-07;100 nA
0,10009765625;386,241526024834;-1,1810302734375E-09;0,10009765625;10;758;1,46558694541454E-07;-1,50902532041073E-07;100 nA
0,050048828125;386,74201402357;-4,30908203125E-09;0,050140380859375;10;759;1,46558694541454E-07;-1,50902532041073E-07;100 nA
0;387,242502022307;-6,75048828125E-09;0,000128173828124994;10;760;1,46558694541454E-07;-1,50902532041073E-07;100 nA
-0,050048828125;387,742990021043;-5,16357421875E-09;-0,0498046875;10;761;1,46558694541454E-07;-1,50902532041073E-07;100 nA
-0,10009765625;388,243478019779;-5,5755615234375E-09;-0,099700927734375;10;762;1,46558694541454E-07;-1,50902532041073E-07;100 nA
-0,150146484375;388,743966018516;-5,9539794921875E-09;-0,149627685546875;10;763;1,46558694541454E-07;-1,50902532041073E-07;100 nA
-0,2001953125;389,244454017252;-6,7779541015625E-09;-0,199462890625;10;764;1,46558694541454E-07;-1,50902532041073E-07;100 nA
-0,250244140625;389,744942015989;-7,53173828125E-09;-0,249359130859375;10;765;1,46558694541454E-07;-1,50902532041073E-07;100 nA
-0,30029296875;390,245430014725;-8,2489013671875E-09;-0,29925537109375;10;766;1,46558694541454E-07;-1,50902532041073E-07;100 nA
-0,350341796875;390,745918013461;-8,9813232421875E-09;-0,349212646484375;10;767;1,46558694541454E-07;-1,50902532041073E-07;100 nA
-0,400390625;391,246406012198;-9,3505859375E-09;-0,399078369140625;10;768;1,46558694541454E-07;-1,50902532041073E-07;100 nA
-0,450439453125;391,746894010934;-9,5611572265625E-09;-0,448944091796875;10;769;1,46558694541454E-07;-1,50902532041073E-07;100 nA
-0,50048828125;392,247382009671;-9,8480224609375E-09;-0,4989013671875;10;770;1,46558694541454E-07;-1,50902532041073E-07;100 nA
-0,550537109375;392,747870008407;-1,05682373046875E-08;-0,548797607421875;10;771;1,46558694541454E-07;-1,50902532041073E-07;100 nA
-0,6005859375;393,248358007143;-1,08367919921875E-08;-0,59869384765625;10;772;1,46558694541454E-07;-1,50902532041073E-07;100 nA
-0,650634765625;393,74884600588;-1,11846923828125E-08;-0,648590087890625;10;773;1,46558694541454E-07;-1,50902532041073E-07;100 nA
-0,70068359375;394,249334004616;-1,1444091796875E-08;-0,6986083984375;10;774;1,46558694541454E-07;-1,50902532041073E-07;100 nA
-0,750732421875;394,749822003353;-1,15142822265625E-08;-0,748626708984375;10;775;1,46558694541454E-07;-1,50902532041073E-07;100 nA
-0,80078125;395,250310002089;-1,19720458984375E-08;-0,79864501953125;10;776;1,46558694541454E-07;-1,50902532041073E-07;100 nA
-0,850830078125;395,750798000825;-1,2445068359375E-08;-0,84869384765625;10;777;1,46558694541454E-07;-1,50902532041073E-07;100 nA
-0,90087890625;396,251285999562;-1,2884521484375E-08;-0,89874267578125;10;778;1,46558694541454E-07;-1,50902532041073E-07;100 nA
-0,950927734375;396,751773998298;-1,36260986328125E-08;-0,94879150390625;10;779;1,46558694541454E-07;-1,50902532041073E-07;100 nA
-1,0009765625;397,252261997034;-1,4825439453125E-08;-0,99853515625;10;780;1,46558694541454E-07;-1,50902532041073E-07;100 nA
-0,950927734375;397,752749995771;-1,29302978515625E-08;-0,94879150390625;10;781;1,46558694541454E-07;-1,50902532041073E-07;100 nA
-0,90087890625;398,253237994507;-1,1614990234375E-08;-0,89874267578125;10;782;1,46558694541454E-07;-1,50902532041073E-07;100 nA
-0,850830078125;398,753725993244;-1,072998046875E-08;-0,84869384765625;10;783;1,46558694541454E-07;-1,50902532041073E-07;100 nA
-0,80078125;399,25421399198;-9,6923828125E-09;-0,7989501953125;10;784;1,46558694541454E-07;-1,50902532041073E-07;100 nA
-0,750732421875;399,754701990716;-8,721923828125E-09;-0,748626708984375;10;785;1,46558694541454E-07;-1,50902532041073E-07;100 nA
-0,70068359375;400,255189989453;-7,769775390625E-09;-0,6986083984375;10;786;1,46558694541454E-07;-1,50902532041073E-07;100 nA
-0,650634765625;400,755677988189;-6,9366455078125E-09;-0,64862060546875;10;787;1,46558694541454E-07;-1,50902532041073E-07;100 nA
-0,6005859375;401,256165986926;-5,950927734375E-09;-0,598663330078125;10;788;1,46558694541454E-07;-1,50902532041073E-07;100 nA
-0,550537109375;401,756653985662;-4,94384765625E-09;-0,548736572265625;10;789;1,46558694541454E-07;-1,50902532041073E-07;100 nA
-0,50048828125;402,257141984398;-4,1168212890625E-09;-0,49884033203125;10;790;1,46558694541454E-07;-1,50902532041073E-07;100 nA
-0,450439453125;402,757629983135;-3,2012939453125E-09;-0,44891357421875;10;791;1,46558694541454E-07;-1,50902532041073E-07;100 nA
-0,400390625;403,258117981871;-2,3345947265625E-09;-0,39910888671875;10;792;1,46558694541454E-07;-1,50902532041073E-07;100 nA
-0,350341796875;403,758605980608;-1,45263671875E-09;-0,3492431640625;10;793;1,46558694541454E-07;-1,50902532041073E-07;100 nA
-0,30029296875;404,259093979344;-5,79833984375E-10;-0,299224853515625;10;794;1,46558694541454E-07;-1,50902532041073E-07;100 nA
-0,250244140625;404,75958197808;1,28173828125E-10;-0,249359130859375;10;795;1,46558694541454E-07;-1,50902532041073E-07;100 nA
-0,2001953125;405,260069976817;9,307861328125E-10;-0,199462890625;10;796;1,46558694541454E-07;-1,50902532041073E-07;100 nA
-0,150146484375;405,760557975553;1,654052734375E-09;-0,149566650390625;10;797;1,46558694541454E-07;-1,50902532041073E-07;100 nA
-0,10009765625;406,261045974289;2,386474609375E-09;-0,0997314453125;10;798;1,46558694541454E-07;-1,50902532041073E-07;100 nA
-0,050048828125;406,761533973026;3,106689453125E-09;-0,0498046875;10;799;1,46558694541454E-07;-1,50902532041073E-07;100 nA
0;407,262021971762;3,7841796875E-09;0,000109863281249997;10;800;1,46558694541454E-07;-1,50902532041073E-07;100 nA
