Potential applied (V);Time (s);WE(1).Current (A);WE(1).Potential (V);Scan;Index;Q+;Q-;Current range
0,050048828125;7,36703998140001;6,170654296875E-09;0,050201416015625;1;1;4,20464836061001E-07;-4,62611056864262E-07;100 nA
0,10009765625;7,8675279801364;8,587646484375E-09;0,100067138671875;1;2;4,20464836061001E-07;-4,62611056864262E-07;100 nA
0,150146484375;8,36801597887279;1,043701171875E-08;0,15008544921875;1;3;4,20464836061001E-07;-4,62611056864262E-07;100 nA
0,2001953125;8,86850397760918;1,2445068359375E-08;0,200042724609375;1;4;4,20464836061001E-07;-4,62611056864262E-07;100 nA
0,250244140625;9,36899197634557;1,43798828125E-08;0,250030517578125;1;5;4,20464836061001E-07;-4,62611056864262E-07;100 nA
0,30029296875;9,86947997508196;1,6290283203125E-08;0,300048828125;1;6;4,20464836061001E-07;-4,62611056864262E-07;100 nA
0,350341796875;10,3699679738183;1,8194580078125E-08;0,35003662109375;1;7;4,20464836061001E-07;-4,62611056864262E-07;100 nA
0,400390625;10,8704559725547;2,01019287109375E-08;0,400054931640625;1;8;4,20464836061001E-07;-4,62611056864262E-07;100 nA
0,450439453125;11,3709439712911;2,19390869140625E-08;0,4500732421875;1;9;4,20464836061001E-07;-4,62611056864262E-07;100 nA
0,50048828125;11,8714319700275;2,37823486328125E-08;0,500091552734375;1;10;4,20464836061001E-07;-4,62611056864262E-07;100 nA
0,550537109375;12,3719199687639;2,53936767578125E-08;0,550079345703125;1;11;4,20464836061001E-07;-4,62611056864262E-07;100 nA
0,6005859375;12,8724079675003;2,65960693359375E-08;0,60003662109375;1;12;4,20464836061001E-07;-4,62611056864262E-07;100 nA
0,650634765625;13,3728959662367;2,7789306640625E-08;0,649993896484375;1;13;4,20464836061001E-07;-4,62611056864262E-07;100 nA
0,70068359375;13,8733839649731;2,9388427734375E-08;0,699920654296875;1;14;4,20464836061001E-07;-4,62611056864262E-07;100 nA
0,750732421875;14,3738719637095;3,1109619140625E-08;0,749786376953125;1;15;4,20464836061001E-07;-4,62611056864262E-07;100 nA
0,80078125;14,8743599624459;3,292236328125E-08;0,79925537109375;1;16;4,20464836061001E-07;-4,62611056864262E-07;100 nA
0,850830078125;15,3748479611822;3,50616455078125E-08;0,84991455078125;1;17;4,20464836061001E-07;-4,62611056864262E-07;100 nA
0,90087890625;15,8753359599186;3,7591552734375E-08;0,89996337890625;1;18;4,20464836061001E-07;-4,62611056864262E-07;100 nA
0,950927734375;16,375823958655;4,019775390625E-08;0,95001220703125;1;19;4,20464836061001E-07;-4,62611056864262E-07;100 nA
1,0009765625;16,8763119573914;4,29779052734375E-08;1,00006103515625;1;20;4,20464836061001E-07;-4,62611056864262E-07;100 nA
0,950927734375;17,3767999561278;3,79364013671875E-08;0,94970703125;1;21;4,20464836061001E-07;-4,62611056864262E-07;100 nA
0,90087890625;17,8772879548642;3,44146728515625E-08;0,89996337890625;1;22;4,20464836061001E-07;-4,62611056864262E-07;100 nA
0,850830078125;18,3777759536006;3,16497802734375E-08;0,8502197265625;1;23;4,20464836061001E-07;-4,62611056864262E-07;100 nA
0,80078125;18,878263952337;2,921142578125E-08;0,8001708984375;1;24;4,20464836061001E-07;-4,62611056864262E-07;100 nA
0,750732421875;19,3787519510734;2,7020263671875E-08;0,74981689453125;1;25;4,20464836061001E-07;-4,62611056864262E-07;100 nA
0,70068359375;19,8792399498097;2,490234375E-08;0,699920654296875;1;26;4,20464836061001E-07;-4,62611056864262E-07;100 nA
0,650634765625;20,3797279485461;2,2906494140625E-08;0,65008544921875;1;27;4,20464836061001E-07;-4,62611056864262E-07;100 nA
0,6005859375;20,8802159472825;2,08892822265625E-08;0,600006103515625;1;28;4,20464836061001E-07;-4,62611056864262E-07;100 nA
0,550537109375;21,3807039460189;1,89727783203125E-08;0,550079345703125;1;29;4,20464836061001E-07;-4,62611056864262E-07;100 nA
0,50048828125;21,8811919447553;1,69952392578125E-08;0,500030517578125;1;30;4,20464836061001E-07;-4,62611056864262E-07;100 nA
0,450439453125;22,3816799434917;1,5130615234375E-08;0,450103759765625;1;31;4,20464836061001E-07;-4,62611056864262E-07;100 nA
0,400390625;22,8821679422281;1,3250732421875E-08;0,400054931640625;1;32;4,20464836061001E-07;-4,62611056864262E-07;100 nA
0,350341796875;23,3826559409645;1,136474609375E-08;0,350128173828125;1;33;4,20464836061001E-07;-4,62611056864262E-07;100 nA
0,30029296875;23,8831439397009;9,381103515625E-09;0,300079345703125;1;34;4,20464836061001E-07;-4,62611056864262E-07;100 nA
0,250244140625;24,3836319384372;7,281494140625E-09;0,25006103515625;1;35;4,20464836061001E-07;-4,62611056864262E-07;100 nA
0,2001953125;24,8841199371736;4,9774169921875E-09;0,2000732421875;1;36;4,20464836061001E-07;-4,62611056864262E-07;100 nA
0,150146484375;25,38460793591;2,5604248046875E-09;0,15008544921875;1;37;4,20464836061001E-07;-4,62611056864262E-07;100 nA
0,10009765625;25,8850959346464;-7,01904296875E-11;0,10015869140625;1;38;4,20464836061001E-07;-4,62611056864262E-07;100 nA
0,050048828125;26,3855839333828;-3,80859375E-09;0,050140380859375;1;39;4,20464836061001E-07;-4,62611056864262E-07;100 nA
0;26,8860719321192;-1,168212890625E-08;0,0001678466796875;1;40;4,20464836061001E-07;-4,62611056864262E-07;100 nA
-0,050048828125;27,3865599308556;-1,4117431640625E-08;-0,049774169921875;1;41;4,20464836061001E-07;-4,62611056864262E-07;100 nA
-0,10009765625;27,887047929592;-1,2615966796875E-08;-0,099700927734375;1;42;4,20464836061001E-07;-4,62611056864262E-07;100 nA
-0,150146484375;28,3875359283284;-1,453857421875E-08;-0,14959716796875;1;43;4,20464836061001E-07;-4,62611056864262E-07;100 nA
-0,2001953125;28,8880239270648;-1,65618896484375E-08;-0,199493408203125;1;44;4,20464836061001E-07;-4,62611056864262E-07;100 nA
-0,250244140625;29,3885119258011;-1,8212890625E-08;-0,249359130859375;1;45;4,20464836061001E-07;-4,62611056864262E-07;100 nA
-0,30029296875;29,8889999245375;-2,00531005859375E-08;-0,29931640625;1;46;4,20464836061001E-07;-4,62611056864262E-07;100 nA
-0,350341796875;30,3894879232739;-2,22991943359375E-08;-0,349212646484375;1;47;4,20464836061001E-07;-4,62611056864262E-07;100 nA
-0,400390625;30,8899759220103;-2,46002197265625E-08;-0,3990478515625;1;48;4,20464836061001E-07;-4,62611056864262E-07;100 nA
-0,450439453125;31,3904639207467;-2,64923095703125E-08;-0,44891357421875;1;49;4,20464836061001E-07;-4,62611056864262E-07;100 nA
-0,50048828125;31,8909519194831;-2,79083251953125E-08;-0,4989013671875;1;50;4,20464836061001E-07;-4,62611056864262E-07;100 nA
-0,550537109375;32,3914399182195;-2,9229736328125E-08;-0,548736572265625;1;51;4,20464836061001E-07;-4,62611056864262E-07;100 nA
-0,6005859375;32,8919279169559;-3,076171875E-08;-0,598663330078125;1;52;4,20464836061001E-07;-4,62611056864262E-07;100 nA
-0,650634765625;33,3924159156923;-3,25897216796875E-08;-0,648529052734375;1;53;4,20464836061001E-07;-4,62611056864262E-07;100 nA
-0,70068359375;33,8929039144286;-3,4442138671875E-08;-0,698577880859375;1;54;4,20464836061001E-07;-4,62611056864262E-07;100 nA
-0,750732421875;34,393391913165;-3,6431884765625E-08;-0,748565673828125;1;55;4,20464836061001E-07;-4,62611056864262E-07;100 nA
-0,80078125;34,8938799119014;-3,85345458984375E-08;-0,7989501953125;1;56;4,20464836061001E-07;-4,62611056864262E-07;100 nA
-0,850830078125;35,3943679106378;-4,063720703125E-08;-0,848388671875;1;57;4,20464836061001E-07;-4,62611056864262E-07;100 nA
-0,90087890625;35,8948559093742;-4,2877197265625E-08;-0,8984375;1;58;4,20464836061001E-07;-4,62611056864262E-07;100 nA
-0,950927734375;36,3953439081106;-4,522705078125E-08;-0,948486328125;1;59;4,20464836061001E-07;-4,62611056864262E-07;100 nA
-1,0009765625;36,895831906847;-4,766845703125E-08;-0,99884033203125;1;60;4,20464836061001E-07;-4,62611056864262E-07;100 nA
-0,950927734375;37,3963199055834;-4,32220458984375E-08;-0,94879150390625;1;61;4,20464836061001E-07;-4,62611056864262E-07;100 nA
-0,90087890625;37,8968079043198;-3,948974609375E-08;-0,89813232421875;1;62;4,20464836061001E-07;-4,62611056864262E-07;100 nA
-0,850830078125;38,3972959030561;-3,602294921875E-08;-0,8489990234375;1;63;4,20464836061001E-07;-4,62611056864262E-07;100 nA
-0,80078125;38,8977839017925;-3,28582763671875E-08;-0,7989501953125;1;64;4,20464836061001E-07;-4,62611056864262E-07;100 nA
-0,750732421875;39,3982719005289;-2,98309326171875E-08;-0,748565673828125;1;65;4,20464836061001E-07;-4,62611056864262E-07;100 nA
-0,70068359375;39,8987598992653;-2,70416259765625E-08;-0,698516845703125;1;66;4,20464836061001E-07;-4,62611056864262E-07;100 nA
-0,650634765625;40,3992478980017;-2,4371337890625E-08;-0,6485595703125;1;67;4,20464836061001E-07;-4,62611056864262E-07;100 nA
-0,6005859375;40,8997358967381;-2,16522216796875E-08;-0,5986328125;1;68;4,20464836061001E-07;-4,62611056864262E-07;100 nA
-0,550537109375;41,4002238954745;-1,91558837890625E-08;-0,54876708984375;1;69;4,20464836061001E-07;-4,62611056864262E-07;100 nA
-0,50048828125;41,9007118942109;-1,66229248046875E-08;-0,49884033203125;1;70;4,20464836061001E-07;-4,62611056864262E-07;100 nA
-0,450439453125;42,4011998929473;-1,40106201171875E-08;-0,448974609375;1;71;4,20464836061001E-07;-4,62611056864262E-07;100 nA
-0,400390625;42,9016878916837;-1,11480712890625E-08;-0,39910888671875;1;72;4,20464836061001E-07;-4,62611056864262E-07;100 nA
-0,350341796875;43,40217589042;-8,319091796875E-09;-0,349212646484375;1;73;4,20464836061001E-07;-4,62611056864262E-07;100 nA
-0,30029296875;43,9026638891564;-5,7098388671875E-09;-0,299285888671875;1;74;4,20464836061001E-07;-4,62611056864262E-07;100 nA
-0,250244140625;44,4031518878928;-3,125E-09;-0,249359130859375;1;75;4,20464836061001E-07;-4,62611056864262E-07;100 nA
-0,2001953125;44,9036398866292;-3,7841796875E-10;-0,19952392578125;1;76;4,20464836061001E-07;-4,62611056864262E-07;100 nA
-0,150146484375;45,4041278853656;2,67333984375E-09;-0,149627685546875;1;77;4,20464836061001E-07;-4,62611056864262E-07;100 nA
-0,10009765625;45,904615884102;5,908203125E-09;-0,0997314453125;1;78;4,20464836061001E-07;-4,62611056864262E-07;100 nA
-0,050048828125;46,4051038828384;9,1156005859375E-09;-0,049896240234375;1;79;4,20464836061001E-07;-4,62611056864262E-07;100 nA
0;46,9055918815748;1,22100830078125E-08;0,000112915039062494;1;80;4,20464836061001E-07;-4,62611056864262E-07;100 nA
0,050048828125;47,4060798803112;1,54083251953125E-08;0,050048828125;2;81;4,62930276989937E-07;-4,60846945643425E-07;100 nA
0,10009765625;47,9065678790475;1,49444580078125E-08;0,10003662109375;2;82;4,62930276989937E-07;-4,60846945643425E-07;100 nA
0,150146484375;48,4070558777839;1,56829833984375E-08;0,15008544921875;2;83;4,62930276989937E-07;-4,60846945643425E-07;100 nA
0,2001953125;48,9075438765203;1,70166015625E-08;0,20001220703125;2;84;4,62930276989937E-07;-4,60846945643425E-07;100 nA
0,250244140625;49,4080318752567;1,85943603515625E-08;0,250091552734375;2;85;4,62930276989937E-07;-4,60846945643425E-07;100 nA
0,30029296875;49,9085198739931;2,0208740234375E-08;0,300048828125;2;86;4,62930276989937E-07;-4,60846945643425E-07;100 nA
0,350341796875;50,4090078727295;2,18963623046875E-08;0,35003662109375;2;87;4,62930276989937E-07;-4,60846945643425E-07;100 nA
0,400390625;50,9094958714659;2,37579345703125E-08;0,40008544921875;2;88;4,62930276989937E-07;-4,60846945643425E-07;100 nA
0,450439453125;51,4099838702023;2,5677490234375E-08;0,45001220703125;2;89;4,62930276989937E-07;-4,60846945643425E-07;100 nA
0,50048828125;51,9104718689387;2,76824951171875E-08;0,50006103515625;2;90;4,62930276989937E-07;-4,60846945643425E-07;100 nA
0,550537109375;52,410959867675;2,9754638671875E-08;0,550079345703125;2;91;4,62930276989937E-07;-4,60846945643425E-07;100 nA
0,6005859375;52,9114478664114;3,1866455078125E-08;0,600128173828125;2;92;4,62930276989937E-07;-4,60846945643425E-07;100 nA
0,650634765625;53,4119358651478;3,37982177734375E-08;0,649993896484375;2;93;4,62930276989937E-07;-4,60846945643425E-07;100 nA
0,70068359375;53,9124238638842;3,504638671875E-08;0,699920654296875;2;94;4,62930276989937E-07;-4,60846945643425E-07;100 nA
0,750732421875;54,4129118626206;3,61724853515625E-08;0,749786376953125;2;95;4,62930276989937E-07;-4,60846945643425E-07;100 nA
0,80078125;54,913399861357;3,702392578125E-08;0,79925537109375;2;96;4,62930276989937E-07;-4,60846945643425E-07;100 nA
0,850830078125;55,4138878600934;3,72955322265625E-08;0,84991455078125;2;97;4,62930276989937E-07;-4,60846945643425E-07;100 nA
0,90087890625;55,9143758588298;3,8482666015625E-08;0,89935302734375;2;98;4,62930276989937E-07;-4,60846945643425E-07;100 nA
0,950927734375;56,4148638575662;4,056396484375E-08;0,94940185546875;2;99;4,62930276989937E-07;-4,60846945643425E-07;100 nA
1,0009765625;56,9153518563026;4,2950439453125E-08;0,999755859375;2;100;4,62930276989937E-07;-4,60846945643425E-07;100 nA
0,950927734375;57,4158398550389;3,800048828125E-08;0,9490966796875;2;101;4,62930276989937E-07;-4,60846945643425E-07;100 nA
0,90087890625;57,9163278537753;3,45733642578125E-08;0,89935302734375;2;102;4,62930276989937E-07;-4,60846945643425E-07;100 nA
0,850830078125;58,4168158525117;3,18206787109375E-08;0,849609375;2;103;4,62930276989937E-07;-4,60846945643425E-07;100 nA
0,80078125;58,9173038512481;2,94342041015625E-08;0,79986572265625;2;104;4,62930276989937E-07;-4,60846945643425E-07;100 nA
0,750732421875;59,4177918499845;2,72216796875E-08;0,749786376953125;2;105;4,62930276989937E-07;-4,60846945643425E-07;100 nA
0,70068359375;59,9182798487209;2,5128173828125E-08;0,699920654296875;2;106;4,62930276989937E-07;-4,60846945643425E-07;100 nA
0,650634765625;60,4187678474573;2,30438232421875E-08;0,64996337890625;2;107;4,62930276989937E-07;-4,60846945643425E-07;100 nA
0,6005859375;60,9192558461937;2,0977783203125E-08;0,600067138671875;2;108;4,62930276989937E-07;-4,60846945643425E-07;100 nA
0,550537109375;61,4197438449301;1,89910888671875E-08;0,55010986328125;2;109;4,62930276989937E-07;-4,60846945643425E-07;100 nA
0,50048828125;61,9202318436664;1,70684814453125E-08;0,500091552734375;2;110;4,62930276989937E-07;-4,60846945643425E-07;100 nA
0,450439453125;62,4207198424028;1,5191650390625E-08;0,4500732421875;2;111;4,62930276989937E-07;-4,60846945643425E-07;100 nA
0,400390625;62,9212078411392;1,33575439453125E-08;0,40008544921875;2;112;4,62930276989937E-07;-4,60846945643425E-07;100 nA
0,350341796875;63,4216958398756;1,1431884765625E-08;0,350128173828125;2;113;4,62930276989937E-07;-4,60846945643425E-07;100 nA
0,30029296875;63,922183838612;9,466552734375E-09;0,300018310546875;2;114;4,62930276989937E-07;-4,60846945643425E-07;100 nA
0,250244140625;64,4226718373484;7,3577880859375E-09;0,25006103515625;2;115;4,62930276989937E-07;-4,60846945643425E-07;100 nA
0,2001953125;64,9231598360848;5,0506591796875E-09;0,200042724609375;2;116;4,62930276989937E-07;-4,60846945643425E-07;100 nA
0,150146484375;65,4236478348212;2,618408203125E-09;0,150115966796875;2;117;4,62930276989937E-07;-4,60846945643425E-07;100 nA
0,10009765625;65,9241358335576;-7,32421875E-11;0,100128173828125;2;118;4,62930276989937E-07;-4,60846945643425E-07;100 nA
0,050048828125;66,4246238322939;-4,01611328125E-09;0,050079345703125;2;119;4,62930276989937E-07;-4,60846945643425E-07;100 nA
0;66,9251118310303;-1,2786865234375E-08;0,000128173828124994;2;120;4,62930276989937E-07;-4,60846945643425E-07;100 nA
-0,050048828125;67,4255998297667;-1,4776611328125E-08;-0,049774169921875;2;121;4,62930276989937E-07;-4,60846945643425E-07;100 nA
-0,10009765625;67,9260878285031;-1,32354736328125E-08;-0,099700927734375;2;122;4,62930276989937E-07;-4,60846945643425E-07;100 nA
-0,150146484375;68,4265758272395;-1,50543212890625E-08;-0,1495361328125;2;123;4,62930276989937E-07;-4,60846945643425E-07;100 nA
-0,2001953125;68,9270638259759;-1,666259765625E-08;-0,199462890625;2;124;4,62930276989937E-07;-4,60846945643425E-07;100 nA
-0,250244140625;69,4275518247123;-1,80999755859375E-08;-0,249359130859375;2;125;4,62930276989937E-07;-4,60846945643425E-07;100 nA
-0,30029296875;69,9280398234487;-1,98089599609375E-08;-0,29925537109375;2;126;4,62930276989937E-07;-4,60846945643425E-07;100 nA
-0,350341796875;70,4285278221851;-2,198486328125E-08;-0,34918212890625;2;127;4,62930276989937E-07;-4,60846945643425E-07;100 nA
-0,400390625;70,9290158209215;-2,42401123046875E-08;-0,3990478515625;2;128;4,62930276989937E-07;-4,60846945643425E-07;100 nA
-0,450439453125;71,4295038196578;-2,6116943359375E-08;-0,448944091796875;2;129;4,62930276989937E-07;-4,60846945643425E-07;100 nA
-0,50048828125;71,9299918183942;-2,75360107421875E-08;-0,498809814453125;2;130;4,62930276989937E-07;-4,60846945643425E-07;100 nA
-0,550537109375;72,4304798171306;-2,8887939453125E-08;-0,548797607421875;2;131;4,62930276989937E-07;-4,60846945643425E-07;100 nA
-0,6005859375;72,930967815867;-3,055419921875E-08;-0,598663330078125;2;132;4,62930276989937E-07;-4,60846945643425E-07;100 nA
-0,650634765625;73,4314558146034;-3,2354736328125E-08;-0,648590087890625;2;133;4,62930276989937E-07;-4,60846945643425E-07;100 nA
-0,70068359375;73,9319438133398;-3,426513671875E-08;-0,69854736328125;2;134;4,62930276989937E-07;-4,60846945643425E-07;100 nA
-0,750732421875;74,4324318120762;-3,62762451171875E-08;-0,748565673828125;2;135;4,62930276989937E-07;-4,60846945643425E-07;100 nA
-0,80078125;74,9329198108126;-3,834228515625E-08;-0,7989501953125;2;136;4,62930276989937E-07;-4,60846945643425E-07;100 nA
-0,850830078125;75,433407809549;-4,046630859375E-08;-0,848388671875;2;137;4,62930276989937E-07;-4,60846945643425E-07;100 nA
-0,90087890625;75,9338958082853;-4,26055908203125E-08;-0,89813232421875;2;138;4,62930276989937E-07;-4,60846945643425E-07;100 nA
-0,950927734375;76,4343838070217;-4,4921875E-08;-0,94879150390625;2;139;4,62930276989937E-07;-4,60846945643425E-07;100 nA
-1,0009765625;76,9348718057581;-4,72412109375E-08;-0,99853515625;2;140;4,62930276989937E-07;-4,60846945643425E-07;100 nA
-0,950927734375;77,4353598044945;-4,293212890625E-08;-0,94879150390625;2;141;4,62930276989937E-07;-4,60846945643425E-07;100 nA
-0,90087890625;77,9358478032309;-3,9141845703125E-08;-0,8990478515625;2;142;4,62930276989937E-07;-4,60846945643425E-07;100 nA
-0,850830078125;78,4363358019673;-3,57147216796875E-08;-0,84869384765625;2;143;4,62930276989937E-07;-4,60846945643425E-07;100 nA
-0,80078125;78,9368238007037;-3,258056640625E-08;-0,79833984375;2;144;4,62930276989937E-07;-4,60846945643425E-07;100 nA
-0,750732421875;79,4373117994401;-2,95654296875E-08;-0,74859619140625;2;145;4,62930276989937E-07;-4,60846945643425E-07;100 nA
-0,70068359375;79,9377997981765;-2,6727294921875E-08;-0,698516845703125;2;146;4,62930276989937E-07;-4,60846945643425E-07;100 nA
-0,650634765625;80,4382877969128;-2,41790771484375E-08;-0,648590087890625;2;147;4,62930276989937E-07;-4,60846945643425E-07;100 nA
-0,6005859375;80,9387757956492;-2,156982421875E-08;-0,598663330078125;2;148;4,62930276989937E-07;-4,60846945643425E-07;100 nA
-0,550537109375;81,4392637943856;-1,9061279296875E-08;-0,54876708984375;2;149;4,62930276989937E-07;-4,60846945643425E-07;100 nA
-0,50048828125;81,939751793122;-1,6546630859375E-08;-0,498809814453125;2;150;4,62930276989937E-07;-4,60846945643425E-07;100 nA
-0,450439453125;82,4402397918584;-1,39129638671875E-08;-0,448974609375;2;151;4,62930276989937E-07;-4,60846945643425E-07;100 nA
-0,400390625;82,9407277905948;-1,11053466796875E-08;-0,39910888671875;2;152;4,62930276989937E-07;-4,60846945643425E-07;100 nA
-0,350341796875;83,4412157893312;-8,2672119140625E-09;-0,34918212890625;2;153;4,62930276989937E-07;-4,60846945643425E-07;100 nA
-0,30029296875;83,9417037880676;-5,7159423828125E-09;-0,29931640625;2;154;4,62930276989937E-07;-4,60846945643425E-07;100 nA
-0,250244140625;84,442191786804;-3,106689453125E-09;-0,249420166015625;2;155;4,62930276989937E-07;-4,60846945643425E-07;100 nA
-0,2001953125;84,9426797855403;-3,60107421875E-10;-0,199493408203125;2;156;4,62930276989937E-07;-4,60846945643425E-07;100 nA
-0,150146484375;85,4431677842767;2,8167724609375E-09;-0,149658203125;2;157;4,62930276989937E-07;-4,60846945643425E-07;100 nA
-0,10009765625;85,9436557830131;6,0150146484375E-09;-0,099700927734375;2;158;4,62930276989937E-07;-4,60846945643425E-07;100 nA
-0,050048828125;86,4441437817495;9,2376708984375E-09;-0,049774169921875;2;159;4,62930276989937E-07;-4,60846945643425E-07;100 nA
0;86,9446317804859;1,23291015625E-08;0,000112915039062494;2;160;4,62930276989937E-07;-4,60846945643425E-07;100 nA
0,050048828125;87,4451197792223;1,57318115234375E-08;0,05010986328125;3;161;4,62753102183342E-07;-4,60223779082298E-07;100 nA
0,10009765625;87,9456077779587;1,5130615234375E-08;0,100067138671875;3;162;4,62753102183342E-07;-4,60223779082298E-07;100 nA
0,150146484375;88,4460957766951;1,575927734375E-08;0,1500244140625;3;163;4,62753102183342E-07;-4,60223779082298E-07;100 nA
0,2001953125;88,9465837754315;1,7059326171875E-08;0,20001220703125;3;164;4,62753102183342E-07;-4,60223779082298E-07;100 nA
0,250244140625;89,4470717741679;1,8597412109375E-08;0,249969482421875;3;165;4,62753102183342E-07;-4,60223779082298E-07;100 nA
0,30029296875;89,9475597729042;2,0269775390625E-08;0,300079345703125;3;166;4,62753102183342E-07;-4,60223779082298E-07;100 nA
0,350341796875;90,4480477716406;2,19451904296875E-08;0,350067138671875;3;167;4,62753102183342E-07;-4,60223779082298E-07;100 nA
0,400390625;90,948535770377;2,37396240234375E-08;0,400054931640625;3;168;4,62753102183342E-07;-4,60223779082298E-07;100 nA
0,450439453125;91,4490237691134;2,56500244140625E-08;0,450042724609375;3;169;4,62753102183342E-07;-4,60223779082298E-07;100 nA
0,50048828125;91,9495117678498;2,78106689453125E-08;0,50006103515625;3;170;4,62753102183342E-07;-4,60223779082298E-07;100 nA
0,550537109375;92,4499997665862;2,977294921875E-08;0,55010986328125;3;171;4,62753102183342E-07;-4,60223779082298E-07;100 nA
0,6005859375;92,9504877653226;3,1817626953125E-08;0,600067138671875;3;172;4,62753102183342E-07;-4,60223779082298E-07;100 nA
0,650634765625;93,450975764059;3,37615966796875E-08;0,649993896484375;3;173;4,62753102183342E-07;-4,60223779082298E-07;100 nA
0,70068359375;93,9514637627954;3,51043701171875E-08;0,699859619140625;3;174;4,62753102183342E-07;-4,60223779082298E-07;100 nA
0,750732421875;94,4519517615317;3,61907958984375E-08;0,74981689453125;3;175;4,62753102183342E-07;-4,60223779082298E-07;100 nA
0,80078125;94,9524397602681;3,69598388671875E-08;0,799560546875;3;176;4,62753102183342E-07;-4,60223779082298E-07;100 nA
0,850830078125;95,4529277590045;3,71490478515625E-08;0,849609375;3;177;4,62753102183342E-07;-4,60223779082298E-07;100 nA
0,90087890625;95,9534157577409;3,8323974609375E-08;0,9002685546875;3;178;4,62753102183342E-07;-4,60223779082298E-07;100 nA
0,950927734375;96,4539037564773;4,02740478515625E-08;0,95001220703125;3;179;4,62753102183342E-07;-4,60223779082298E-07;100 nA
1,0009765625;96,9543917552137;4,26513671875E-08;0,99945068359375;3;180;4,62753102183342E-07;-4,60223779082298E-07;100 nA
0,950927734375;97,4548797539501;3,787841796875E-08;0,94940185546875;3;181;4,62753102183342E-07;-4,60223779082298E-07;100 nA
0,90087890625;97,9553677526865;3,44512939453125E-08;0,89996337890625;3;182;4,62753102183342E-07;-4,60223779082298E-07;100 nA
0,850830078125;98,4558557514229;3,1805419921875E-08;0,84991455078125;3;183;4,62753102183342E-07;-4,60223779082298E-07;100 nA
0,80078125;98,9563437501592;2,935791015625E-08;0,79986572265625;3;184;4,62753102183342E-07;-4,60223779082298E-07;100 nA
0,750732421875;99,4568317488956;2,71148681640625E-08;0,749786376953125;3;185;4,62753102183342E-07;-4,60223779082298E-07;100 nA
0,70068359375;99,957319747632;2,49908447265625E-08;0,699859619140625;3;186;4,62753102183342E-07;-4,60223779082298E-07;100 nA
0,650634765625;100,457807746368;2,29888916015625E-08;0,6500244140625;3;187;4,62753102183342E-07;-4,60223779082298E-07;100 nA
0,6005859375;100,958295745105;2,1002197265625E-08;0,600128173828125;3;188;4,62753102183342E-07;-4,60223779082298E-07;100 nA
0,550537109375;101,458783743841;1,89697265625E-08;0,550079345703125;3;189;4,62753102183342E-07;-4,60223779082298E-07;100 nA
0,50048828125;101,959271742578;1,7108154296875E-08;0,50006103515625;3;190;4,62753102183342E-07;-4,60223779082298E-07;100 nA
0,450439453125;102,459759741314;1,52496337890625E-08;0,4500732421875;3;191;4,62753102183342E-07;-4,60223779082298E-07;100 nA
0,400390625;102,96024774005;1,34002685546875E-08;0,400146484375;3;192;4,62753102183342E-07;-4,60223779082298E-07;100 nA
0,350341796875;103,460735738787;1,1578369140625E-08;0,35009765625;3;193;4,62753102183342E-07;-4,60223779082298E-07;100 nA
0,30029296875;103,961223737523;9,4696044921875E-09;0,30010986328125;3;194;4,62753102183342E-07;-4,60223779082298E-07;100 nA
0,250244140625;104,46171173626;7,391357421875E-09;0,250030517578125;3;195;4,62753102183342E-07;-4,60223779082298E-07;100 nA
0,2001953125;104,962199734996;5,16357421875E-09;0,200103759765625;3;196;4,62753102183342E-07;-4,60223779082298E-07;100 nA
0,150146484375;105,462687733732;2,5390625E-09;0,150054931640625;3;197;4,62753102183342E-07;-4,60223779082298E-07;100 nA
0,10009765625;105,963175732469;-8,23974609375E-11;0,100128173828125;3;198;4,62753102183342E-07;-4,60223779082298E-07;100 nA
0,050048828125;106,463663731205;-4,06494140625E-09;0,050079345703125;3;199;4,62753102183342E-07;-4,60223779082298E-07;100 nA
0;106,964151729941;-1,29974365234375E-08;0,000134277343750003;3;200;4,62753102183342E-07;-4,60223779082298E-07;100 nA
-0,050048828125;107,464639728678;-1,46942138671875E-08;-0,049774169921875;3;201;4,62753102183342E-07;-4,60223779082298E-07;100 nA
-0,10009765625;107,965127727414;-1,32293701171875E-08;-0,09967041015625;3;202;4,62753102183342E-07;-4,60223779082298E-07;100 nA
-0,150146484375;108,465615726151;-1,50970458984375E-08;-0,1495361328125;3;203;4,62753102183342E-07;-4,60223779082298E-07;100 nA
-0,2001953125;108,966103724887;-1,6717529296875E-08;-0,199432373046875;3;204;4,62753102183342E-07;-4,60223779082298E-07;100 nA
-0,250244140625;109,466591723623;-1,8084716796875E-08;-0,24932861328125;3;205;4,62753102183342E-07;-4,60223779082298E-07;100 nA
-0,30029296875;109,96707972236;-1,978759765625E-08;-0,299224853515625;3;206;4,62753102183342E-07;-4,60223779082298E-07;100 nA
-0,350341796875;110,467567721096;-2,19451904296875E-08;-0,34912109375;3;207;4,62753102183342E-07;-4,60223779082298E-07;100 nA
-0,400390625;110,968055719833;-2,41363525390625E-08;-0,399078369140625;3;208;4,62753102183342E-07;-4,60223779082298E-07;100 nA
-0,450439453125;111,468543718569;-2,6043701171875E-08;-0,44891357421875;3;209;4,62753102183342E-07;-4,60223779082298E-07;100 nA
-0,50048828125;111,969031717305;-2,750244140625E-08;-0,498809814453125;3;210;4,62753102183342E-07;-4,60223779082298E-07;100 nA
-0,550537109375;112,469519716042;-2,88848876953125E-08;-0,54876708984375;3;211;4,62753102183342E-07;-4,60223779082298E-07;100 nA
-0,6005859375;112,970007714778;-3,050537109375E-08;-0,5986328125;3;212;4,62753102183342E-07;-4,60223779082298E-07;100 nA
-0,650634765625;113,470495713515;-3,22662353515625E-08;-0,648529052734375;3;213;4,62753102183342E-07;-4,60223779082298E-07;100 nA
-0,70068359375;113,970983712251;-3,42376708984375E-08;-0,69854736328125;3;214;4,62753102183342E-07;-4,60223779082298E-07;100 nA
-0,750732421875;114,471471710987;-3,6212158203125E-08;-0,748565673828125;3;215;4,62753102183342E-07;-4,60223779082298E-07;100 nA
-0,80078125;114,971959709724;-3,82537841796875E-08;-0,79833984375;3;216;4,62753102183342E-07;-4,60223779082298E-07;100 nA
-0,850830078125;115,47244770846;-4,03839111328125E-08;-0,8489990234375;3;217;4,62753102183342E-07;-4,60223779082298E-07;100 nA
-0,90087890625;115,972935707196;-4,2681884765625E-08;-0,89813232421875;3;218;4,62753102183342E-07;-4,60223779082298E-07;100 nA
-0,950927734375;116,473423705933;-4,486083984375E-08;-0,9490966796875;3;219;4,62753102183342E-07;-4,60223779082298E-07;100 nA
-1,0009765625;116,973911704669;-4,718017578125E-08;-0,99884033203125;3;220;4,62753102183342E-07;-4,60223779082298E-07;100 nA
-0,950927734375;117,474399703406;-4,287109375E-08;-0,94879150390625;3;221;4,62753102183342E-07;-4,60223779082298E-07;100 nA
-0,90087890625;117,974887702142;-3,917236328125E-08;-0,89874267578125;3;222;4,62753102183342E-07;-4,60223779082298E-07;100 nA
-0,850830078125;118,475375700878;-3,56903076171875E-08;-0,8489990234375;3;223;4,62753102183342E-07;-4,60223779082298E-07;100 nA
-0,80078125;118,975863699615;-3,250732421875E-08;-0,79803466796875;3;224;4,62753102183342E-07;-4,60223779082298E-07;100 nA
-0,750732421875;119,476351698351;-2,94769287109375E-08;-0,74853515625;3;225;4,62753102183342E-07;-4,60223779082298E-07;100 nA
-0,70068359375;119,976839697088;-2,669677734375E-08;-0,69854736328125;3;226;4,62753102183342E-07;-4,60223779082298E-07;100 nA
-0,650634765625;120,477327695824;-2,40386962890625E-08;-0,6485595703125;3;227;4,62753102183342E-07;-4,60223779082298E-07;100 nA
-0,6005859375;120,97781569456;-2,1429443359375E-08;-0,598663330078125;3;228;4,62753102183342E-07;-4,60223779082298E-07;100 nA
-0,550537109375;121,478303693297;-1,89849853515625E-08;-0,548736572265625;3;229;4,62753102183342E-07;-4,60223779082298E-07;100 nA
-0,50048828125;121,978791692033;-1,65313720703125E-08;-0,498870849609375;3;230;4,62753102183342E-07;-4,60223779082298E-07;100 nA
-0,450439453125;122,47927969077;-1,38885498046875E-08;-0,449005126953125;3;231;4,62753102183342E-07;-4,60223779082298E-07;100 nA
-0,400390625;122,979767689506;-1,107177734375E-08;-0,399078369140625;3;232;4,62753102183342E-07;-4,60223779082298E-07;100 nA
-0,350341796875;123,480255688242;-8,2855224609375E-09;-0,3492431640625;3;233;4,62753102183342E-07;-4,60223779082298E-07;100 nA
-0,30029296875;123,980743686979;-5,731201171875E-09;-0,29925537109375;3;234;4,62753102183342E-07;-4,60223779082298E-07;100 nA
-0,250244140625;124,481231685715;-3,0914306640625E-09;-0,249267578125;3;235;4,62753102183342E-07;-4,60223779082298E-07;100 nA
-0,2001953125;124,981719684451;-2,3193359375E-10;-0,199493408203125;3;236;4,62753102183342E-07;-4,60223779082298E-07;100 nA
-0,150146484375;125,482207683188;2,8167724609375E-09;-0,149627685546875;3;237;4,62753102183342E-07;-4,60223779082298E-07;100 nA
-0,10009765625;125,982695681924;6,0302734375E-09;-0,099700927734375;3;238;4,62753102183342E-07;-4,60223779082298E-07;100 nA
-0,050048828125;126,483183680661;9,2132568359375E-09;-0,0498046875;3;239;4,62753102183342E-07;-4,60223779082298E-07;100 nA
0;126,983671679397;1,2384033203125E-08;0,000131225585937506;3;240;4,62753102183342E-07;-4,60223779082298E-07;100 nA
0,050048828125;127,484159678133;1,59393310546875E-08;0,050018310546875;4;241;4,63047884404659E-07;-4,59936633706093E-07;100 nA
0,10009765625;127,98464767687;1,52374267578125E-08;0,100067138671875;4;242;4,63047884404659E-07;-4,59936633706093E-07;100 nA
0,150146484375;128,485135675606;1,58416748046875E-08;0,150054931640625;4;243;4,63047884404659E-07;-4,59936633706093E-07;100 nA
0,2001953125;128,985623674343;1,715087890625E-08;0,2000732421875;4;244;4,63047884404659E-07;-4,59936633706093E-07;100 nA
0,250244140625;129,486111673079;1,86767578125E-08;0,25006103515625;4;245;4,63047884404659E-07;-4,59936633706093E-07;100 nA
0,30029296875;129,986599671815;2,0318603515625E-08;0,29998779296875;4;246;4,63047884404659E-07;-4,59936633706093E-07;100 nA
0,350341796875;130,487087670552;2,19329833984375E-08;0,350067138671875;4;247;4,63047884404659E-07;-4,59936633706093E-07;100 nA
0,400390625;130,987575669288;2,37579345703125E-08;0,400115966796875;4;248;4,63047884404659E-07;-4,59936633706093E-07;100 nA
0,450439453125;131,488063668025;2,55859375E-08;0,450042724609375;4;249;4,63047884404659E-07;-4,59936633706093E-07;100 nA
0,50048828125;131,988551666761;2,76763916015625E-08;0,50006103515625;4;250;4,63047884404659E-07;-4,59936633706093E-07;100 nA
0,550537109375;132,489039665497;2,97637939453125E-08;0,550018310546875;4;251;4,63047884404659E-07;-4,59936633706093E-07;100 nA
0,6005859375;132,989527664234;3,1787109375E-08;0,600067138671875;4;252;4,63047884404659E-07;-4,59936633706093E-07;100 nA
0,650634765625;133,49001566297;3,37493896484375E-08;0,649993896484375;4;253;4,63047884404659E-07;-4,59936633706093E-07;100 nA
0,70068359375;133,990503661707;3,502197265625E-08;0,69989013671875;4;254;4,63047884404659E-07;-4,59936633706093E-07;100 nA
0,750732421875;134,490991660443;3,61358642578125E-08;0,74981689453125;4;255;4,63047884404659E-07;-4,59936633706093E-07;100 nA
0,80078125;134,991479659179;3,68072509765625E-08;0,79986572265625;4;256;4,63047884404659E-07;-4,59936633706093E-07;100 nA
0,850830078125;135,491967657916;3,701171875E-08;0,8502197265625;4;257;4,63047884404659E-07;-4,59936633706093E-07;100 nA
0,90087890625;135,992455656652;3,818359375E-08;0,8990478515625;4;258;4,63047884404659E-07;-4,59936633706093E-07;100 nA
0,950927734375;136,492943655388;4,0057373046875E-08;0,94940185546875;4;259;4,63047884404659E-07;-4,59936633706093E-07;100 nA
1,0009765625;136,993431654125;4,24591064453125E-08;0,99945068359375;4;260;4,63047884404659E-07;-4,59936633706093E-07;100 nA
0,950927734375;137,493919652861;3,77716064453125E-08;0,94970703125;4;261;4,63047884404659E-07;-4,59936633706093E-07;100 nA
0,90087890625;137,994407651598;3,4393310546875E-08;0,899658203125;4;262;4,63047884404659E-07;-4,59936633706093E-07;100 nA
0,850830078125;138,494895650334;3,1817626953125E-08;0,849609375;4;263;4,63047884404659E-07;-4,59936633706093E-07;100 nA
0,80078125;138,99538364907;2,943115234375E-08;0,8001708984375;4;264;4,63047884404659E-07;-4,59936633706093E-07;100 nA
0,750732421875;139,495871647807;2,72613525390625E-08;0,749847412109375;4;265;4,63047884404659E-07;-4,59936633706093E-07;100 nA
0,70068359375;139,996359646543;2,5164794921875E-08;0,699920654296875;4;266;4,63047884404659E-07;-4,59936633706093E-07;100 nA
0,650634765625;140,49684764528;2,3077392578125E-08;0,649993896484375;4;267;4,63047884404659E-07;-4,59936633706093E-07;100 nA
0,6005859375;140,997335644016;2,10357666015625E-08;0,60009765625;4;268;4,63047884404659E-07;-4,59936633706093E-07;100 nA
0,550537109375;141,497823642752;1,907958984375E-08;0,55010986328125;4;269;4,63047884404659E-07;-4,59936633706093E-07;100 nA
0,50048828125;141,998311641489;1,71722412109375E-08;0,500091552734375;4;270;4,63047884404659E-07;-4,59936633706093E-07;100 nA
0,450439453125;142,498799640225;1,53167724609375E-08;0,4500732421875;4;271;4,63047884404659E-07;-4,59936633706093E-07;100 nA
0,400390625;142,999287638962;1,34552001953125E-08;0,40008544921875;4;272;4,63047884404659E-07;-4,59936633706093E-07;100 nA
0,350341796875;143,499775637698;1,14990234375E-08;0,35003662109375;4;273;4,63047884404659E-07;-4,59936633706093E-07;100 nA
0,30029296875;144,000263636434;9,5550537109375E-09;0,300048828125;4;274;4,63047884404659E-07;-4,59936633706093E-07;100 nA
0,250244140625;144,500751635171;7,421875E-09;0,250030517578125;4;275;4,63047884404659E-07;-4,59936633706093E-07;100 nA
0,2001953125;145,001239633907;5,145263671875E-09;0,20013427734375;4;276;4,63047884404659E-07;-4,59936633706093E-07;100 nA
0,150146484375;145,501727632643;2,6702880859375E-09;0,15008544921875;4;277;4,63047884404659E-07;-4,59936633706093E-07;100 nA
0,10009765625;146,00221563138;-4,2724609375E-11;0,100128173828125;4;278;4,63047884404659E-07;-4,59936633706093E-07;100 nA
0,050048828125;146,502703630116;-4,107666015625E-09;0,050048828125;4;279;4,63047884404659E-07;-4,59936633706093E-07;100 nA
0;147,003191628853;-1,31317138671875E-08;0,0001373291015625;4;280;4,63047884404659E-07;-4,59936633706093E-07;100 nA
-0,050048828125;147,503679627589;-1,475830078125E-08;-0,04986572265625;4;281;4,63047884404659E-07;-4,59936633706093E-07;100 nA
-0,10009765625;148,004167626325;-1,32598876953125E-08;-0,099639892578125;4;282;4,63047884404659E-07;-4,59936633706093E-07;100 nA
-0,150146484375;148,504655625062;-1,51519775390625E-08;-0,1495361328125;4;283;4,63047884404659E-07;-4,59936633706093E-07;100 nA
-0,2001953125;149,005143623798;-1,67724609375E-08;-0,199432373046875;4;284;4,63047884404659E-07;-4,59936633706093E-07;100 nA
-0,250244140625;149,505631622535;-1,81976318359375E-08;-0,249298095703125;4;285;4,63047884404659E-07;-4,59936633706093E-07;100 nA
-0,30029296875;150,006119621271;-1,9854736328125E-08;-0,299224853515625;4;286;4,63047884404659E-07;-4,59936633706093E-07;100 nA
-0,350341796875;150,506607620007;-2,18963623046875E-08;-0,349212646484375;4;287;4,63047884404659E-07;-4,59936633706093E-07;100 nA
-0,400390625;151,007095618744;-2,412109375E-08;-0,399078369140625;4;288;4,63047884404659E-07;-4,59936633706093E-07;100 nA
-0,450439453125;151,50758361748;-2,6055908203125E-08;-0,448944091796875;4;289;4,63047884404659E-07;-4,59936633706093E-07;100 nA
-0,50048828125;152,008071616217;-2,752685546875E-08;-0,498809814453125;4;290;4,63047884404659E-07;-4,59936633706093E-07;100 nA
-0,550537109375;152,508559614953;-2,8851318359375E-08;-0,54876708984375;4;291;4,63047884404659E-07;-4,59936633706093E-07;100 nA
-0,6005859375;153,009047613689;-3,05084228515625E-08;-0,598663330078125;4;292;4,63047884404659E-07;-4,59936633706093E-07;100 nA
-0,650634765625;153,509535612426;-3,23211669921875E-08;-0,64862060546875;4;293;4,63047884404659E-07;-4,59936633706093E-07;100 nA
-0,70068359375;154,010023611162;-3,4185791015625E-08;-0,69854736328125;4;294;4,63047884404659E-07;-4,59936633706093E-07;100 nA
-0,750732421875;154,510511609898;-3,62457275390625E-08;-0,74853515625;4;295;4,63047884404659E-07;-4,59936633706093E-07;100 nA
-0,80078125;155,010999608635;-3,82598876953125E-08;-0,7989501953125;4;296;4,63047884404659E-07;-4,59936633706093E-07;100 nA
-0,850830078125;155,511487607371;-4,034423828125E-08;-0,84869384765625;4;297;4,63047884404659E-07;-4,59936633706093E-07;100 nA
-0,90087890625;156,011975606108;-4,2547607421875E-08;-0,8984375;4;298;4,63047884404659E-07;-4,59936633706093E-07;100 nA
-0,950927734375;156,512463604844;-4,47265625E-08;-0,94879150390625;4;299;4,63047884404659E-07;-4,59936633706093E-07;100 nA
-1,0009765625;157,01295160358;-4,705810546875E-08;-0,99884033203125;4;300;4,63047884404659E-07;-4,59936633706093E-07;100 nA
-0,950927734375;157,513439602317;-4,27490234375E-08;-0,94879150390625;4;301;4,63047884404659E-07;-4,59936633706093E-07;100 nA
-0,90087890625;158,013927601053;-3,905029296875E-08;-0,89874267578125;4;302;4,63047884404659E-07;-4,59936633706093E-07;100 nA
-0,850830078125;158,51441559979;-3,564453125E-08;-0,84808349609375;4;303;4,63047884404659E-07;-4,59936633706093E-07;100 nA
-0,80078125;159,014903598526;-3,24310302734375E-08;-0,79925537109375;4;304;4,63047884404659E-07;-4,59936633706093E-07;100 nA
-0,750732421875;159,515391597262;-2,94403076171875E-08;-0,748504638671875;4;305;4,63047884404659E-07;-4,59936633706093E-07;100 nA
-0,70068359375;160,015879595999;-2,66143798828125E-08;-0,698577880859375;4;306;4,63047884404659E-07;-4,59936633706093E-07;100 nA
-0,650634765625;160,516367594735;-2,39471435546875E-08;-0,64862060546875;4;307;4,63047884404659E-07;-4,59936633706093E-07;100 nA
-0,6005859375;161,016855593472;-2,1405029296875E-08;-0,598663330078125;4;308;4,63047884404659E-07;-4,59936633706093E-07;100 nA
-0,550537109375;161,517343592208;-1,89544677734375E-08;-0,54876708984375;4;309;4,63047884404659E-07;-4,59936633706093E-07;100 nA
-0,50048828125;162,017831590944;-1,6546630859375E-08;-0,4989013671875;4;310;4,63047884404659E-07;-4,59936633706093E-07;100 nA
-0,450439453125;162,518319589681;-1,3934326171875E-08;-0,448974609375;4;311;4,63047884404659E-07;-4,59936633706093E-07;100 nA
-0,400390625;163,018807588417;-1,1041259765625E-08;-0,39910888671875;4;312;4,63047884404659E-07;-4,59936633706093E-07;100 nA
-0,350341796875;163,519295587153;-8,3282470703125E-09;-0,349151611328125;4;313;4,63047884404659E-07;-4,59936633706093E-07;100 nA
-0,30029296875;164,01978358589;-5,7281494140625E-09;-0,299224853515625;4;314;4,63047884404659E-07;-4,59936633706093E-07;100 nA
-0,250244140625;164,520271584626;-3,0792236328125E-09;-0,249359130859375;4;315;4,63047884404659E-07;-4,59936633706093E-07;100 nA
-0,2001953125;165,020759583363;-1,556396484375E-10;-0,199493408203125;4;316;4,63047884404659E-07;-4,59936633706093E-07;100 nA
-0,150146484375;165,521247582099;2,94189453125E-09;-0,14959716796875;4;317;4,63047884404659E-07;-4,59936633706093E-07;100 nA
-0,10009765625;166,021735580835;6,121826171875E-09;-0,099761962890625;4;318;4,63047884404659E-07;-4,59936633706093E-07;100 nA
-0,050048828125;166,522223579572;9,33837890625E-09;-0,049835205078125;4;319;4,63047884404659E-07;-4,59936633706093E-07;100 nA
0;167,022711578308;1,24267578125E-08;0,0001220703125;4;320;4,63047884404659E-07;-4,59936633706093E-07;100 nA
0,050048828125;167,523199577045;1,59820556640625E-08;0,050079345703125;5;321;4,62160483002663E-07;-4,59493696689606E-07;100 nA
0,10009765625;168,023687575781;1,5313720703125E-08;0,100067138671875;5;322;4,62160483002663E-07;-4,59493696689606E-07;100 nA
0,150146484375;168,524175574517;1,59149169921875E-08;0,150054931640625;5;323;4,62160483002663E-07;-4,59493696689606E-07;100 nA
0,2001953125;169,024663573254;1,7156982421875E-08;0,20001220703125;5;324;4,62160483002663E-07;-4,59493696689606E-07;100 nA
0,250244140625;169,52515157199;1,87774658203125E-08;0,25006103515625;5;325;4,62160483002663E-07;-4,59493696689606E-07;100 nA
0,30029296875;170,025639570727;2,02911376953125E-08;0,300048828125;5;326;4,62160483002663E-07;-4,59493696689606E-07;100 nA
0,350341796875;170,526127569463;2,19207763671875E-08;0,350067138671875;5;327;4,62160483002663E-07;-4,59493696689606E-07;100 nA
0,400390625;171,026615568199;2,37396240234375E-08;0,40008544921875;5;328;4,62160483002663E-07;-4,59493696689606E-07;100 nA
0,450439453125;171,527103566936;2,56591796875E-08;0,450042724609375;5;329;4,62160483002663E-07;-4,59493696689606E-07;100 nA
0,50048828125;172,027591565672;2,76336669921875E-08;0,500030517578125;5;330;4,62160483002663E-07;-4,59493696689606E-07;100 nA
0,550537109375;172,528079564408;2,97210693359375E-08;0,550079345703125;5;331;4,62160483002663E-07;-4,59493696689606E-07;100 nA
0,6005859375;173,028567563145;3,18023681640625E-08;0,60009765625;5;332;4,62160483002663E-07;-4,59493696689606E-07;100 nA
0,650634765625;173,529055561881;3,3648681640625E-08;0,64996337890625;5;333;4,62160483002663E-07;-4,59493696689606E-07;100 nA
0,70068359375;174,029543560618;3,4967041015625E-08;0,69989013671875;5;334;4,62160483002663E-07;-4,59493696689606E-07;100 nA
0,750732421875;174,530031559354;3,60626220703125E-08;0,749755859375;5;335;4,62160483002663E-07;-4,59493696689606E-07;100 nA
0,80078125;175,03051955809;3,668212890625E-08;0,79986572265625;5;336;4,62160483002663E-07;-4,59493696689606E-07;100 nA
0,850830078125;175,531007556827;3,6865234375E-08;0,8502197265625;5;337;4,62160483002663E-07;-4,59493696689606E-07;100 nA
0,90087890625;176,031495555563;3,79486083984375E-08;0,89996337890625;5;338;4,62160483002663E-07;-4,59493696689606E-07;100 nA
0,950927734375;176,5319835543;3,98162841796875E-08;0,95001220703125;5;339;4,62160483002663E-07;-4,59493696689606E-07;100 nA
1,0009765625;177,032471553036;4,22271728515625E-08;0,9991455078125;5;340;4,62160483002663E-07;-4,59493696689606E-07;100 nA
0,950927734375;177,532959551772;3,76312255859375E-08;0,9490966796875;5;341;4,62160483002663E-07;-4,59493696689606E-07;100 nA
0,90087890625;178,033447550509;3,42559814453125E-08;0,89935302734375;5;342;4,62160483002663E-07;-4,59493696689606E-07;100 nA
0,850830078125;178,533935549245;3,17291259765625E-08;0,849609375;5;343;4,62160483002663E-07;-4,59493696689606E-07;100 nA
0,80078125;179,034423547982;2,930908203125E-08;0,799560546875;5;344;4,62160483002663E-07;-4,59493696689606E-07;100 nA
0,750732421875;179,534911546718;2,71484375E-08;0,749786376953125;5;345;4,62160483002663E-07;-4,59493696689606E-07;100 nA
0,70068359375;180,035399545454;2,5067138671875E-08;0,69989013671875;5;346;4,62160483002663E-07;-4,59493696689606E-07;100 nA
0,650634765625;180,535887544191;2,3016357421875E-08;0,65008544921875;5;347;4,62160483002663E-07;-4,59493696689606E-07;100 nA
0,6005859375;181,036375542927;2,10113525390625E-08;0,60009765625;5;348;4,62160483002663E-07;-4,59493696689606E-07;100 nA
0,550537109375;181,536863541663;1,90155029296875E-08;0,550079345703125;5;349;4,62160483002663E-07;-4,59493696689606E-07;100 nA
0,50048828125;182,0373515404;1,72088623046875E-08;0,500091552734375;5;350;4,62160483002663E-07;-4,59493696689606E-07;100 nA
0,450439453125;182,537839539136;1,5338134765625E-08;0,4500732421875;5;351;4,62160483002663E-07;-4,59493696689606E-07;100 nA
0,400390625;183,038327537873;1,34521484375E-08;0,400177001953125;5;352;4,62160483002663E-07;-4,59493696689606E-07;100 nA
0,350341796875;183,538815536609;1,151123046875E-08;0,35009765625;5;353;4,62160483002663E-07;-4,59493696689606E-07;100 nA
0,30029296875;184,039303535345;9,5489501953125E-09;0,300079345703125;5;354;4,62160483002663E-07;-4,59493696689606E-07;100 nA
0,250244140625;184,539791534082;7,43408203125E-09;0,250091552734375;5;355;4,62160483002663E-07;-4,59493696689606E-07;100 nA
0,2001953125;185,040279532818;5,133056640625E-09;0,200164794921875;5;356;4,62160483002663E-07;-4,59493696689606E-07;100 nA
0,150146484375;185,540767531555;2,6947021484375E-09;0,150115966796875;5;357;4,62160483002663E-07;-4,59493696689606E-07;100 nA
0,10009765625;186,041255530291;-3,662109375E-11;0,100128173828125;5;358;4,62160483002663E-07;-4,59493696689606E-07;100 nA
0,050048828125;186,541743529027;-4,1168212890625E-09;0,05010986328125;5;359;4,62160483002663E-07;-4,59493696689606E-07;100 nA
0;187,042231527764;-1,31988525390625E-08;0,000140380859374997;5;360;4,62160483002663E-07;-4,59493696689606E-07;100 nA
-0,050048828125;187,5427195265;-1,47064208984375E-08;-0,0497283935546875;5;361;4,62160483002663E-07;-4,59493696689606E-07;100 nA
-0,10009765625;188,043207525237;-1,32232666015625E-08;-0,09967041015625;5;362;4,62160483002663E-07;-4,59493696689606E-07;100 nA
-0,150146484375;188,543695523973;-1,51275634765625E-08;-0,1495361328125;5;363;4,62160483002663E-07;-4,59493696689606E-07;100 nA
-0,2001953125;189,044183522709;-1,68212890625E-08;-0,199493408203125;5;364;4,62160483002663E-07;-4,59493696689606E-07;100 nA
-0,250244140625;189,544671521446;-1,81884765625E-08;-0,2493896484375;5;365;4,62160483002663E-07;-4,59493696689606E-07;100 nA
-0,30029296875;190,045159520182;-1,981201171875E-08;-0,2991943359375;5;366;4,62160483002663E-07;-4,59493696689606E-07;100 nA
-0,350341796875;190,545647518918;-2,19085693359375E-08;-0,34918212890625;5;367;4,62160483002663E-07;-4,59493696689606E-07;100 nA
-0,400390625;191,046135517655;-2,4151611328125E-08;-0,3990478515625;5;368;4,62160483002663E-07;-4,59493696689606E-07;100 nA
-0,450439453125;191,546623516391;-2,60650634765625E-08;-0,449005126953125;5;369;4,62160483002663E-07;-4,59493696689606E-07;100 nA
-0,50048828125;192,047111515128;-2,7520751953125E-08;-0,498809814453125;5;370;4,62160483002663E-07;-4,59493696689606E-07;100 nA
-0,550537109375;192,547599513864;-2,8857421875E-08;-0,54876708984375;5;371;4,62160483002663E-07;-4,59493696689606E-07;100 nA
-0,6005859375;193,0480875126;-3,0462646484375E-08;-0,598602294921875;5;372;4,62160483002663E-07;-4,59493696689606E-07;100 nA
-0,650634765625;193,548575511337;-3,2318115234375E-08;-0,64849853515625;5;373;4,62160483002663E-07;-4,59493696689606E-07;100 nA
-0,70068359375;194,049063510073;-3,427734375E-08;-0,69854736328125;5;374;4,62160483002663E-07;-4,59493696689606E-07;100 nA
-0,750732421875;194,54955150881;-3,629150390625E-08;-0,748565673828125;5;375;4,62160483002663E-07;-4,59493696689606E-07;100 nA
-0,80078125;195,050039507546;-3,83087158203125E-08;-0,79864501953125;5;376;4,62160483002663E-07;-4,59493696689606E-07;100 nA
-0,850830078125;195,550527506282;-4,039306640625E-08;-0,84808349609375;5;377;4,62160483002663E-07;-4,59493696689606E-07;100 nA
-0,90087890625;196,051015505019;-4,246826171875E-08;-0,89874267578125;5;378;4,62160483002663E-07;-4,59493696689606E-07;100 nA
-0,950927734375;196,551503503755;-4,46990966796875E-08;-0,94879150390625;5;379;4,62160483002663E-07;-4,59493696689606E-07;100 nA
-1,0009765625;197,051991502492;-4,7027587890625E-08;-0,99884033203125;5;380;4,62160483002663E-07;-4,59493696689606E-07;100 nA
-0,950927734375;197,552479501228;-4,27093505859375E-08;-0,94879150390625;5;381;4,62160483002663E-07;-4,59493696689606E-07;100 nA
-0,90087890625;198,052967499964;-3,8995361328125E-08;-0,89874267578125;5;382;4,62160483002663E-07;-4,59493696689606E-07;100 nA
-0,850830078125;198,553455498701;-3,558349609375E-08;-0,8489990234375;5;383;4,62160483002663E-07;-4,59493696689606E-07;100 nA
-0,80078125;199,053943497437;-3,2354736328125E-08;-0,79833984375;5;384;4,62160483002663E-07;-4,59493696689606E-07;100 nA
-0,750732421875;199,554431496173;-2,9327392578125E-08;-0,748565673828125;5;385;4,62160483002663E-07;-4,59493696689606E-07;100 nA
-0,70068359375;200,05491949491;-2,6531982421875E-08;-0,69854736328125;5;386;4,62160483002663E-07;-4,59493696689606E-07;100 nA
-0,650634765625;200,555407493646;-2,3773193359375E-08;-0,6485595703125;5;387;4,62160483002663E-07;-4,59493696689606E-07;100 nA
-0,6005859375;201,055895492383;-2,13165283203125E-08;-0,598602294921875;5;388;4,62160483002663E-07;-4,59493696689606E-07;100 nA
-0,550537109375;201,556383491119;-1,8927001953125E-08;-0,54876708984375;5;389;4,62160483002663E-07;-4,59493696689606E-07;100 nA
-0,50048828125;202,056871489855;-1,6436767578125E-08;-0,498779296875;5;390;4,62160483002663E-07;-4,59493696689606E-07;100 nA
-0,450439453125;202,557359488592;-1,38641357421875E-08;-0,448944091796875;5;391;4,62160483002663E-07;-4,59493696689606E-07;100 nA
-0,400390625;203,057847487328;-1,10015869140625E-08;-0,39910888671875;5;392;4,62160483002663E-07;-4,59493696689606E-07;100 nA
-0,350341796875;203,558335486065;-8,2916259765625E-09;-0,349151611328125;5;393;4,62160483002663E-07;-4,59493696689606E-07;100 nA
-0,30029296875;204,058823484801;-5,743408203125E-09;-0,299285888671875;5;394;4,62160483002663E-07;-4,59493696689606E-07;100 nA
-0,250244140625;204,559311483537;-3,06396484375E-09;-0,249359130859375;5;395;4,62160483002663E-07;-4,59493696689606E-07;100 nA
-0,2001953125;205,059799482274;-1,89208984375E-10;-0,199462890625;5;396;4,62160483002663E-07;-4,59493696689606E-07;100 nA
-0,150146484375;205,56028748101;2,9296875E-09;-0,14959716796875;5;397;4,62160483002663E-07;-4,59493696689606E-07;100 nA
-0,10009765625;206,060775479747;6,134033203125E-09;-0,099700927734375;5;398;4,62160483002663E-07;-4,59493696689606E-07;100 nA
-0,050048828125;206,561263478483;9,3292236328125E-09;-0,049835205078125;5;399;4,62160483002663E-07;-4,59493696689606E-07;100 nA
0;207,061751477219;1,239013671875E-08;0,000112915039062494;5;400;4,62160483002663E-07;-4,59493696689606E-07;100 nA
0,050048828125;207,562239475956;1,600341796875E-08;0,050018310546875;6;401;4,61891666054726E-07;-4,59742657840252E-07;100 nA
0,10009765625;208,062727474692;1,53167724609375E-08;0,10003662109375;6;402;4,61891666054726E-07;-4,59742657840252E-07;100 nA
0,150146484375;208,563215473429;1,5863037109375E-08;0,1500244140625;6;403;4,61891666054726E-07;-4,59742657840252E-07;100 nA
0,2001953125;209,063703472165;1,7034912109375E-08;0,20001220703125;6;404;4,61891666054726E-07;-4,59742657840252E-07;100 nA
0,250244140625;209,564191470901;1,86248779296875E-08;0,25;6;405;4,61891666054726E-07;-4,59742657840252E-07;100 nA
0,30029296875;210,064679469638;2,0245361328125E-08;0,300018310546875;6;406;4,61891666054726E-07;-4,59742657840252E-07;100 nA
0,350341796875;210,565167468374;2,188720703125E-08;0,35009765625;6;407;4,61891666054726E-07;-4,59742657840252E-07;100 nA
0,400390625;211,06565546711;2,3724365234375E-08;0,40008544921875;6;408;4,61891666054726E-07;-4,59742657840252E-07;100 nA
0,450439453125;211,566143465847;2,56622314453125E-08;0,450103759765625;6;409;4,61891666054726E-07;-4,59742657840252E-07;100 nA
0,50048828125;212,066631464583;2,7630615234375E-08;0,500030517578125;6;410;4,61891666054726E-07;-4,59742657840252E-07;100 nA
0,550537109375;212,56711946332;2,9705810546875E-08;0,550048828125;6;411;4,61891666054726E-07;-4,59742657840252E-07;100 nA
0,6005859375;213,067607462056;3,17718505859375E-08;0,60003662109375;6;412;4,61891666054726E-07;-4,59742657840252E-07;100 nA
0,650634765625;213,568095460792;3,3642578125E-08;0,649993896484375;6;413;4,61891666054726E-07;-4,59742657840252E-07;100 nA
0,70068359375;214,068583459529;3,492431640625E-08;0,699859619140625;6;414;4,61891666054726E-07;-4,59742657840252E-07;100 nA
0,750732421875;214,569071458265;3,60748291015625E-08;0,749786376953125;6;415;4,61891666054726E-07;-4,59742657840252E-07;100 nA
0,80078125;215,069559457002;3,66943359375E-08;0,799560546875;6;416;4,61891666054726E-07;-4,59742657840252E-07;100 nA
0,850830078125;215,570047455738;3,67889404296875E-08;0,849609375;6;417;4,61891666054726E-07;-4,59742657840252E-07;100 nA
0,90087890625;216,070535454474;3,7994384765625E-08;0,89996337890625;6;418;4,61891666054726E-07;-4,59742657840252E-07;100 nA
0,950927734375;216,571023453211;3,9874267578125E-08;0,94940185546875;6;419;4,61891666054726E-07;-4,59742657840252E-07;100 nA
1,0009765625;217,071511451947;4,22210693359375E-08;0,999755859375;6;420;4,61891666054726E-07;-4,59742657840252E-07;100 nA
0,950927734375;217,571999450684;3,75885009765625E-08;0,95001220703125;6;421;4,61891666054726E-07;-4,59742657840252E-07;100 nA
0,90087890625;218,07248744942;3,43475341796875E-08;0,9002685546875;6;422;4,61891666054726E-07;-4,59742657840252E-07;100 nA
0,850830078125;218,572975448156;3,16741943359375E-08;0,84991455078125;6;423;4,61891666054726E-07;-4,59742657840252E-07;100 nA
0,80078125;219,073463446893;2,938232421875E-08;0,8001708984375;6;424;4,61891666054726E-07;-4,59742657840252E-07;100 nA
0,750732421875;219,573951445629;2,7203369140625E-08;0,749786376953125;6;425;4,61891666054726E-07;-4,59742657840252E-07;100 nA
0,70068359375;220,074439444365;2,509765625E-08;0,699920654296875;6;426;4,61891666054726E-07;-4,59742657840252E-07;100 nA
0,650634765625;220,574927443102;2,30560302734375E-08;0,650054931640625;6;427;4,61891666054726E-07;-4,59742657840252E-07;100 nA
0,6005859375;221,075415441838;2,10357666015625E-08;0,600067138671875;6;428;4,61891666054726E-07;-4,59742657840252E-07;100 nA
0,550537109375;221,575903440575;1,90277099609375E-08;0,55010986328125;6;429;4,61891666054726E-07;-4,59742657840252E-07;100 nA
0,50048828125;222,076391439311;1,710205078125E-08;0,50006103515625;6;430;4,61891666054726E-07;-4,59742657840252E-07;100 nA
0,450439453125;222,576879438047;1,5228271484375E-08;0,450103759765625;6;431;4,61891666054726E-07;-4,59742657840252E-07;100 nA
0,400390625;223,077367436784;1,3385009765625E-08;0,40008544921875;6;432;4,61891666054726E-07;-4,59742657840252E-07;100 nA
0,350341796875;223,57785543552;1,1480712890625E-08;0,35009765625;6;433;4,61891666054726E-07;-4,59742657840252E-07;100 nA
0,30029296875;224,078343434257;9,5245361328125E-09;0,300018310546875;6;434;4,61891666054726E-07;-4,59742657840252E-07;100 nA
0,250244140625;224,578831432993;7,3028564453125E-09;0,250030517578125;6;435;4,61891666054726E-07;-4,59742657840252E-07;100 nA
0,2001953125;225,079319431729;5,1177978515625E-09;0,200042724609375;6;436;4,61891666054726E-07;-4,59742657840252E-07;100 nA
0,150146484375;225,579807430466;2,691650390625E-09;0,15008544921875;6;437;4,61891666054726E-07;-4,59742657840252E-07;100 nA
0,10009765625;226,080295429202;-4,2724609375E-11;0,100067138671875;6;438;4,61891666054726E-07;-4,59742657840252E-07;100 nA
0,050048828125;226,580783427939;-4,1595458984375E-09;0,050079345703125;6;439;4,61891666054726E-07;-4,59742657840252E-07;100 nA
0;227,081271426675;-1,33056640625E-08;0,000131225585937506;6;440;4,61891666054726E-07;-4,59742657840252E-07;100 nA
-0,050048828125;227,581759425411;-1,46697998046875E-08;-0,0497100830078125;6;441;4,61891666054726E-07;-4,59742657840252E-07;100 nA
-0,10009765625;228,082247424148;-1,32232666015625E-08;-0,099639892578125;6;442;4,61891666054726E-07;-4,59742657840252E-07;100 nA
-0,150146484375;228,582735422884;-1,5155029296875E-08;-0,149566650390625;6;443;4,61891666054726E-07;-4,59742657840252E-07;100 nA
-0,2001953125;229,08322342162;-1,6851806640625E-08;-0,19940185546875;6;444;4,61891666054726E-07;-4,59742657840252E-07;100 nA
-0,250244140625;229,583711420357;-1,8243408203125E-08;-0,24932861328125;6;445;4,61891666054726E-07;-4,59742657840252E-07;100 nA
-0,30029296875;230,084199419093;-1,98455810546875E-08;-0,2991943359375;6;446;4,61891666054726E-07;-4,59742657840252E-07;100 nA
-0,350341796875;230,58468741783;-2,19024658203125E-08;-0,34918212890625;6;447;4,61891666054726E-07;-4,59742657840252E-07;100 nA
-0,400390625;231,085175416566;-2,41363525390625E-08;-0,3990478515625;6;448;4,61891666054726E-07;-4,59742657840252E-07;100 nA
-0,450439453125;231,585663415302;-2,60650634765625E-08;-0,448974609375;6;449;4,61891666054726E-07;-4,59742657840252E-07;100 nA
-0,50048828125;232,086151414039;-2,75970458984375E-08;-0,49884033203125;6;450;4,61891666054726E-07;-4,59742657840252E-07;100 nA
-0,550537109375;232,586639412775;-2,89154052734375E-08;-0,548736572265625;6;451;4,61891666054726E-07;-4,59742657840252E-07;100 nA
-0,6005859375;233,087127411512;-3,05267333984375E-08;-0,598663330078125;6;452;4,61891666054726E-07;-4,59742657840252E-07;100 nA
-0,650634765625;233,587615410248;-3,233642578125E-08;-0,6485595703125;6;453;4,61891666054726E-07;-4,59742657840252E-07;100 nA
-0,70068359375;234,088103408984;-3,431396484375E-08;-0,698577880859375;6;454;4,61891666054726E-07;-4,59742657840252E-07;100 nA
-0,750732421875;234,588591407721;-3,62945556640625E-08;-0,74859619140625;6;455;4,61891666054726E-07;-4,59742657840252E-07;100 nA
-0,80078125;235,089079406457;-3,82720947265625E-08;-0,79833984375;6;456;4,61891666054726E-07;-4,59742657840252E-07;100 nA
-0,850830078125;235,589567405194;-4,03411865234375E-08;-0,84869384765625;6;457;4,61891666054726E-07;-4,59742657840252E-07;100 nA
-0,90087890625;236,09005540393;-4,2425537109375E-08;-0,8990478515625;6;458;4,61891666054726E-07;-4,59742657840252E-07;100 nA
-0,950927734375;236,590543402666;-4,46533203125E-08;-0,94879150390625;6;459;4,61891666054726E-07;-4,59742657840252E-07;100 nA
-1,0009765625;237,091031401403;-4,6966552734375E-08;-0,99884033203125;6;460;4,61891666054726E-07;-4,59742657840252E-07;100 nA
-0,950927734375;237,591519400139;-4,26849365234375E-08;-0,948486328125;6;461;4,61891666054726E-07;-4,59742657840252E-07;100 nA
-0,90087890625;238,092007398875;-3,89892578125E-08;-0,89874267578125;6;462;4,61891666054726E-07;-4,59742657840252E-07;100 nA
-0,850830078125;238,592495397612;-3,55743408203125E-08;-0,8489990234375;6;463;4,61891666054726E-07;-4,59742657840252E-07;100 nA
-0,80078125;239,092983396348;-3,2354736328125E-08;-0,7989501953125;6;464;4,61891666054726E-07;-4,59742657840252E-07;100 nA
-0,750732421875;239,593471395085;-2,930908203125E-08;-0,74859619140625;6;465;4,61891666054726E-07;-4,59742657840252E-07;100 nA
-0,70068359375;240,093959393821;-2,6531982421875E-08;-0,6986083984375;6;466;4,61891666054726E-07;-4,59742657840252E-07;100 nA
-0,650634765625;240,594447392557;-2,39227294921875E-08;-0,6485595703125;6;467;4,61891666054726E-07;-4,59742657840252E-07;100 nA
-0,6005859375;241,094935391294;-2,13348388671875E-08;-0,598663330078125;6;468;4,61891666054726E-07;-4,59742657840252E-07;100 nA
-0,550537109375;241,59542339003;-1,8896484375E-08;-0,548797607421875;6;469;4,61891666054726E-07;-4,59742657840252E-07;100 nA
-0,50048828125;242,095911388767;-1,6485595703125E-08;-0,498870849609375;6;470;4,61891666054726E-07;-4,59742657840252E-07;100 nA
-0,450439453125;242,596399387503;-1,38916015625E-08;-0,448974609375;6;471;4,61891666054726E-07;-4,59742657840252E-07;100 nA
-0,400390625;243,096887386239;-1,107177734375E-08;-0,399139404296875;6;472;4,61891666054726E-07;-4,59742657840252E-07;100 nA
-0,350341796875;243,597375384976;-8,30078125E-09;-0,349212646484375;6;473;4,61891666054726E-07;-4,59742657840252E-07;100 nA
-0,30029296875;244,097863383712;-5,7586669921875E-09;-0,29925537109375;6;474;4,61891666054726E-07;-4,59742657840252E-07;100 nA
-0,250244140625;244,598351382449;-3,08837890625E-09;-0,2493896484375;6;475;4,61891666054726E-07;-4,59742657840252E-07;100 nA
-0,2001953125;245,098839381185;-1,495361328125E-10;-0,199493408203125;6;476;4,61891666054726E-07;-4,59742657840252E-07;100 nA
-0,150146484375;245,599327379921;2,9388427734375E-09;-0,14959716796875;6;477;4,61891666054726E-07;-4,59742657840252E-07;100 nA
-0,10009765625;246,099815378658;6,1492919921875E-09;-0,0997314453125;6;478;4,61891666054726E-07;-4,59742657840252E-07;100 nA
-0,050048828125;246,600303377394;9,332275390625E-09;-0,0498046875;6;479;4,61891666054726E-07;-4,59742657840252E-07;100 nA
0;247,10079137613;1,2530517578125E-08;0,000112915039062494;6;480;4,61891666054726E-07;-4,59742657840252E-07;100 nA
0,050048828125;247,601279374867;1,60247802734375E-08;0,050048828125;7;481;4,62198667228222E-07;-4,58972863852978E-07;100 nA
0,10009765625;248,101767373603;1,5374755859375E-08;0,100067138671875;7;482;4,62198667228222E-07;-4,58972863852978E-07;100 nA
0,150146484375;248,60225537234;1,5869140625E-08;0,150115966796875;7;483;4,62198667228222E-07;-4,58972863852978E-07;100 nA
0,2001953125;249,102743371076;1,72088623046875E-08;0,20001220703125;7;484;4,62198667228222E-07;-4,58972863852978E-07;100 nA
0,250244140625;249,603231369812;1,87103271484375E-08;0,250030517578125;7;485;4,62198667228222E-07;-4,58972863852978E-07;100 nA
0,30029296875;250,103719368549;2,02972412109375E-08;0,300079345703125;7;486;4,62198667228222E-07;-4,58972863852978E-07;100 nA
0,350341796875;250,604207367285;2,19482421875E-08;0,35003662109375;7;487;4,62198667228222E-07;-4,58972863852978E-07;100 nA
0,400390625;251,104695366022;2,37579345703125E-08;0,400054931640625;7;488;4,62198667228222E-07;-4,58972863852978E-07;100 nA
0,450439453125;251,605183364758;2,57049560546875E-08;0,45013427734375;7;489;4,62198667228222E-07;-4,58972863852978E-07;100 nA
0,50048828125;252,105671363494;2,7630615234375E-08;0,500030517578125;7;490;4,62198667228222E-07;-4,58972863852978E-07;100 nA
0,550537109375;252,606159362231;2,972412109375E-08;0,550079345703125;7;491;4,62198667228222E-07;-4,58972863852978E-07;100 nA
0,6005859375;253,106647360967;3,173828125E-08;0,600006103515625;7;492;4,62198667228222E-07;-4,58972863852978E-07;100 nA
0,650634765625;253,607135359704;3,36151123046875E-08;0,649932861328125;7;493;4,62198667228222E-07;-4,58972863852978E-07;100 nA
0,70068359375;254,10762335844;3,4844970703125E-08;0,699859619140625;7;494;4,62198667228222E-07;-4,58972863852978E-07;100 nA
0,750732421875;254,608111357176;3,59375E-08;0,749755859375;7;495;4,62198667228222E-07;-4,58972863852978E-07;100 nA
0,80078125;255,108599355913;3,66943359375E-08;0,8001708984375;7;496;4,62198667228222E-07;-4,58972863852978E-07;100 nA
0,850830078125;255,609087354649;3,6553955078125E-08;0,84991455078125;7;497;4,62198667228222E-07;-4,58972863852978E-07;100 nA
0,90087890625;256,109575353385;3,78265380859375E-08;0,899658203125;7;498;4,62198667228222E-07;-4,58972863852978E-07;100 nA
0,950927734375;256,610063352122;3,97186279296875E-08;0,9490966796875;7;499;4,62198667228222E-07;-4,58972863852978E-07;100 nA
1,0009765625;257,110551350858;4,2108154296875E-08;0,9991455078125;7;500;4,62198667228222E-07;-4,58972863852978E-07;100 nA
0,950927734375;257,611039349595;3,76617431640625E-08;0,94940185546875;7;501;4,62198667228222E-07;-4,58972863852978E-07;100 nA
0,90087890625;258,111527348331;3,44451904296875E-08;0,899658203125;7;502;4,62198667228222E-07;-4,58972863852978E-07;100 nA
0,850830078125;258,612015347067;3,17840576171875E-08;0,849609375;7;503;4,62198667228222E-07;-4,58972863852978E-07;100 nA
0,80078125;259,112503345804;2,94219970703125E-08;0,79986572265625;7;504;4,62198667228222E-07;-4,58972863852978E-07;100 nA
0,750732421875;259,61299134454;2,72064208984375E-08;0,7498779296875;7;505;4,62198667228222E-07;-4,58972863852978E-07;100 nA
0,70068359375;260,113479343277;2,51556396484375E-08;0,70001220703125;7;506;4,62198667228222E-07;-4,58972863852978E-07;100 nA
0,650634765625;260,613967342013;2,305908203125E-08;0,649993896484375;7;507;4,62198667228222E-07;-4,58972863852978E-07;100 nA
0,6005859375;261,114455340749;2,1002197265625E-08;0,60009765625;7;508;4,62198667228222E-07;-4,58972863852978E-07;100 nA
0,550537109375;261,614943339486;1,9085693359375E-08;0,55010986328125;7;509;4,62198667228222E-07;-4,58972863852978E-07;100 nA
0,50048828125;262,115431338222;1,71844482421875E-08;0,500091552734375;7;510;4,62198667228222E-07;-4,58972863852978E-07;100 nA
0,450439453125;262,615919336959;1,54693603515625E-08;0,45013427734375;7;511;4,62198667228222E-07;-4,58972863852978E-07;100 nA
0,400390625;263,116407335695;1,346435546875E-08;0,400115966796875;7;512;4,62198667228222E-07;-4,58972863852978E-07;100 nA
0,350341796875;263,616895334431;1,15570068359375E-08;0,350067138671875;7;513;4,62198667228222E-07;-4,58972863852978E-07;100 nA
0,30029296875;264,117383333168;9,5794677734375E-09;0,300079345703125;7;514;4,62198667228222E-07;-4,58972863852978E-07;100 nA
0,250244140625;264,617871331904;7,452392578125E-09;0,2501220703125;7;515;4,62198667228222E-07;-4,58972863852978E-07;100 nA
0,2001953125;265,11835933064;5,1544189453125E-09;0,200103759765625;7;516;4,62198667228222E-07;-4,58972863852978E-07;100 nA
0,150146484375;265,618847329377;2,7069091796875E-09;0,150115966796875;7;517;4,62198667228222E-07;-4,58972863852978E-07;100 nA
0,10009765625;266,119335328113;-9,1552734375E-12;0,10009765625;7;518;4,62198667228222E-07;-4,58972863852978E-07;100 nA
0,050048828125;266,61982332685;-4,150390625E-09;0,050079345703125;7;519;4,62198667228222E-07;-4,58972863852978E-07;100 nA
0;267,120311325586;-1,3323974609375E-08;0,000131225585937506;7;520;4,62198667228222E-07;-4,58972863852978E-07;100 nA
-0,050048828125;267,620799324322;-1,4617919921875E-08;-0,0497161865234375;7;521;4,62198667228222E-07;-4,58972863852978E-07;100 nA
-0,10009765625;268,121287323059;-1,31866455078125E-08;-0,09967041015625;7;522;4,62198667228222E-07;-4,58972863852978E-07;100 nA
-0,150146484375;268,621775321795;-1,51641845703125E-08;-0,14959716796875;7;523;4,62198667228222E-07;-4,58972863852978E-07;100 nA
-0,2001953125;269,122263320532;-1,6864013671875E-08;-0,199462890625;7;524;4,62198667228222E-07;-4,58972863852978E-07;100 nA
-0,250244140625;269,622751319268;-1,8218994140625E-08;-0,24932861328125;7;525;4,62198667228222E-07;-4,58972863852978E-07;100 nA
-0,30029296875;270,123239318004;-1,98272705078125E-08;-0,299224853515625;7;526;4,62198667228222E-07;-4,58972863852978E-07;100 nA
-0,350341796875;270,623727316741;-2,18841552734375E-08;-0,34918212890625;7;527;4,62198667228222E-07;-4,58972863852978E-07;100 nA
-0,400390625;271,124215315477;-2,4212646484375E-08;-0,39910888671875;7;528;4,62198667228222E-07;-4,58972863852978E-07;100 nA
-0,450439453125;271,624703314214;-2,61199951171875E-08;-0,448944091796875;7;529;4,62198667228222E-07;-4,58972863852978E-07;100 nA
-0,50048828125;272,12519131295;-2,762451171875E-08;-0,49884033203125;7;530;4,62198667228222E-07;-4,58972863852978E-07;100 nA
-0,550537109375;272,625679311686;-2,8900146484375E-08;-0,54876708984375;7;531;4,62198667228222E-07;-4,58972863852978E-07;100 nA
-0,6005859375;273,126167310423;-3,04901123046875E-08;-0,5986328125;7;532;4,62198667228222E-07;-4,58972863852978E-07;100 nA
-0,650634765625;273,626655309159;-3,233642578125E-08;-0,648590087890625;7;533;4,62198667228222E-07;-4,58972863852978E-07;100 nA
-0,70068359375;274,127143307895;-3,4283447265625E-08;-0,69854736328125;7;534;4,62198667228222E-07;-4,58972863852978E-07;100 nA
-0,750732421875;274,627631306632;-3,6212158203125E-08;-0,748565673828125;7;535;4,62198667228222E-07;-4,58972863852978E-07;100 nA
-0,80078125;275,128119305368;-3,82720947265625E-08;-0,79864501953125;7;536;4,62198667228222E-07;-4,58972863852978E-07;100 nA
-0,850830078125;275,628607304105;-4,031982421875E-08;-0,848388671875;7;537;4,62198667228222E-07;-4,58972863852978E-07;100 nA
-0,90087890625;276,129095302841;-4,2437744140625E-08;-0,8984375;7;538;4,62198667228222E-07;-4,58972863852978E-07;100 nA
-0,950927734375;276,629583301577;-4,46380615234375E-08;-0,94879150390625;7;539;4,62198667228222E-07;-4,58972863852978E-07;100 nA
-1,0009765625;277,130071300314;-4,693603515625E-08;-0,99884033203125;7;540;4,62198667228222E-07;-4,58972863852978E-07;100 nA
-0,950927734375;277,63055929905;-4,2572021484375E-08;-0,94818115234375;7;541;4,62198667228222E-07;-4,58972863852978E-07;100 nA
-0,90087890625;278,131047297787;-3,88641357421875E-08;-0,8990478515625;7;542;4,62198667228222E-07;-4,58972863852978E-07;100 nA
-0,850830078125;278,631535296523;-3,54156494140625E-08;-0,84869384765625;7;543;4,62198667228222E-07;-4,58972863852978E-07;100 nA
-0,80078125;279,132023295259;-3,21624755859375E-08;-0,79833984375;7;544;4,62198667228222E-07;-4,58972863852978E-07;100 nA
-0,750732421875;279,632511293996;-2,92266845703125E-08;-0,748565673828125;7;545;4,62198667228222E-07;-4,58972863852978E-07;100 nA
-0,70068359375;280,132999292732;-2,63916015625E-08;-0,698577880859375;7;546;4,62198667228222E-07;-4,58972863852978E-07;100 nA
-0,650634765625;280,633487291469;-2,3773193359375E-08;-0,648529052734375;7;547;4,62198667228222E-07;-4,58972863852978E-07;100 nA
-0,6005859375;281,133975290205;-2,1221923828125E-08;-0,598602294921875;7;548;4,62198667228222E-07;-4,58972863852978E-07;100 nA
-0,550537109375;281,634463288941;-1,88720703125E-08;-0,548736572265625;7;549;4,62198667228222E-07;-4,58972863852978E-07;100 nA
-0,50048828125;282,134951287678;-1,64276123046875E-08;-0,498870849609375;7;550;4,62198667228222E-07;-4,58972863852978E-07;100 nA
-0,450439453125;282,635439286414;-1,38214111328125E-08;-0,448944091796875;7;551;4,62198667228222E-07;-4,58972863852978E-07;100 nA
-0,400390625;283,135927285151;-1,10107421875E-08;-0,399139404296875;7;552;4,62198667228222E-07;-4,58972863852978E-07;100 nA
-0,350341796875;283,636415283887;-8,2855224609375E-09;-0,349212646484375;7;553;4,62198667228222E-07;-4,58972863852978E-07;100 nA
-0,30029296875;284,136903282623;-5,7281494140625E-09;-0,29925537109375;7;554;4,62198667228222E-07;-4,58972863852978E-07;100 nA
-0,250244140625;284,63739128136;-3,076171875E-09;-0,2493896484375;7;555;4,62198667228222E-07;-4,58972863852978E-07;100 nA
-0,2001953125;285,137879280096;-1,708984375E-10;-0,199493408203125;7;556;4,62198667228222E-07;-4,58972863852978E-07;100 nA
-0,150146484375;285,638367278832;2,9510498046875E-09;-0,149627685546875;7;557;4,62198667228222E-07;-4,58972863852978E-07;100 nA
-0,10009765625;286,138855277569;6,134033203125E-09;-0,099700927734375;7;558;4,62198667228222E-07;-4,58972863852978E-07;100 nA
-0,050048828125;286,639343276305;9,3353271484375E-09;-0,049835205078125;7;559;4,62198667228222E-07;-4,58972863852978E-07;100 nA
0;287,139831275042;1,2396240234375E-08;0,000119018554687503;7;560;4,62198667228222E-07;-4,58972863852978E-07;100 nA
0,050048828125;287,640319273778;1,60491943359375E-08;0,050048828125;8;561;4,61748093366623E-07;-4,5906450599432E-07;100 nA
0,10009765625;288,140807272514;1,53717041015625E-08;0,100067138671875;8;562;4,61748093366623E-07;-4,5906450599432E-07;100 nA
0,150146484375;288,641295271251;1,5911865234375E-08;0,1500244140625;8;563;4,61748093366623E-07;-4,5906450599432E-07;100 nA
0,2001953125;289,141783269987;1,71173095703125E-08;0,2000732421875;8;564;4,61748093366623E-07;-4,5906450599432E-07;100 nA
0,250244140625;289,642271268724;1,8646240234375E-08;0,250030517578125;8;565;4,61748093366623E-07;-4,5906450599432E-07;100 nA
0,30029296875;290,14275926746;2,02606201171875E-08;0,29998779296875;8;566;4,61748093366623E-07;-4,5906450599432E-07;100 nA
0,350341796875;290,643247266196;2,19146728515625E-08;0,35003662109375;8;567;4,61748093366623E-07;-4,5906450599432E-07;100 nA
0,400390625;291,143735264933;2,37030029296875E-08;0,4000244140625;8;568;4,61748093366623E-07;-4,5906450599432E-07;100 nA
0,450439453125;291,644223263669;2,56683349609375E-08;0,450042724609375;8;569;4,61748093366623E-07;-4,5906450599432E-07;100 nA
0,50048828125;292,144711262406;2,767333984375E-08;0,500091552734375;8;570;4,61748093366623E-07;-4,5906450599432E-07;100 nA
0,550537109375;292,645199261142;2,96783447265625E-08;0,55010986328125;8;571;4,61748093366623E-07;-4,5906450599432E-07;100 nA
0,6005859375;293,145687259878;3,17779541015625E-08;0,60003662109375;8;572;4,61748093366623E-07;-4,5906450599432E-07;100 nA
0,650634765625;293,646175258615;3,3758544921875E-08;0,649993896484375;8;573;4,61748093366623E-07;-4,5906450599432E-07;100 nA
0,70068359375;294,146663257351;3,48724365234375E-08;0,699951171875;8;574;4,61748093366623E-07;-4,5906450599432E-07;100 nA
0,750732421875;294,647151256087;3,602294921875E-08;0,749786376953125;8;575;4,61748093366623E-07;-4,5906450599432E-07;100 nA
0,80078125;295,147639254824;3,66912841796875E-08;0,79986572265625;8;576;4,61748093366623E-07;-4,5906450599432E-07;100 nA
0,850830078125;295,64812725356;3,66607666015625E-08;0,849609375;8;577;4,61748093366623E-07;-4,5906450599432E-07;100 nA
0,90087890625;296,148615252297;3,78021240234375E-08;0,89996337890625;8;578;4,61748093366623E-07;-4,5906450599432E-07;100 nA
0,950927734375;296,649103251033;3,97064208984375E-08;0,94940185546875;8;579;4,61748093366623E-07;-4,5906450599432E-07;100 nA
1,0009765625;297,149591249769;4,1998291015625E-08;0,9991455078125;8;580;4,61748093366623E-07;-4,5906450599432E-07;100 nA
0,950927734375;297,650079248506;3,74969482421875E-08;0,94970703125;8;581;4,61748093366623E-07;-4,5906450599432E-07;100 nA
0,90087890625;298,150567247242;3,42926025390625E-08;0,89996337890625;8;582;4,61748093366623E-07;-4,5906450599432E-07;100 nA
0,850830078125;298,651055245979;3,17169189453125E-08;0,84930419921875;8;583;4,61748093366623E-07;-4,5906450599432E-07;100 nA
0,80078125;299,151543244715;2,9345703125E-08;0,79986572265625;8;584;4,61748093366623E-07;-4,5906450599432E-07;100 nA
0,750732421875;299,652031243451;2,71453857421875E-08;0,749786376953125;8;585;4,61748093366623E-07;-4,5906450599432E-07;100 nA
0,70068359375;300,152519242188;2,51068115234375E-08;0,69989013671875;8;586;4,61748093366623E-07;-4,5906450599432E-07;100 nA
0,650634765625;300,653007240924;2,3040771484375E-08;0,6500244140625;8;587;4,61748093366623E-07;-4,5906450599432E-07;100 nA
0,6005859375;301,153495239661;2,1051025390625E-08;0,60009765625;8;588;4,61748093366623E-07;-4,5906450599432E-07;100 nA
0,550537109375;301,653983238397;1,90338134765625E-08;0,55010986328125;8;589;4,61748093366623E-07;-4,5906450599432E-07;100 nA
0,50048828125;302,154471237133;1,71417236328125E-08;0,50006103515625;8;590;4,61748093366623E-07;-4,5906450599432E-07;100 nA
0,450439453125;302,65495923587;1,53076171875E-08;0,450042724609375;8;591;4,61748093366623E-07;-4,5906450599432E-07;100 nA
0,400390625;303,155447234606;1,3421630859375E-08;0,400115966796875;8;592;4,61748093366623E-07;-4,5906450599432E-07;100 nA
0,350341796875;303,655935233342;1,14959716796875E-08;0,350128173828125;8;593;4,61748093366623E-07;-4,5906450599432E-07;100 nA
0,30029296875;304,156423232079;9,5733642578125E-09;0,300048828125;8;594;4,61748093366623E-07;-4,5906450599432E-07;100 nA
0,250244140625;304,656911230815;7,4615478515625E-09;0,250091552734375;8;595;4,61748093366623E-07;-4,5906450599432E-07;100 nA
0,2001953125;305,157399229552;5,13916015625E-09;0,2000732421875;8;596;4,61748093366623E-07;-4,5906450599432E-07;100 nA
0,150146484375;305,657887228288;2,716064453125E-09;0,150054931640625;8;597;4,61748093366623E-07;-4,5906450599432E-07;100 nA
0,10009765625;306,158375227024;-3,662109375E-11;0,10003662109375;8;598;4,61748093366623E-07;-4,5906450599432E-07;100 nA
0,050048828125;306,658863225761;-4,1778564453125E-09;0,05010986328125;8;599;4,61748093366623E-07;-4,5906450599432E-07;100 nA
0;307,159351224497;-1,34002685546875E-08;0,000149536132812503;8;600;4,61748093366623E-07;-4,5906450599432E-07;100 nA
-0,050048828125;307,659839223234;-1,4599609375E-08;-0,049774169921875;8;601;4,61748093366623E-07;-4,5906450599432E-07;100 nA
-0,10009765625;308,16032722197;-1,31988525390625E-08;-0,099700927734375;8;602;4,61748093366623E-07;-4,5906450599432E-07;100 nA
-0,150146484375;308,660815220706;-1,51519775390625E-08;-0,149566650390625;8;603;4,61748093366623E-07;-4,5906450599432E-07;100 nA
-0,2001953125;309,161303219443;-1,67816162109375E-08;-0,199432373046875;8;604;4,61748093366623E-07;-4,5906450599432E-07;100 nA
-0,250244140625;309,661791218179;-1,82708740234375E-08;-0,24932861328125;8;605;4,61748093366623E-07;-4,5906450599432E-07;100 nA
-0,30029296875;310,162279216916;-1,9873046875E-08;-0,29925537109375;8;606;4,61748093366623E-07;-4,5906450599432E-07;100 nA
-0,350341796875;310,662767215652;-2,1954345703125E-08;-0,349151611328125;8;607;4,61748093366623E-07;-4,5906450599432E-07;100 nA
-0,400390625;311,163255214388;-2,41607666015625E-08;-0,3990478515625;8;608;4,61748093366623E-07;-4,5906450599432E-07;100 nA
-0,450439453125;311,663743213125;-2,61199951171875E-08;-0,44891357421875;8;609;4,61748093366623E-07;-4,5906450599432E-07;100 nA
-0,50048828125;312,164231211861;-2,76123046875E-08;-0,49884033203125;8;610;4,61748093366623E-07;-4,5906450599432E-07;100 nA
-0,550537109375;312,664719210597;-2,89154052734375E-08;-0,548736572265625;8;611;4,61748093366623E-07;-4,5906450599432E-07;100 nA
-0,6005859375;313,165207209334;-3,052978515625E-08;-0,5986328125;8;612;4,61748093366623E-07;-4,5906450599432E-07;100 nA
-0,650634765625;313,66569520807;-3,23486328125E-08;-0,64862060546875;8;613;4,61748093366623E-07;-4,5906450599432E-07;100 nA
-0,70068359375;314,166183206807;-3,43109130859375E-08;-0,698577880859375;8;614;4,61748093366623E-07;-4,5906450599432E-07;100 nA
-0,750732421875;314,666671205543;-3,62823486328125E-08;-0,748565673828125;8;615;4,61748093366623E-07;-4,5906450599432E-07;100 nA
-0,80078125;315,167159204279;-3,8336181640625E-08;-0,7989501953125;8;616;4,61748093366623E-07;-4,5906450599432E-07;100 nA
-0,850830078125;315,667647203016;-4,03076171875E-08;-0,84808349609375;8;617;4,61748093366623E-07;-4,5906450599432E-07;100 nA
-0,90087890625;316,168135201752;-4,2401123046875E-08;-0,89935302734375;8;618;4,61748093366623E-07;-4,5906450599432E-07;100 nA
-0,950927734375;316,668623200489;-4,4586181640625E-08;-0,94879150390625;8;619;4,61748093366623E-07;-4,5906450599432E-07;100 nA
-1,0009765625;317,169111199225;-4,6844482421875E-08;-0,99884033203125;8;620;4,61748093366623E-07;-4,5906450599432E-07;100 nA
-0,950927734375;317,669599197961;-4,25933837890625E-08;-0,9490966796875;8;621;4,61748093366623E-07;-4,5906450599432E-07;100 nA
-0,90087890625;318,170087196698;-3,88397216796875E-08;-0,8990478515625;8;622;4,61748093366623E-07;-4,5906450599432E-07;100 nA
-0,850830078125;318,670575195434;-3,5406494140625E-08;-0,84869384765625;8;623;4,61748093366623E-07;-4,5906450599432E-07;100 nA
-0,80078125;319,171063194171;-3,2177734375E-08;-0,79833984375;8;624;4,61748093366623E-07;-4,5906450599432E-07;100 nA
-0,750732421875;319,671551192907;-2,91961669921875E-08;-0,748565673828125;8;625;4,61748093366623E-07;-4,5906450599432E-07;100 nA
-0,70068359375;320,172039191643;-2,63580322265625E-08;-0,69854736328125;8;626;4,61748093366623E-07;-4,5906450599432E-07;100 nA
-0,650634765625;320,67252719038;-2,37579345703125E-08;-0,648590087890625;8;627;4,61748093366623E-07;-4,5906450599432E-07;100 nA
-0,6005859375;321,173015189116;-2,11822509765625E-08;-0,598663330078125;8;628;4,61748093366623E-07;-4,5906450599432E-07;100 nA
-0,550537109375;321,673503187852;-1,8927001953125E-08;-0,54876708984375;8;629;4,61748093366623E-07;-4,5906450599432E-07;100 nA
-0,50048828125;322,173991186589;-1,6455078125E-08;-0,498870849609375;8;630;4,61748093366623E-07;-4,5906450599432E-07;100 nA
-0,450439453125;322,674479185325;-1,38397216796875E-08;-0,448974609375;8;631;4,61748093366623E-07;-4,5906450599432E-07;100 nA
-0,400390625;323,174967184062;-1,10137939453125E-08;-0,399078369140625;8;632;4,61748093366623E-07;-4,5906450599432E-07;100 nA
-0,350341796875;323,675455182798;-8,331298828125E-09;-0,34918212890625;8;633;4,61748093366623E-07;-4,5906450599432E-07;100 nA
-0,30029296875;324,175943181534;-5,7373046875E-09;-0,299224853515625;8;634;4,61748093366623E-07;-4,5906450599432E-07;100 nA
-0,250244140625;324,676431180271;-3,070068359375E-09;-0,249420166015625;8;635;4,61748093366623E-07;-4,5906450599432E-07;100 nA
-0,2001953125;325,176919179007;-1,46484375E-10;-0,19952392578125;8;636;4,61748093366623E-07;-4,5906450599432E-07;100 nA
-0,150146484375;325,677407177744;2,94189453125E-09;-0,149627685546875;8;637;4,61748093366623E-07;-4,5906450599432E-07;100 nA
-0,10009765625;326,17789517648;6,1553955078125E-09;-0,099700927734375;8;638;4,61748093366623E-07;-4,5906450599432E-07;100 nA
-0,050048828125;326,678383175216;9,3292236328125E-09;-0,0498046875;8;639;4,61748093366623E-07;-4,5906450599432E-07;100 nA
0;327,178871173953;1,2396240234375E-08;0,000119018554687503;8;640;4,61748093366623E-07;-4,5906450599432E-07;100 nA
0,050048828125;327,679359172689;1,60614013671875E-08;0,050048828125;9;641;4,61441092193127E-07;-4,59334850311279E-07;100 nA
0,10009765625;328,179847171426;1,536865234375E-08;0,10003662109375;9;642;4,61441092193127E-07;-4,59334850311279E-07;100 nA
0,150146484375;328,680335170162;1,59088134765625E-08;0,1500244140625;9;643;4,61441092193127E-07;-4,59334850311279E-07;100 nA
0,2001953125;329,180823168898;1,71295166015625E-08;0,2000732421875;9;644;4,61441092193127E-07;-4,59334850311279E-07;100 nA
0,250244140625;329,681311167635;1,864013671875E-08;0,250030517578125;9;645;4,61441092193127E-07;-4,59334850311279E-07;100 nA
0,30029296875;330,181799166371;2,0208740234375E-08;0,300079345703125;9;646;4,61441092193127E-07;-4,59334850311279E-07;100 nA
0,350341796875;330,682287165107;2,19146728515625E-08;0,35009765625;9;647;4,61441092193127E-07;-4,59334850311279E-07;100 nA
0,400390625;331,182775163844;2,37091064453125E-08;0,400054931640625;9;648;4,61441092193127E-07;-4,59334850311279E-07;100 nA
0,450439453125;331,68326316258;2,567138671875E-08;0,4500732421875;9;649;4,61441092193127E-07;-4,59334850311279E-07;100 nA
0,50048828125;332,183751161317;2,76214599609375E-08;0,500030517578125;9;650;4,61441092193127E-07;-4,59334850311279E-07;100 nA
0,550537109375;332,684239160053;2,9718017578125E-08;0,55010986328125;9;651;4,61441092193127E-07;-4,59334850311279E-07;100 nA
0,6005859375;333,184727158789;3,19305419921875E-08;0,60003662109375;9;652;4,61441092193127E-07;-4,59334850311279E-07;100 nA
0,650634765625;333,685215157526;3,3660888671875E-08;0,649993896484375;9;653;4,61441092193127E-07;-4,59334850311279E-07;100 nA
0,70068359375;334,185703156262;3,487548828125E-08;0,699859619140625;9;654;4,61441092193127E-07;-4,59334850311279E-07;100 nA
0,750732421875;334,686191154999;3,60107421875E-08;0,749847412109375;9;655;4,61441092193127E-07;-4,59334850311279E-07;100 nA
0,80078125;335,186679153735;3,6566162109375E-08;0,8001708984375;9;656;4,61441092193127E-07;-4,59334850311279E-07;100 nA
0,850830078125;335,687167152471;3,65509033203125E-08;0,849609375;9;657;4,61441092193127E-07;-4,59334850311279E-07;100 nA
0,90087890625;336,187655151208;3,77349853515625E-08;0,899658203125;9;658;4,61441092193127E-07;-4,59334850311279E-07;100 nA
0,950927734375;336,688143149944;3,9581298828125E-08;0,94970703125;9;659;4,61441092193127E-07;-4,59334850311279E-07;100 nA
1,0009765625;337,188631148681;4,19464111328125E-08;0,99945068359375;9;660;4,61441092193127E-07;-4,59334850311279E-07;100 nA
0,950927734375;337,689119147417;3,7506103515625E-08;0,94940185546875;9;661;4,61441092193127E-07;-4,59334850311279E-07;100 nA
0,90087890625;338,189607146153;3,426513671875E-08;0,89996337890625;9;662;4,61441092193127E-07;-4,59334850311279E-07;100 nA
0,850830078125;338,69009514489;3,16131591796875E-08;0,84991455078125;9;663;4,61441092193127E-07;-4,59334850311279E-07;100 nA
0,80078125;339,190583143626;2,9345703125E-08;0,79986572265625;9;664;4,61441092193127E-07;-4,59334850311279E-07;100 nA
0,750732421875;339,691071142362;2,720947265625E-08;0,749847412109375;9;665;4,61441092193127E-07;-4,59334850311279E-07;100 nA
0,70068359375;340,191559141099;2,50885009765625E-08;0,699920654296875;9;666;4,61441092193127E-07;-4,59334850311279E-07;100 nA
0,650634765625;340,692047139835;2,3052978515625E-08;0,6500244140625;9;667;4,61441092193127E-07;-4,59334850311279E-07;100 nA
0,6005859375;341,192535138572;2,09991455078125E-08;0,60009765625;9;668;4,61441092193127E-07;-4,59334850311279E-07;100 nA
0,550537109375;341,693023137308;1,895751953125E-08;0,550018310546875;9;669;4,61441092193127E-07;-4,59334850311279E-07;100 nA
0,50048828125;342,193511136044;1,71417236328125E-08;0,500091552734375;9;670;4,61441092193127E-07;-4,59334850311279E-07;100 nA
0,450439453125;342,693999134781;1,529541015625E-08;0,4500732421875;9;671;4,61441092193127E-07;-4,59334850311279E-07;100 nA
0,400390625;343,194487133517;1,34246826171875E-08;0,400115966796875;9;672;4,61441092193127E-07;-4,59334850311279E-07;100 nA
0,350341796875;343,694975132254;1,15142822265625E-08;0,350128173828125;9;673;4,61441092193127E-07;-4,59334850311279E-07;100 nA
0,30029296875;344,19546313099;9,5428466796875E-09;0,30010986328125;9;674;4,61441092193127E-07;-4,59334850311279E-07;100 nA
0,250244140625;344,695951129726;7,440185546875E-09;0,250030517578125;9;675;4,61441092193127E-07;-4,59334850311279E-07;100 nA
0,2001953125;345,196439128463;5,16357421875E-09;0,2000732421875;9;676;4,61441092193127E-07;-4,59334850311279E-07;100 nA
0,150146484375;345,696927127199;2,7313232421875E-09;0,150115966796875;9;677;4,61441092193127E-07;-4,59334850311279E-07;100 nA
0,10009765625;346,197415125936;-1,52587890625E-11;0,10003662109375;9;678;4,61441092193127E-07;-4,59334850311279E-07;100 nA
0,050048828125;346,697903124672;-4,180908203125E-09;0,05010986328125;9;679;4,61441092193127E-07;-4,59334850311279E-07;100 nA
0;347,198391123408;-1,34246826171875E-08;0,0001373291015625;9;680;4,61441092193127E-07;-4,59334850311279E-07;100 nA
-0,050048828125;347,698879122145;-1,45416259765625E-08;-0,049835205078125;9;681;4,61441092193127E-07;-4,59334850311279E-07;100 nA
-0,10009765625;348,199367120881;-1,3177490234375E-08;-0,09967041015625;9;682;4,61441092193127E-07;-4,59334850311279E-07;100 nA
-0,150146484375;348,699855119618;-1,505126953125E-08;-0,149566650390625;9;683;4,61441092193127E-07;-4,59334850311279E-07;100 nA
-0,2001953125;349,200343118354;-1,68975830078125E-08;-0,19940185546875;9;684;4,61441092193127E-07;-4,59334850311279E-07;100 nA
-0,250244140625;349,70083111709;-1,8304443359375E-08;-0,249359130859375;9;685;4,61441092193127E-07;-4,59334850311279E-07;100 nA
-0,30029296875;350,201319115827;-1,988525390625E-08;-0,2991943359375;9;686;4,61441092193127E-07;-4,59334850311279E-07;100 nA
-0,350341796875;350,701807114563;-2,1954345703125E-08;-0,349151611328125;9;687;4,61441092193127E-07;-4,59334850311279E-07;100 nA
-0,400390625;351,202295113299;-2,4176025390625E-08;-0,399078369140625;9;688;4,61441092193127E-07;-4,59334850311279E-07;100 nA
-0,450439453125;351,702783112036;-2,61505126953125E-08;-0,44891357421875;9;689;4,61441092193127E-07;-4,59334850311279E-07;100 nA
-0,50048828125;352,203271110772;-2,7667236328125E-08;-0,49884033203125;9;690;4,61441092193127E-07;-4,59334850311279E-07;100 nA
-0,550537109375;352,703759109509;-2,901611328125E-08;-0,548736572265625;9;691;4,61441092193127E-07;-4,59334850311279E-07;100 nA
-0,6005859375;353,204247108245;-3,0535888671875E-08;-0,598602294921875;9;692;4,61441092193127E-07;-4,59334850311279E-07;100 nA
-0,650634765625;353,704735106981;-3,2305908203125E-08;-0,6485595703125;9;693;4,61441092193127E-07;-4,59334850311279E-07;100 nA
-0,70068359375;354,205223105718;-3,43231201171875E-08;-0,69854736328125;9;694;4,61441092193127E-07;-4,59334850311279E-07;100 nA
-0,750732421875;354,705711104454;-3,62274169921875E-08;-0,74853515625;9;695;4,61441092193127E-07;-4,59334850311279E-07;100 nA
-0,80078125;355,206199103191;-3,82659912109375E-08;-0,79833984375;9;696;4,61441092193127E-07;-4,59334850311279E-07;100 nA
-0,850830078125;355,706687101927;-4,03228759765625E-08;-0,84808349609375;9;697;4,61441092193127E-07;-4,59334850311279E-07;100 nA
-0,90087890625;356,207175100663;-4,24896240234375E-08;-0,8990478515625;9;698;4,61441092193127E-07;-4,59334850311279E-07;100 nA
-0,950927734375;356,7076630994;-4,464111328125E-08;-0,948486328125;9;699;4,61441092193127E-07;-4,59334850311279E-07;100 nA
-1,0009765625;357,208151098136;-4,705810546875E-08;-0,9991455078125;9;700;4,61441092193127E-07;-4,59334850311279E-07;100 nA
-0,950927734375;357,708639096873;-4,266357421875E-08;-0,9490966796875;9;701;4,61441092193127E-07;-4,59334850311279E-07;100 nA
-0,90087890625;358,209127095609;-3,8909912109375E-08;-0,89874267578125;9;702;4,61441092193127E-07;-4,59334850311279E-07;100 nA
-0,850830078125;358,709615094345;-3,54095458984375E-08;-0,8489990234375;9;703;4,61441092193127E-07;-4,59334850311279E-07;100 nA
-0,80078125;359,210103093082;-3,21990966796875E-08;-0,7989501953125;9;704;4,61441092193127E-07;-4,59334850311279E-07;100 nA
-0,750732421875;359,710591091818;-2,9168701171875E-08;-0,74859619140625;9;705;4,61441092193127E-07;-4,59334850311279E-07;100 nA
-0,70068359375;360,211079090554;-2,63458251953125E-08;-0,6986083984375;9;706;4,61441092193127E-07;-4,59334850311279E-07;100 nA
-0,650634765625;360,711567089291;-2,3736572265625E-08;-0,648590087890625;9;707;4,61441092193127E-07;-4,59334850311279E-07;100 nA
-0,6005859375;361,212055088027;-2,12615966796875E-08;-0,598724365234375;9;708;4,61441092193127E-07;-4,59334850311279E-07;100 nA
-0,550537109375;361,712543086764;-1,8927001953125E-08;-0,54876708984375;9;709;4,61441092193127E-07;-4,59334850311279E-07;100 nA
-0,50048828125;362,2130310855;-1,6455078125E-08;-0,49884033203125;9;710;4,61441092193127E-07;-4,59334850311279E-07;100 nA
-0,450439453125;362,713519084236;-1,383056640625E-08;-0,448974609375;9;711;4,61441092193127E-07;-4,59334850311279E-07;100 nA
-0,400390625;363,214007082973;-1,10137939453125E-08;-0,39910888671875;9;712;4,61441092193127E-07;-4,59334850311279E-07;100 nA
-0,350341796875;363,714495081709;-8,3282470703125E-09;-0,34918212890625;9;713;4,61441092193127E-07;-4,59334850311279E-07;100 nA
-0,30029296875;364,214983080446;-5,731201171875E-09;-0,299285888671875;9;714;4,61441092193127E-07;-4,59334850311279E-07;100 nA
-0,250244140625;364,715471079182;-3,03955078125E-09;-0,2493896484375;9;715;4,61441092193127E-07;-4,59334850311279E-07;100 nA
-0,2001953125;365,215959077918;-1,40380859375E-10;-0,199432373046875;9;716;4,61441092193127E-07;-4,59334850311279E-07;100 nA
-0,150146484375;365,716447076655;2,972412109375E-09;-0,1495361328125;9;717;4,61441092193127E-07;-4,59334850311279E-07;100 nA
-0,10009765625;366,216935075391;6,16455078125E-09;-0,0997314453125;9;718;4,61441092193127E-07;-4,59334850311279E-07;100 nA
-0,050048828125;366,717423074128;9,3505859375E-09;-0,0498046875;9;719;4,61441092193127E-07;-4,59334850311279E-07;100 nA
0;367,217911072864;1,23931884765625E-08;0,000109863281249997;9;720;4,61441092193127E-07;-4,59334850311279E-07;100 nA
0,050048828125;367,7183990716;1,60888671875E-08;0,049957275390625;10;721;4,61137145757675E-07;-4,58511598408222E-07;100 nA
0,10009765625;368,218887070337;1,5411376953125E-08;0,10003662109375;10;722;4,61137145757675E-07;-4,58511598408222E-07;100 nA
0,150146484375;368,719375069073;1,59149169921875E-08;0,1500244140625;10;723;4,61137145757675E-07;-4,58511598408222E-07;100 nA
0,2001953125;369,219863067809;1,7138671875E-08;0,199981689453125;10;724;4,61137145757675E-07;-4,58511598408222E-07;100 nA
0,250244140625;369,720351066546;1,86492919921875E-08;0,25006103515625;10;725;4,61137145757675E-07;-4,58511598408222E-07;100 nA
0,30029296875;370,220839065282;2,0269775390625E-08;0,300048828125;10;726;4,61137145757675E-07;-4,58511598408222E-07;100 nA
0,350341796875;370,721327064019;2,19268798828125E-08;0,350006103515625;10;727;4,61137145757675E-07;-4,58511598408222E-07;100 nA
0,400390625;371,221815062755;2,37274169921875E-08;0,40008544921875;10;728;4,61137145757675E-07;-4,58511598408222E-07;100 nA
0,450439453125;371,722303061491;2,56439208984375E-08;0,450042724609375;10;729;4,61137145757675E-07;-4,58511598408222E-07;100 nA
0,50048828125;372,222791060228;2,76275634765625E-08;0,50006103515625;10;730;4,61137145757675E-07;-4,58511598408222E-07;100 nA
0,550537109375;372,723279058964;2,95928955078125E-08;0,550048828125;10;731;4,61137145757675E-07;-4,58511598408222E-07;100 nA
0,6005859375;373,223767057701;3,173828125E-08;0,600067138671875;10;732;4,61137145757675E-07;-4,58511598408222E-07;100 nA
0,650634765625;373,724255056437;3,36151123046875E-08;0,650054931640625;10;733;4,61137145757675E-07;-4,58511598408222E-07;100 nA
0,70068359375;374,224743055173;3,4808349609375E-08;0,69989013671875;10;734;4,61137145757675E-07;-4,58511598408222E-07;100 nA
0,750732421875;374,72523105391;3,59344482421875E-08;0,74981689453125;10;735;4,61137145757675E-07;-4,58511598408222E-07;100 nA
0,80078125;375,225719052646;3,653564453125E-08;0,8001708984375;10;736;4,61137145757675E-07;-4,58511598408222E-07;100 nA
0,850830078125;375,726207051383;3,651123046875E-08;0,84991455078125;10;737;4,61137145757675E-07;-4,58511598408222E-07;100 nA
0,90087890625;376,226695050119;3,7677001953125E-08;0,899658203125;10;738;4,61137145757675E-07;-4,58511598408222E-07;100 nA
0,950927734375;376,727183048855;3,95172119140625E-08;0,94940185546875;10;739;4,61137145757675E-07;-4,58511598408222E-07;100 nA
1,0009765625;377,227671047592;4,188232421875E-08;0,999755859375;10;740;4,61137145757675E-07;-4,58511598408222E-07;100 nA
0,950927734375;377,728159046328;3,74114990234375E-08;0,94940185546875;10;741;4,61137145757675E-07;-4,58511598408222E-07;100 nA
0,90087890625;378,228647045064;3,42803955078125E-08;0,89996337890625;10;742;4,61137145757675E-07;-4,58511598408222E-07;100 nA
0,850830078125;378,729135043801;3,167724609375E-08;0,8502197265625;10;743;4,61137145757675E-07;-4,58511598408222E-07;100 nA
0,80078125;379,229623042537;2,930908203125E-08;0,79986572265625;10;744;4,61137145757675E-07;-4,58511598408222E-07;100 nA
0,750732421875;379,730111041274;2,725830078125E-08;0,749755859375;10;745;4,61137145757675E-07;-4,58511598408222E-07;100 nA
0,70068359375;380,23059904001;2,50762939453125E-08;0,699920654296875;10;746;4,61137145757675E-07;-4,58511598408222E-07;100 nA
0,650634765625;380,731087038746;2,3040771484375E-08;0,6500244140625;10;747;4,61137145757675E-07;-4,58511598408222E-07;100 nA
0,6005859375;381,231575037483;2,099609375E-08;0,600067138671875;10;748;4,61137145757675E-07;-4,58511598408222E-07;100 nA
0,550537109375;381,732063036219;1,89697265625E-08;0,550079345703125;10;749;4,61137145757675E-07;-4,58511598408222E-07;100 nA
0,50048828125;382,232551034956;1,7120361328125E-08;0,500030517578125;10;750;4,61137145757675E-07;-4,58511598408222E-07;100 nA
0,450439453125;382,733039033692;1,53228759765625E-08;0,45001220703125;10;751;4,61137145757675E-07;-4,58511598408222E-07;100 nA
0,400390625;383,233527032428;1,3385009765625E-08;0,40008544921875;10;752;4,61137145757675E-07;-4,58511598408222E-07;100 nA
0,350341796875;383,734015031165;1,15203857421875E-08;0,350067138671875;10;753;4,61137145757675E-07;-4,58511598408222E-07;100 nA
0,30029296875;384,234503029901;9,5550537109375E-09;0,30010986328125;10;754;4,61137145757675E-07;-4,58511598408222E-07;100 nA
0,250244140625;384,734991028638;7,4493408203125E-09;0,250091552734375;10;755;4,61137145757675E-07;-4,58511598408222E-07;100 nA
0,2001953125;385,235479027374;5,1666259765625E-09;0,200103759765625;10;756;4,61137145757675E-07;-4,58511598408222E-07;100 nA
0,150146484375;385,73596702611;2,728271484375E-09;0,150115966796875;10;757;4,61137145757675E-07;-4,58511598408222E-07;100 nA
0,10009765625;386,236455024847;3,0517578125E-12;0,100067138671875;10;758;4,61137145757675E-07;-4,58511598408222E-07;100 nA
0,050048828125;386,736943023583;-4,193115234375E-09;0,050140380859375;10;759;4,61137145757675E-07;-4,58511598408222E-07;100 nA
0;387,237431022319;-1,3433837890625E-08;0,000140380859374997;10;760;4,61137145757675E-07;-4,58511598408222E-07;100 nA
-0,050048828125;387,737919021056;-1,45172119140625E-08;-0,0497039794921875;10;761;4,61137145757675E-07;-4,58511598408222E-07;100 nA
-0,10009765625;388,238407019792;-1,3238525390625E-08;-0,0997314453125;10;762;4,61137145757675E-07;-4,58511598408222E-07;100 nA
-0,150146484375;388,738895018529;-1,51397705078125E-08;-0,149627685546875;10;763;4,61137145757675E-07;-4,58511598408222E-07;100 nA
-0,2001953125;389,239383017265;-1,6876220703125E-08;-0,199462890625;10;764;4,61137145757675E-07;-4,58511598408222E-07;100 nA
-0,250244140625;389,739871016001;-1,827392578125E-08;-0,249359130859375;10;765;4,61137145757675E-07;-4,58511598408222E-07;100 nA
-0,30029296875;390,240359014738;-1,98699951171875E-08;-0,29925537109375;10;766;4,61137145757675E-07;-4,58511598408222E-07;100 nA
-0,350341796875;390,740847013474;-2,1905517578125E-08;-0,349212646484375;10;767;4,61137145757675E-07;-4,58511598408222E-07;100 nA
-0,400390625;391,241335012211;-2,412109375E-08;-0,3990478515625;10;768;4,61137145757675E-07;-4,58511598408222E-07;100 nA
-0,450439453125;391,741823010947;-2,61016845703125E-08;-0,448944091796875;10;769;4,61137145757675E-07;-4,58511598408222E-07;100 nA
-0,50048828125;392,242311009683;-2,7667236328125E-08;-0,49884033203125;10;770;4,61137145757675E-07;-4,58511598408222E-07;100 nA
-0,550537109375;392,74279900842;-2,89825439453125E-08;-0,548736572265625;10;771;4,61137145757675E-07;-4,58511598408222E-07;100 nA
-0,6005859375;393,243287007156;-3,0511474609375E-08;-0,598663330078125;10;772;4,61137145757675E-07;-4,58511598408222E-07;100 nA
-0,650634765625;393,743775005893;-3,23455810546875E-08;-0,648590087890625;10;773;4,61137145757675E-07;-4,58511598408222E-07;100 nA
-0,70068359375;394,244263004629;-3,4271240234375E-08;-0,698516845703125;10;774;4,61137145757675E-07;-4,58511598408222E-07;100 nA
-0,750732421875;394,744751003365;-3,62335205078125E-08;-0,748565673828125;10;775;4,61137145757675E-07;-4,58511598408222E-07;100 nA
-0,80078125;395,245239002102;-3,81439208984375E-08;-0,7989501953125;10;776;4,61137145757675E-07;-4,58511598408222E-07;100 nA
-0,850830078125;395,745727000838;-4,02801513671875E-08;-0,8489990234375;10;777;4,61137145757675E-07;-4,58511598408222E-07;100 nA
-0,90087890625;396,246214999574;-4,2333984375E-08;-0,8990478515625;10;778;4,61137145757675E-07;-4,58511598408222E-07;100 nA
-0,950927734375;396,746702998311;-4,45587158203125E-08;-0,94879150390625;10;779;4,61137145757675E-07;-4,58511598408222E-07;100 nA
-1,0009765625;397,247190997047;-4,681396484375E-08;-0,9991455078125;10;780;4,61137145757675E-07;-4,58511598408222E-07;100 nA
-0,950927734375;397,747678995784;-4,24957275390625E-08;-0,948486328125;10;781;4,61137145757675E-07;-4,58511598408222E-07;100 nA
-0,90087890625;398,24816699452;-3,87786865234375E-08;-0,89874267578125;10;782;4,61137145757675E-07;-4,58511598408222E-07;100 nA
-0,850830078125;398,748654993256;-3,53118896484375E-08;-0,84869384765625;10;783;4,61137145757675E-07;-4,58511598408222E-07;100 nA
-0,80078125;399,249142991993;-3,2080078125E-08;-0,79864501953125;10;784;4,61137145757675E-07;-4,58511598408222E-07;100 nA
-0,750732421875;399,749630990729;-2,9083251953125E-08;-0,74853515625;10;785;4,61137145757675E-07;-4,58511598408222E-07;100 nA
-0,70068359375;400,250118989466;-2,628173828125E-08;-0,6986083984375;10;786;4,61137145757675E-07;-4,58511598408222E-07;100 nA
-0,650634765625;400,750606988202;-2,3681640625E-08;-0,6485595703125;10;787;4,61137145757675E-07;-4,58511598408222E-07;100 nA
-0,6005859375;401,251094986938;-2,12249755859375E-08;-0,598663330078125;10;788;4,61137145757675E-07;-4,58511598408222E-07;100 nA
-0,550537109375;401,751582985675;-1,88507080078125E-08;-0,54876708984375;10;789;4,61137145757675E-07;-4,58511598408222E-07;100 nA
-0,50048828125;402,252070984411;-1,644287109375E-08;-0,498809814453125;10;790;4,61137145757675E-07;-4,58511598408222E-07;100 nA
-0,450439453125;402,752558983148;-1,3800048828125E-08;-0,449005126953125;10;791;4,61137145757675E-07;-4,58511598408222E-07;100 nA
-0,400390625;403,253046981884;-1,1004638671875E-08;-0,399078369140625;10;792;4,61137145757675E-07;-4,58511598408222E-07;100 nA
-0,350341796875;403,75353498062;-8,41064453125E-09;-0,34918212890625;10;793;4,61137145757675E-07;-4,58511598408222E-07;100 nA
-0,30029296875;404,254022979357;-5,706787109375E-09;-0,299285888671875;10;794;4,61137145757675E-07;-4,58511598408222E-07;100 nA
-0,250244140625;404,754510978093;-3,0548095703125E-09;-0,24945068359375;10;795;4,61137145757675E-07;-4,58511598408222E-07;100 nA
-0,2001953125;405,254998976829;-1,068115234375E-10;-0,199493408203125;10;796;4,61137145757675E-07;-4,58511598408222E-07;100 nA
-0,150146484375;405,755486975566;2,984619140625E-09;-0,149658203125;10;797;4,61137145757675E-07;-4,58511598408222E-07;100 nA
-0,10009765625;406,255974974302;6,170654296875E-09;-0,09967041015625;10;798;4,61137145757675E-07;-4,58511598408222E-07;100 nA
-0,050048828125;406,756462973039;9,36279296875E-09;-0,049774169921875;10;799;4,61137145757675E-07;-4,58511598408222E-07;100 nA
0;407,256950971775;1,23748779296875E-08;0,000125122070312497;10;800;4,61137145757675E-07;-4,58511598408222E-07;100 nA
