Potential applied (V);Time (s);WE(1).Current (A);WE(1).Potential (V);Scan;Index;Q+;Q-;Current range;Overload
0,050048828125;8,4140359787566;1,702880859375E-08;0,04998779296875;1;1;7,7131524682045E-06;-4,02336493134498E-06;100 nA;
0,10009765625;9,41501297622938;2,6947021484375E-08;0,10009765625;1;2;7,7131524682045E-06;-4,02336493134498E-06;100 nA;
0,150146484375;10,4159899737022;4,4921875E-08;0,150054931640625;1;3;7,7131524682045E-06;-4,02336493134498E-06;100 nA;
0,2001953125;11,4169669711749;6,8817138671875E-08;0,199981689453125;1;4;7,7131524682045E-06;-4,02336493134498E-06;100 nA;
0,250244140625;12,4179439686477;9,576416015625E-08;0,250030517578125;1;5;7,7131524682045E-06;-4,02336493134498E-06;100 nA;
0,30029296875;13,4189209661205;1,2066650390625E-07;0,29998779296875;1;6;7,7131524682045E-06;-4,02336493134498E-06;100 nA;
0,350341796875;14,4198979635933;1,38214111328125E-07;0,35003662109375;1;7;7,7131524682045E-06;-4,02336493134498E-06;100 nA;
0,400390625;15,420874961066;1,44195556640625E-07;0,399993896484375;1;8;7,7131524682045E-06;-4,02336493134498E-06;100 nA;
0,450439453125;16,4218519585388;1,39892578125E-07;0,449920654296875;1;9;7,7131524682045E-06;-4,02336493134498E-06;100 nA;
0,50048828125;17,4228289560116;1,34185791015625E-07;0,49993896484375;1;10;7,7131524682045E-06;-4,02336493134498E-06;100 nA;
0,550537109375;18,4238059534844;1,37939453125E-07;0,54986572265625;1;11;7,7131524682045E-06;-4,02336493134498E-06;100 nA;
0,6005859375;19,4247829509571;1,66839599609375E-07;0,5997314453125;1;12;7,7131524682045E-06;-4,02336493134498E-06;100 nA;
0,650634765625;20,4257599484299;2,30560302734375E-07;0,649444580078125;1;13;7,7131524682045E-06;-4,02336493134498E-06;100 nA;
0,70068359375;21,4267369459027;5,594482421875E-07;0,698516845703125;1;14;7,7131524682045E-06;-4,02336493134498E-06;100 nA;Current overload
0,750732421875;22,4277139433755;6,732177734375E-07;0,749755859375;1;15;7,7131524682045E-06;-4,02336493134498E-06;1 µA;
0,80078125;23,4286909408482;6,3018798828125E-07;0,79925537109375;1;16;7,7131524682045E-06;-4,02336493134498E-06;1 µA;
0,850830078125;24,429667938321;6,18896484375E-07;0,849609375;1;17;7,7131524682045E-06;-4,02336493134498E-06;1 µA;
0,90087890625;25,4306449357938;6,1370849609375E-07;0,899658203125;1;18;7,7131524682045E-06;-4,02336493134498E-06;1 µA;
0,950927734375;26,4316219332666;6,060791015625E-07;0,94970703125;1;19;7,7131524682045E-06;-4,02336493134498E-06;1 µA;
1,0009765625;27,4325989307393;6,1370849609375E-07;0,999755859375;1;20;7,7131524682045E-06;-4,02336493134498E-06;1 µA;
0,950927734375;28,4335759282121;4,876708984375E-07;0,94970703125;1;21;7,7131524682045E-06;-4,02336493134498E-06;1 µA;
0,90087890625;29,4345529256849;4,083251953125E-07;0,89996337890625;1;22;7,7131524682045E-06;-4,02336493134498E-06;1 µA;
0,850830078125;30,4355299231577;3,4490966796875E-07;0,8502197265625;1;23;7,7131524682045E-06;-4,02336493134498E-06;1 µA;
0,80078125;31,4365069206305;2,79632568359375E-07;0,79986572265625;1;24;7,7131524682045E-06;-4,02336493134498E-06;1 µA;
0,750732421875;32,4374839181032;2,06329345703125E-07;0,749786376953125;1;25;7,7131524682045E-06;-4,02336493134498E-06;1 µA;
0,70068359375;33,438460915576;1,29913330078125E-07;0,69989013671875;1;26;7,7131524682045E-06;-4,02336493134498E-06;1 µA;
0,650634765625;34,4394379130488;5,5328369140625E-08;0,650054931640625;1;27;7,7131524682045E-06;-4,02336493134498E-06;1 µA;
0,6005859375;35,4404149105216;3,662109375E-10;0,60009765625;1;28;7,7131524682045E-06;-4,02336493134498E-06;1 µA;
0,550537109375;36,4413919079943;-2,8228759765625E-08;0,550079345703125;1;29;7,7131524682045E-06;-4,02336493134498E-06;1 µA;
0,50048828125;37,4423689054671;-4,443359375E-08;0,500152587890625;1;30;7,7131524682045E-06;-4,02336493134498E-06;1 µA;
0,450439453125;38,4433459029399;-5,7037353515625E-08;0,450103759765625;1;31;7,7131524682045E-06;-4,02336493134498E-06;1 µA;
0,400390625;39,4443229004127;-6,9854736328125E-08;0,400299072265625;1;32;7,7131524682045E-06;-4,02336493134498E-06;100 nA;
0,350341796875;40,4452998978854;-8,2611083984375E-08;0,35028076171875;1;33;7,7131524682045E-06;-4,02336493134498E-06;100 nA;
0,30029296875;41,4462768953582;-8,65478515625E-08;0,300201416015625;1;34;7,7131524682045E-06;-4,02336493134498E-06;100 nA;
0,250244140625;42,447253892831;-8,4014892578125E-08;0,250152587890625;1;35;7,7131524682045E-06;-4,02336493134498E-06;100 nA;
0,2001953125;43,4482308903038;-8,3770751953125E-08;0,200103759765625;1;36;7,7131524682045E-06;-4,02336493134498E-06;100 nA;
0,150146484375;44,4492078877765;-8,270263671875E-08;0,150054931640625;1;37;7,7131524682045E-06;-4,02336493134498E-06;100 nA;
0,10009765625;45,4501848852493;-8,0810546875E-08;0,10003662109375;1;38;7,7131524682045E-06;-4,02336493134498E-06;100 nA;
0,050048828125;46,4511618827221;-8,123779296875E-08;0,050079345703125;1;39;7,7131524682045E-06;-4,02336493134498E-06;100 nA;
0;47,4521388801949;-8,0322265625E-08;7,93457031249972E-05;1;40;7,7131524682045E-06;-4,02336493134498E-06;100 nA;
-0,050048828125;48,4531158776676;-7,403564453125E-08;-0,0498046875;1;41;7,7131524682045E-06;-4,02336493134498E-06;100 nA;
-0,10009765625;49,4540928751404;-6,781005859375E-08;-0,09967041015625;1;42;7,7131524682045E-06;-4,02336493134498E-06;100 nA;
-0,150146484375;50,4550698726132;-6,4300537109375E-08;-0,1495361328125;1;43;7,7131524682045E-06;-4,02336493134498E-06;100 nA;
-0,2001953125;51,456046870086;-6,304931640625E-08;-0,199432373046875;1;44;7,7131524682045E-06;-4,02336493134498E-06;100 nA;
-0,250244140625;52,4570238675587;-6,40869140625E-08;-0,249267578125;1;45;7,7131524682045E-06;-4,02336493134498E-06;100 nA;
-0,30029296875;53,4580008650315;-6,73828125E-08;-0,299072265625;1;46;7,7131524682045E-06;-4,02336493134498E-06;100 nA;
-0,350341796875;54,4589778625043;-7,5103759765625E-08;-0,349029541015625;1;47;7,7131524682045E-06;-4,02336493134498E-06;100 nA;
-0,400390625;55,4599548599771;-9,16748046875E-08;-0,39892578125;1;48;7,7131524682045E-06;-4,02336493134498E-06;100 nA;
-0,450439453125;56,4609318574499;-1,1309814453125E-07;-0,448699951171875;1;49;7,7131524682045E-06;-4,02336493134498E-06;100 nA;
-0,50048828125;57,4619088549226;-1,41937255859375E-07;-0,49847412109375;1;50;7,7131524682045E-06;-4,02336493134498E-06;100 nA;
-0,550537109375;58,4628858523954;-1,76544189453125E-07;-0,548370361328125;1;51;7,7131524682045E-06;-4,02336493134498E-06;100 nA;
-0,6005859375;59,4638628498682;-2,06573486328125E-07;-0,5982666015625;1;52;7,7131524682045E-06;-4,02336493134498E-06;100 nA;
-0,650634765625;60,464839847341;-2,31231689453125E-07;-0,64825439453125;1;53;7,7131524682045E-06;-4,02336493134498E-06;100 nA;
-0,70068359375;61,4658168448137;-2,5518798828125E-07;-0,698211669921875;1;54;7,7131524682045E-06;-4,02336493134498E-06;100 nA;
-0,750732421875;62,4667938422865;-2,823486328125E-07;-0,74822998046875;1;55;7,7131524682045E-06;-4,02336493134498E-06;100 nA;
-0,80078125;63,4677708397593;-3,16162109375E-07;-0,79864501953125;1;56;7,7131524682045E-06;-4,02336493134498E-06;100 nA;
-0,750732421875;64,4687478372321;-2,51861572265625E-07;-0,748565673828125;1;57;7,7131524682045E-06;-4,02336493134498E-06;1 µA;
-0,70068359375;65,4697248347048;-2,01141357421875E-07;-0,698577880859375;1;58;7,7131524682045E-06;-4,02336493134498E-06;1 µA;
-0,650634765625;66,4707018321776;-1,5533447265625E-07;-0,648529052734375;1;59;7,7131524682045E-06;-4,02336493134498E-06;1 µA;
-0,6005859375;67,4716788296504;-1,09466552734375E-07;-0,598602294921875;1;60;7,7131524682045E-06;-4,02336493134498E-06;1 µA;
-0,550537109375;68,4726558271232;-6,4178466796875E-08;-0,54876708984375;1;61;7,7131524682045E-06;-4,02336493134498E-06;1 µA;
-0,50048828125;69,4736328245959;-3,2196044921875E-08;-0,498809814453125;1;62;7,7131524682045E-06;-4,02336493134498E-06;1 µA;
-0,450439453125;70,4746098220687;-1,8341064453125E-08;-0,44891357421875;1;63;7,7131524682045E-06;-4,02336493134498E-06;1 µA;
-0,400390625;71,4755868195415;-1,26953125E-08;-0,399078369140625;1;64;7,7131524682045E-06;-4,02336493134498E-06;1 µA;
-0,350341796875;72,4765638170143;-9,185791015625E-09;-0,349212646484375;1;65;7,7131524682045E-06;-4,02336493134498E-06;1 µA;
-0,30029296875;73,477540814487;-6,40869140625E-09;-0,2991943359375;1;66;7,7131524682045E-06;-4,02336493134498E-06;100 nA;
-0,250244140625;74,4785178119598;-3,875732421875E-09;-0,249267578125;1;67;7,7131524682045E-06;-4,02336493134498E-06;100 nA;
-0,2001953125;75,4794948094326;-1,8310546875E-09;-0,19940185546875;1;68;7,7131524682045E-06;-4,02336493134498E-06;100 nA;
-0,150146484375;76,4804718069054;-8,23974609375E-10;-0,149566650390625;1;69;7,7131524682045E-06;-4,02336493134498E-06;100 nA;
-0,10009765625;77,4814488043781;1,5869140625E-09;-0,0997314453125;1;70;7,7131524682045E-06;-4,02336493134498E-06;100 nA;
-0,050048828125;78,4824258018509;3,570556640625E-09;-0,049835205078125;1;71;7,7131524682045E-06;-4,02336493134498E-06;100 nA;
0;79,4834027993237;6,77490234375E-09;9,1552734375E-05;1;72;7,7131524682045E-06;-4,02336493134498E-06;100 nA;
0,050048828125;80,4843797967965;1,2420654296875E-08;0,0500823974609375;2;73;6,33812323212624E-06;-4,14491295814514E-06;100 nA;
0,10009765625;81,4853567942693;1,7242431640625E-08;0,099945068359375;2;74;6,33812323212624E-06;-4,14491295814514E-06;100 nA;
0,150146484375;82,486333791742;2,5299072265625E-08;0,14984130859375;2;75;6,33812323212624E-06;-4,14491295814514E-06;100 nA;
0,2001953125;83,4873107892148;3,5797119140625E-08;0,19989013671875;2;76;6,33812323212624E-06;-4,14491295814514E-06;100 nA;
0,250244140625;84,4882877866876;4,595947265625E-08;0,2498779296875;2;77;6,33812323212624E-06;-4,14491295814514E-06;100 nA;
0,30029296875;85,4892647841604;5,60302734375E-08;0,299896240234375;2;78;6,33812323212624E-06;-4,14491295814514E-06;100 nA;
0,350341796875;86,4902417816331;6,488037109375E-08;0,3499755859375;2;79;6,33812323212624E-06;-4,14491295814514E-06;100 nA;
0,400390625;87,4912187791059;6,8878173828125E-08;0,399993896484375;2;80;6,33812323212624E-06;-4,14491295814514E-06;100 nA;
0,450439453125;88,4921957765787;6,6619873046875E-08;0,45001220703125;2;81;6,33812323212624E-06;-4,14491295814514E-06;100 nA;
0,50048828125;89,4931727740515;6,4239501953125E-08;0,50006103515625;2;82;6,33812323212624E-06;-4,14491295814514E-06;100 nA;
0,550537109375;90,4941497715242;7,23876953125E-08;0,550018310546875;2;83;6,33812323212624E-06;-4,14491295814514E-06;100 nA;
0,6005859375;91,495126768997;1,04644775390625E-07;0,60003662109375;2;84;6,33812323212624E-06;-4,14491295814514E-06;100 nA;
0,650634765625;92,4961037664698;1,75506591796875E-07;0,649749755859375;2;85;6,33812323212624E-06;-4,14491295814514E-06;100 nA;
0,70068359375;93,4970807639426;5,3594970703125E-07;0,698638916015625;2;86;6,33812323212624E-06;-4,14491295814514E-06;100 nA;Current overload
0,750732421875;94,4980577614153;5,908203125E-07;0,74981689453125;2;87;6,33812323212624E-06;-4,14491295814514E-06;1 µA;
0,80078125;95,4990347588881;5,5755615234375E-07;0,8001708984375;2;88;6,33812323212624E-06;-4,14491295814514E-06;1 µA;
0,850830078125;96,5000117563609;5,3192138671875E-07;0,84991455078125;2;89;6,33812323212624E-06;-4,14491295814514E-06;1 µA;
0,90087890625;97,5009887538337;5,181884765625E-07;0,899658203125;2;90;6,33812323212624E-06;-4,14491295814514E-06;1 µA;
0,950927734375;98,5019657513064;5,2032470703125E-07;0,95001220703125;2;91;6,33812323212624E-06;-4,14491295814514E-06;1 µA;
1,0009765625;99,5029427487792;5,3924560546875E-07;0,99945068359375;2;92;6,33812323212624E-06;-4,14491295814514E-06;1 µA;
0,950927734375;100,503919746252;4,33349609375E-07;0,94970703125;2;93;6,33812323212624E-06;-4,14491295814514E-06;1 µA;
0,90087890625;101,504896743725;3,68621826171875E-07;0,89935302734375;2;94;6,33812323212624E-06;-4,14491295814514E-06;1 µA;
0,850830078125;102,505873741198;3,1427001953125E-07;0,849609375;2;95;6,33812323212624E-06;-4,14491295814514E-06;1 µA;
0,80078125;103,50685073867;2,5628662109375E-07;0,8001708984375;2;96;6,33812323212624E-06;-4,14491295814514E-06;1 µA;
0,750732421875;104,507827736143;1,881103515625E-07;0,74981689453125;2;97;6,33812323212624E-06;-4,14491295814514E-06;1 µA;
0,70068359375;105,508804733616;1,1553955078125E-07;0,69989013671875;2;98;6,33812323212624E-06;-4,14491295814514E-06;1 µA;
0,650634765625;106,509781731089;4,40673828125E-08;0,650054931640625;2;99;6,33812323212624E-06;-4,14491295814514E-06;1 µA;
0,6005859375;107,510758728561;-8,819580078125E-09;0,600128173828125;2;100;6,33812323212624E-06;-4,14491295814514E-06;1 µA;
0,550537109375;108,511735726034;-3,7506103515625E-08;0,550048828125;2;101;6,33812323212624E-06;-4,14491295814514E-06;1 µA;
0,50048828125;109,512712723507;-5,462646484375E-08;0,50006103515625;2;102;6,33812323212624E-06;-4,14491295814514E-06;1 µA;
0,450439453125;110,51368972098;-6,744384765625E-08;0,4500732421875;2;103;6,33812323212624E-06;-4,14491295814514E-06;1 µA;
0,400390625;111,514666718453;-8,050537109375E-08;0,400054931640625;2;104;6,33812323212624E-06;-4,14491295814514E-06;100 nA;
0,350341796875;112,515643715925;-9,1033935546875E-08;0,350067138671875;2;105;6,33812323212624E-06;-4,14491295814514E-06;100 nA;
0,30029296875;113,516620713398;-9,3017578125E-08;0,300140380859375;2;106;6,33812323212624E-06;-4,14491295814514E-06;100 nA;
0,250244140625;114,517597710871;-9,04541015625E-08;0,250091552734375;2;107;6,33812323212624E-06;-4,14491295814514E-06;100 nA;
0,2001953125;115,518574708344;-9,0423583984375E-08;0,200103759765625;2;108;6,33812323212624E-06;-4,14491295814514E-06;100 nA;
0,150146484375;116,519551705816;-8,8623046875E-08;0,15020751953125;2;109;6,33812323212624E-06;-4,14491295814514E-06;100 nA;
0,10009765625;117,520528703289;-8,4747314453125E-08;0,100250244140625;2;110;6,33812323212624E-06;-4,14491295814514E-06;100 nA;
0,050048828125;118,521505700762;-8,135986328125E-08;0,05023193359375;2;111;6,33812323212624E-06;-4,14491295814514E-06;100 nA;
0;119,522482698235;-7,794189453125E-08;0,000146484375000006;2;112;6,33812323212624E-06;-4,14491295814514E-06;100 nA;
-0,050048828125;120,523459695708;-7,4493408203125E-08;-0,049713134765625;2;113;6,33812323212624E-06;-4,14491295814514E-06;100 nA;
-0,10009765625;121,52443669318;-7,183837890625E-08;-0,0994873046875;2;114;6,33812323212624E-06;-4,14491295814514E-06;100 nA;
-0,150146484375;122,525413690653;-7,04345703125E-08;-0,1494140625;2;115;6,33812323212624E-06;-4,14491295814514E-06;100 nA;
-0,2001953125;123,526390688126;-7,0404052734375E-08;-0,199371337890625;2;116;6,33812323212624E-06;-4,14491295814514E-06;100 nA;
-0,250244140625;124,527367685599;-7,2052001953125E-08;-0,249267578125;2;117;6,33812323212624E-06;-4,14491295814514E-06;100 nA;
-0,30029296875;125,528344683071;-7,647705078125E-08;-0,29925537109375;2;118;6,33812323212624E-06;-4,14491295814514E-06;100 nA;
-0,350341796875;126,529321680544;-8,526611328125E-08;-0,34912109375;2;119;6,33812323212624E-06;-4,14491295814514E-06;100 nA;
-0,400390625;127,530298678017;-1,0150146484375E-07;-0,3990478515625;2;120;6,33812323212624E-06;-4,14491295814514E-06;100 nA;
-0,450439453125;128,53127567549;-1,2225341796875E-07;-0,448883056640625;2;121;6,33812323212624E-06;-4,14491295814514E-06;100 nA;
-0,50048828125;129,532252672963;-1,48162841796875E-07;-0,498779296875;2;122;6,33812323212624E-06;-4,14491295814514E-06;100 nA;
-0,550537109375;130,533229670435;-1,7828369140625E-07;-0,5487060546875;2;123;6,33812323212624E-06;-4,14491295814514E-06;100 nA;
-0,6005859375;131,534206667908;-2,04345703125E-07;-0,598541259765625;2;124;6,33812323212624E-06;-4,14491295814514E-06;100 nA;
-0,650634765625;132,535183665381;-2,2509765625E-07;-0,64837646484375;2;125;6,33812323212624E-06;-4,14491295814514E-06;100 nA;
-0,70068359375;133,536160662854;-2,45147705078125E-07;-0,6982421875;2;126;6,33812323212624E-06;-4,14491295814514E-06;100 nA;
-0,750732421875;134,537137660326;-2,70843505859375E-07;-0,74810791015625;2;127;6,33812323212624E-06;-4,14491295814514E-06;100 nA;
-0,80078125;135,538114657799;-3,05511474609375E-07;-0,79833984375;2;128;6,33812323212624E-06;-4,14491295814514E-06;100 nA;
-0,750732421875;136,539091655272;-2,4395751953125E-07;-0,748565673828125;2;129;6,33812323212624E-06;-4,14491295814514E-06;1 µA;
-0,70068359375;137,540068652745;-1,95281982421875E-07;-0,69854736328125;2;130;6,33812323212624E-06;-4,14491295814514E-06;1 µA;
-0,650634765625;138,541045650217;-1,5203857421875E-07;-0,6485595703125;2;131;6,33812323212624E-06;-4,14491295814514E-06;1 µA;
-0,6005859375;139,54202264769;-1,08428955078125E-07;-0,598663330078125;2;132;6,33812323212624E-06;-4,14491295814514E-06;1 µA;
-0,550537109375;140,542999645163;-6,5826416015625E-08;-0,548736572265625;2;133;6,33812323212624E-06;-4,14491295814514E-06;1 µA;
-0,50048828125;141,543976642636;-3,52783203125E-08;-0,498870849609375;2;134;6,33812323212624E-06;-4,14491295814514E-06;1 µA;
-0,450439453125;142,544953640109;-2,1759033203125E-08;-0,44891357421875;2;135;6,33812323212624E-06;-4,14491295814514E-06;1 µA;
-0,400390625;143,545930637581;-1,5716552734375E-08;-0,3990478515625;2;136;6,33812323212624E-06;-4,14491295814514E-06;1 µA;
-0,350341796875;144,546907635054;-1,2176513671875E-08;-0,34918212890625;2;137;6,33812323212624E-06;-4,14491295814514E-06;1 µA;
-0,30029296875;145,547884632527;-9,613037109375E-09;-0,2991943359375;2;138;6,33812323212624E-06;-4,14491295814514E-06;100 nA;
-0,250244140625;146,54886163;-6,439208984375E-09;-0,249420166015625;2;139;6,33812323212624E-06;-4,14491295814514E-06;100 nA;
-0,2001953125;147,549838627472;-3,875732421875E-09;-0,19940185546875;2;140;6,33812323212624E-06;-4,14491295814514E-06;100 nA;
-0,150146484375;148,550815624945;-1,861572265625E-09;-0,149627685546875;2;141;6,33812323212624E-06;-4,14491295814514E-06;100 nA;
-0,10009765625;149,551792622418;1,52587890625E-10;-0,09979248046875;2;142;6,33812323212624E-06;-4,14491295814514E-06;100 nA;
-0,050048828125;150,552769619891;2,044677734375E-09;-0,0499267578125;2;143;6,33812323212624E-06;-4,14491295814514E-06;100 nA;
0;151,553746617364;5,584716796875E-09;7,93457031249972E-05;2;144;6,33812323212624E-06;-4,14491295814514E-06;100 nA;
0,050048828125;152,554723614836;1,1138916015625E-08;0,050115966796875;3;145;6,11167550086975E-06;-4,27076816558838E-06;100 nA;
0,10009765625;153,555700612309;1,5228271484375E-08;0,099884033203125;3;146;6,11167550086975E-06;-4,27076816558838E-06;100 nA;
0,150146484375;154,556677609782;2,1942138671875E-08;0,149871826171875;3;147;6,11167550086975E-06;-4,27076816558838E-06;100 nA;
0,2001953125;155,557654607255;3,02734375E-08;0,19989013671875;3;148;6,11167550086975E-06;-4,27076816558838E-06;100 nA;
0,250244140625;156,558631604727;3,8116455078125E-08;0,24993896484375;3;149;6,11167550086975E-06;-4,27076816558838E-06;100 nA;
0,30029296875;157,5596086022;4,6173095703125E-08;0,299896240234375;3;150;6,11167550086975E-06;-4,27076816558838E-06;100 nA;
0,350341796875;158,560585599673;5,181884765625E-08;0,349945068359375;3;151;6,11167550086975E-06;-4,27076816558838E-06;100 nA;
0,400390625;159,561562597146;5,5023193359375E-08;0,4000244140625;3;152;6,11167550086975E-06;-4,27076816558838E-06;100 nA;
0,450439453125;160,562539594619;5,438232421875E-08;0,45001220703125;3;153;6,11167550086975E-06;-4,27076816558838E-06;100 nA;
0,50048828125;161,563516592091;5,523681640625E-08;0,500030517578125;3;154;6,11167550086975E-06;-4,27076816558838E-06;100 nA;
0,550537109375;162,564493589564;6,6558837890625E-08;0,550048828125;3;155;6,11167550086975E-06;-4,27076816558838E-06;100 nA;
0,6005859375;163,565470587037;1,038818359375E-07;0,600067138671875;3;156;6,11167550086975E-06;-4,27076816558838E-06;100 nA;
0,650634765625;164,56644758451;1,910400390625E-07;0,649627685546875;3;157;6,11167550086975E-06;-4,27076816558838E-06;100 nA;
0,70068359375;165,567424581982;5,14068603515625E-07;0,698974609375;3;158;6,11167550086975E-06;-4,27076816558838E-06;100 nA;Current overload
0,750732421875;166,568401579455;5,72509765625E-07;0,749755859375;3;159;6,11167550086975E-06;-4,27076816558838E-06;1 µA;
0,80078125;167,569378576928;5,4351806640625E-07;0,79986572265625;3;160;6,11167550086975E-06;-4,27076816558838E-06;1 µA;
0,850830078125;168,570355574401;5,1544189453125E-07;0,849609375;3;161;6,11167550086975E-06;-4,27076816558838E-06;1 µA;
0,90087890625;169,571332571874;5,0079345703125E-07;0,899658203125;3;162;6,11167550086975E-06;-4,27076816558838E-06;1 µA;
0,950927734375;170,572309569346;5,047607421875E-07;0,94940185546875;3;163;6,11167550086975E-06;-4,27076816558838E-06;1 µA;
1,0009765625;171,573286566819;5,2520751953125E-07;0,99945068359375;3;164;6,11167550086975E-06;-4,27076816558838E-06;1 µA;
0,950927734375;172,574263564292;4,2327880859375E-07;0,95001220703125;3;165;6,11167550086975E-06;-4,27076816558838E-06;1 µA;
0,90087890625;173,575240561765;3,60565185546875E-07;0,899658203125;3;166;6,11167550086975E-06;-4,27076816558838E-06;1 µA;
0,850830078125;174,576217559237;3,08135986328125E-07;0,849609375;3;167;6,11167550086975E-06;-4,27076816558838E-06;1 µA;
0,80078125;175,57719455671;2,5152587890625E-07;0,79986572265625;3;168;6,11167550086975E-06;-4,27076816558838E-06;1 µA;
0,750732421875;176,578171554183;1,83990478515625E-07;0,749847412109375;3;169;6,11167550086975E-06;-4,27076816558838E-06;1 µA;
0,70068359375;177,579148551656;1,11724853515625E-07;0,699951171875;3;170;6,11167550086975E-06;-4,27076816558838E-06;1 µA;
0,650634765625;178,580125549129;4,119873046875E-08;0,64996337890625;3;171;6,11167550086975E-06;-4,27076816558838E-06;1 µA;
0,6005859375;179,581102546601;-1,1199951171875E-08;0,600128173828125;3;172;6,11167550086975E-06;-4,27076816558838E-06;1 µA;
0,550537109375;180,582079544074;-4,0191650390625E-08;0,55010986328125;3;173;6,11167550086975E-06;-4,27076816558838E-06;1 µA;
0,50048828125;181,583056541547;-5,780029296875E-08;0,500152587890625;3;174;6,11167550086975E-06;-4,27076816558838E-06;1 µA;
0,450439453125;182,58403353902;-6,976318359375E-08;0,450103759765625;3;175;6,11167550086975E-06;-4,27076816558838E-06;1 µA;
0,400390625;183,585010536492;-8,16650390625E-08;0,400299072265625;3;176;6,11167550086975E-06;-4,27076816558838E-06;100 nA;
0,350341796875;184,585987533965;-9,1400146484375E-08;0,3502197265625;3;177;6,11167550086975E-06;-4,27076816558838E-06;100 nA;
0,30029296875;185,586964531438;-9,2987060546875E-08;0,300140380859375;3;178;6,11167550086975E-06;-4,27076816558838E-06;100 nA;
0,250244140625;186,587941528911;-9,16748046875E-08;0,250152587890625;3;179;6,11167550086975E-06;-4,27076816558838E-06;100 nA;
0,2001953125;187,588918526384;-9,2529296875E-08;0,2000732421875;3;180;6,11167550086975E-06;-4,27076816558838E-06;100 nA;
0,150146484375;188,589895523856;-9,039306640625E-08;0,150054931640625;3;181;6,11167550086975E-06;-4,27076816558838E-06;100 nA;
0,10009765625;189,590872521329;-8,6181640625E-08;0,10009765625;3;182;6,11167550086975E-06;-4,27076816558838E-06;100 nA;
0,050048828125;190,591849518802;-8,2366943359375E-08;0,050079345703125;3;183;6,11167550086975E-06;-4,27076816558838E-06;100 nA;
0;191,592826516275;-7,9559326171875E-08;8,23974609374944E-05;3;184;6,11167550086975E-06;-4,27076816558838E-06;100 nA;
-0,050048828125;192,593803513747;-7,7239990234375E-08;-0,049835205078125;3;185;6,11167550086975E-06;-4,27076816558838E-06;100 nA;
-0,10009765625;193,59478051122;-7,5103759765625E-08;-0,0997314453125;3;186;6,11167550086975E-06;-4,27076816558838E-06;100 nA;
-0,150146484375;194,595757508693;-7,4005126953125E-08;-0,1495361328125;3;187;6,11167550086975E-06;-4,27076816558838E-06;100 nA;
-0,2001953125;195,596734506166;-7,4005126953125E-08;-0,199371337890625;3;188;6,11167550086975E-06;-4,27076816558838E-06;100 nA;
-0,250244140625;196,597711503638;-7,5714111328125E-08;-0,24920654296875;3;189;6,11167550086975E-06;-4,27076816558838E-06;100 nA;
-0,30029296875;197,598688501111;-8,026123046875E-08;-0,299163818359375;3;190;6,11167550086975E-06;-4,27076816558838E-06;100 nA;
-0,350341796875;198,599665498584;-8,9385986328125E-08;-0,349029541015625;3;191;6,11167550086975E-06;-4,27076816558838E-06;100 nA;
-0,400390625;199,600642496057;-1,05682373046875E-07;-0,39892578125;3;192;6,11167550086975E-06;-4,27076816558838E-06;100 nA;
-0,450439453125;200,60161949353;-1,253662109375E-07;-0,448699951171875;3;193;6,11167550086975E-06;-4,27076816558838E-06;100 nA;
-0,50048828125;201,602596491002;-1,50390625E-07;-0,49847412109375;3;194;6,11167550086975E-06;-4,27076816558838E-06;100 nA;
-0,550537109375;202,603573488475;-1,80450439453125E-07;-0,54840087890625;3;195;6,11167550086975E-06;-4,27076816558838E-06;100 nA;
-0,6005859375;203,604550485948;-2,0703125E-07;-0,59814453125;3;196;6,11167550086975E-06;-4,27076816558838E-06;100 nA;
-0,650634765625;204,605527483421;-2,28729248046875E-07;-0,648162841796875;3;197;6,11167550086975E-06;-4,27076816558838E-06;100 nA;
-0,70068359375;205,606504480893;-2,5E-07;-0,6981201171875;3;198;6,11167550086975E-06;-4,27076816558838E-06;100 nA;
-0,750732421875;206,607481478366;-2,77099609375E-07;-0,7481689453125;3;199;6,11167550086975E-06;-4,27076816558838E-06;100 nA;
-0,80078125;207,608458475839;-3,1207275390625E-07;-0,79864501953125;3;200;6,11167550086975E-06;-4,27076816558838E-06;100 nA;
-0,750732421875;208,609435473312;-2,50640869140625E-07;-0,74853515625;3;201;6,11167550086975E-06;-4,27076816558838E-06;1 µA;
-0,70068359375;209,610412470785;-2,0147705078125E-07;-0,69854736328125;3;202;6,11167550086975E-06;-4,27076816558838E-06;1 µA;
-0,650634765625;210,611389468257;-1,5667724609375E-07;-0,648529052734375;3;203;6,11167550086975E-06;-4,27076816558838E-06;1 µA;
-0,6005859375;211,61236646573;-1,1260986328125E-07;-0,598663330078125;3;204;6,11167550086975E-06;-4,27076816558838E-06;1 µA;
-0,550537109375;212,613343463203;-6,9610595703125E-08;-0,548736572265625;3;205;6,11167550086975E-06;-4,27076816558838E-06;1 µA;
-0,50048828125;213,614320460676;-3,89404296875E-08;-0,49884033203125;3;206;6,11167550086975E-06;-4,27076816558838E-06;1 µA;
-0,450439453125;214,615297458148;-2,5238037109375E-08;-0,448944091796875;3;207;6,11167550086975E-06;-4,27076816558838E-06;1 µA;
-0,400390625;215,616274455621;-1,934814453125E-08;-0,3990478515625;3;208;6,11167550086975E-06;-4,27076816558838E-06;1 µA;
-0,350341796875;216,617251453094;-1,4892578125E-08;-0,349151611328125;3;209;6,11167550086975E-06;-4,27076816558838E-06;1 µA;
-0,30029296875;217,618228450567;-1,1688232421875E-08;-0,299224853515625;3;210;6,11167550086975E-06;-4,27076816558838E-06;100 nA;
-0,250244140625;218,61920544804;-8,056640625E-09;-0,249267578125;3;211;6,11167550086975E-06;-4,27076816558838E-06;100 nA;
-0,2001953125;219,620182445512;-5,157470703125E-09;-0,199432373046875;3;212;6,11167550086975E-06;-4,27076816558838E-06;100 nA;
-0,150146484375;220,621159442985;-2,01416015625E-09;-0,149444580078125;3;213;6,11167550086975E-06;-4,27076816558838E-06;100 nA;
-0,10009765625;221,622136440458;6,103515625E-11;-0,099609375;3;214;6,11167550086975E-06;-4,27076816558838E-06;100 nA;
-0,050048828125;222,623113437931;2,288818359375E-09;-0,0497467041015625;3;215;6,11167550086975E-06;-4,27076816558838E-06;100 nA;
0;223,624090435403;5,828857421875E-09;0,0001068115234375;3;216;6,11167550086975E-06;-4,27076816558838E-06;100 nA;
0,050048828125;224,625067432876;1,043701171875E-08;0,050048828125;4;217;6,02907538414002E-06;-4,34982478618622E-06;100 nA;
0,10009765625;225,626044430349;1,4617919921875E-08;0,100006103515625;4;218;6,02907538414002E-06;-4,34982478618622E-06;100 nA;
0,150146484375;226,627021427822;2,1148681640625E-08;0,149932861328125;4;219;6,02907538414002E-06;-4,34982478618622E-06;100 nA;
0,2001953125;227,627998425295;2,8472900390625E-08;0,19989013671875;4;220;6,02907538414002E-06;-4,34982478618622E-06;100 nA;
0,250244140625;228,628975422767;3,5400390625E-08;0,2498779296875;4;221;6,02907538414002E-06;-4,34982478618622E-06;100 nA;
0,30029296875;229,62995242024;4,2205810546875E-08;0,29986572265625;4;222;6,02907538414002E-06;-4,34982478618622E-06;100 nA;
0,350341796875;230,630929417713;4,8492431640625E-08;0,349884033203125;4;223;6,02907538414002E-06;-4,34982478618622E-06;100 nA;
0,400390625;231,631906415186;5,169677734375E-08;0,39996337890625;4;224;6,02907538414002E-06;-4,34982478618622E-06;100 nA;
0,450439453125;232,632883412658;5,145263671875E-08;0,45001220703125;4;225;6,02907538414002E-06;-4,34982478618622E-06;100 nA;
0,50048828125;233,633860410131;5,31005859375E-08;0,500030517578125;4;226;6,02907538414002E-06;-4,34982478618622E-06;100 nA;
0,550537109375;234,634837407604;6,53076171875E-08;0,550048828125;4;227;6,02907538414002E-06;-4,34982478618622E-06;100 nA;
0,6005859375;235,635814405077;1,05010986328125E-07;0,600006103515625;4;228;6,02907538414002E-06;-4,34982478618622E-06;100 nA;
0,650634765625;236,63679140255;2,034912109375E-07;0,6497802734375;4;229;6,02907538414002E-06;-4,34982478618622E-06;100 nA;
0,70068359375;237,637768400022;5,00244140625E-07;0,698944091796875;4;230;6,02907538414002E-06;-4,34982478618622E-06;100 nA;Current overload
0,750732421875;238,638745397495;5,572509765625E-07;0,749755859375;4;231;6,02907538414002E-06;-4,34982478618622E-06;1 µA;
0,80078125;239,639722394968;5,3253173828125E-07;0,79986572265625;4;232;6,02907538414002E-06;-4,34982478618622E-06;1 µA;
0,850830078125;240,640699392441;5,0750732421875E-07;0,84930419921875;4;233;6,02907538414002E-06;-4,34982478618622E-06;1 µA;
0,90087890625;241,641676389913;4,9591064453125E-07;0,899658203125;4;234;6,02907538414002E-06;-4,34982478618622E-06;1 µA;
0,950927734375;242,642653387386;5,010986328125E-07;0,94940185546875;4;235;6,02907538414002E-06;-4,34982478618622E-06;1 µA;
1,0009765625;243,643630384859;5,2154541015625E-07;0,99945068359375;4;236;6,02907538414002E-06;-4,34982478618622E-06;1 µA;
0,950927734375;244,644607382332;4,21142578125E-07;0,94970703125;4;237;6,02907538414002E-06;-4,34982478618622E-06;1 µA;
0,90087890625;245,645584379805;3,59161376953125E-07;0,89996337890625;4;238;6,02907538414002E-06;-4,34982478618622E-06;1 µA;
0,850830078125;246,646561377277;3,06884765625E-07;0,84991455078125;4;239;6,02907538414002E-06;-4,34982478618622E-06;1 µA;
0,80078125;247,64753837475;2,50579833984375E-07;0,799560546875;4;240;6,02907538414002E-06;-4,34982478618622E-06;1 µA;
0,750732421875;248,648515372223;1,83074951171875E-07;0,749786376953125;4;241;6,02907538414002E-06;-4,34982478618622E-06;1 µA;
0,70068359375;249,649492369696;1,10626220703125E-07;0,69989013671875;4;242;6,02907538414002E-06;-4,34982478618622E-06;1 µA;
0,650634765625;250,650469367168;4,0008544921875E-08;0,6500244140625;4;243;6,02907538414002E-06;-4,34982478618622E-06;1 µA;
0,6005859375;251,651446364641;-1,2359619140625E-08;0,60015869140625;4;244;6,02907538414002E-06;-4,34982478618622E-06;1 µA;
0,550537109375;252,652423362114;-4,1534423828125E-08;0,550048828125;4;245;6,02907538414002E-06;-4,34982478618622E-06;1 µA;
0,50048828125;253,653400359587;-5,8990478515625E-08;0,500152587890625;4;246;6,02907538414002E-06;-4,34982478618622E-06;1 µA;
0,450439453125;254,65437735706;-7,073974609375E-08;0,450103759765625;4;247;6,02907538414002E-06;-4,34982478618622E-06;1 µA;
0,400390625;255,655354354532;-8,16650390625E-08;0,400360107421875;4;248;6,02907538414002E-06;-4,34982478618622E-06;100 nA;
0,350341796875;256,656331352005;-9,0301513671875E-08;0,350311279296875;4;249;6,02907538414002E-06;-4,34982478618622E-06;100 nA;
0,30029296875;257,657308349478;-9,161376953125E-08;0,30023193359375;4;250;6,02907538414002E-06;-4,34982478618622E-06;100 nA;
0,250244140625;258,658285346951;-9,100341796875E-08;0,25018310546875;4;251;6,02907538414002E-06;-4,34982478618622E-06;100 nA;
0,2001953125;259,659262344423;-9,2620849609375E-08;0,2000732421875;4;252;6,02907538414002E-06;-4,34982478618622E-06;100 nA;
0,150146484375;260,660239341896;-9,027099609375E-08;0,150054931640625;4;253;6,02907538414002E-06;-4,34982478618622E-06;100 nA;
0,10009765625;261,661216339369;-8,6456298828125E-08;0,100067138671875;4;254;6,02907538414002E-06;-4,34982478618622E-06;100 nA;
0,050048828125;262,662193336842;-8,2611083984375E-08;0,05010986328125;4;255;6,02907538414002E-06;-4,34982478618622E-06;100 nA;
0;263,663170334314;-8,0413818359375E-08;8,23974609374944E-05;4;256;6,02907538414002E-06;-4,34982478618622E-06;100 nA;
-0,050048828125;264,664147331787;-7,891845703125E-08;-0,0498046875;4;257;6,02907538414002E-06;-4,34982478618622E-06;100 nA;
-0,10009765625;265,66512432926;-7,6934814453125E-08;-0,0997314453125;4;258;6,02907538414002E-06;-4,34982478618622E-06;100 nA;
-0,150146484375;266,666101326733;-7,623291015625E-08;-0,149505615234375;4;259;6,02907538414002E-06;-4,34982478618622E-06;100 nA;
-0,2001953125;267,667078324206;-7,6385498046875E-08;-0,19940185546875;4;260;6,02907538414002E-06;-4,34982478618622E-06;100 nA;
-0,250244140625;268,668055321678;-7,8460693359375E-08;-0,249176025390625;4;261;6,02907538414002E-06;-4,34982478618622E-06;100 nA;
-0,30029296875;269,669032319151;-8,2763671875E-08;-0,299102783203125;4;262;6,02907538414002E-06;-4,34982478618622E-06;100 nA;
-0,350341796875;270,670009316624;-9,228515625E-08;-0,348968505859375;4;263;6,02907538414002E-06;-4,34982478618622E-06;100 nA;
-0,400390625;271,670986314097;-1,0906982421875E-07;-0,39886474609375;4;264;6,02907538414002E-06;-4,34982478618622E-06;100 nA;
-0,450439453125;272,671963311569;-1,27410888671875E-07;-0,44866943359375;4;265;6,02907538414002E-06;-4,34982478618622E-06;100 nA;
-0,50048828125;273,672940309042;-1,5240478515625E-07;-0,498504638671875;4;266;6,02907538414002E-06;-4,34982478618622E-06;100 nA;
-0,550537109375;274,673917306515;-1,82952880859375E-07;-0,54833984375;4;267;6,02907538414002E-06;-4,34982478618622E-06;100 nA;
-0,6005859375;275,674894303988;-2,0965576171875E-07;-0,59832763671875;4;268;6,02907538414002E-06;-4,34982478618622E-06;100 nA;
-0,650634765625;276,675871301461;-2,3175048828125E-07;-0,6483154296875;4;269;6,02907538414002E-06;-4,34982478618622E-06;100 nA;
-0,70068359375;277,676848298933;-2,540283203125E-07;-0,698211669921875;4;270;6,02907538414002E-06;-4,34982478618622E-06;100 nA;
-0,750732421875;278,677825296406;-2,81585693359375E-07;-0,748260498046875;4;271;6,02907538414002E-06;-4,34982478618622E-06;100 nA;
-0,80078125;279,678802293879;-3,1646728515625E-07;-0,79833984375;4;272;6,02907538414002E-06;-4,34982478618622E-06;100 nA;
-0,750732421875;280,679779291352;-2,54730224609375E-07;-0,74853515625;4;273;6,02907538414002E-06;-4,34982478618622E-06;1 µA;
-0,70068359375;281,680756288824;-2,0465087890625E-07;-0,698516845703125;4;274;6,02907538414002E-06;-4,34982478618622E-06;1 µA;
-0,650634765625;282,681733286297;-1,5911865234375E-07;-0,6485595703125;4;275;6,02907538414002E-06;-4,34982478618622E-06;1 µA;
-0,6005859375;283,68271028377;-1,1444091796875E-07;-0,598602294921875;4;276;6,02907538414002E-06;-4,34982478618622E-06;1 µA;
-0,550537109375;284,683687281243;-7,1258544921875E-08;-0,548736572265625;4;277;6,02907538414002E-06;-4,34982478618622E-06;1 µA;
-0,50048828125;285,684664278716;-4,058837890625E-08;-0,498870849609375;4;278;6,02907538414002E-06;-4,34982478618622E-06;1 µA;
-0,450439453125;286,685641276188;-2,679443359375E-08;-0,448974609375;4;279;6,02907538414002E-06;-4,34982478618622E-06;1 µA;
-0,400390625;287,686618273661;-2,1148681640625E-08;-0,3990478515625;4;280;6,02907538414002E-06;-4,34982478618622E-06;1 µA;
-0,350341796875;288,687595271134;-1,7181396484375E-08;-0,34918212890625;4;281;6,02907538414002E-06;-4,34982478618622E-06;1 µA;
-0,30029296875;289,688572268607;-1,3885498046875E-08;-0,29925537109375;4;282;6,02907538414002E-06;-4,34982478618622E-06;100 nA;
-0,250244140625;290,689549266079;-9,8876953125E-09;-0,2493896484375;4;283;6,02907538414002E-06;-4,34982478618622E-06;100 nA;
-0,2001953125;291,690526263552;-6,8359375E-09;-0,199493408203125;4;284;6,02907538414002E-06;-4,34982478618622E-06;100 nA;
-0,150146484375;292,691503261025;-5,126953125E-09;-0,149658203125;4;285;6,02907538414002E-06;-4,34982478618622E-06;100 nA;
-0,10009765625;293,692480258498;-2,044677734375E-09;-0,099853515625;4;286;6,02907538414002E-06;-4,34982478618622E-06;100 nA;
-0,050048828125;294,693457255971;4,57763671875E-10;-0,050018310546875;4;287;6,02907538414002E-06;-4,34982478618622E-06;100 nA;
0;295,694434253443;4,33349609375E-09;8,23974609374944E-05;4;288;6,02907538414002E-06;-4,34982478618622E-06;100 nA;
0,050048828125;296,695411250916;9,58251953125E-09;0,0501007080078125;5;289;5,97961917519569E-06;-4,39674556255341E-06;100 nA;
0,10009765625;297,696388248389;1,422119140625E-08;0,0999755859375;5;290;5,97961917519569E-06;-4,39674556255341E-06;100 nA;
0,150146484375;298,697365245862;2,081298828125E-08;0,149993896484375;5;291;5,97961917519569E-06;-4,39674556255341E-06;100 nA;
0,2001953125;299,698342243334;2,77099609375E-08;0,2000732421875;5;292;5,97961917519569E-06;-4,39674556255341E-06;100 nA;
0,250244140625;300,699319240807;3,521728515625E-08;0,250091552734375;5;293;5,97961917519569E-06;-4,39674556255341E-06;100 nA;
0,30029296875;301,70029623828;4,1961669921875E-08;0,300140380859375;5;294;5,97961917519569E-06;-4,39674556255341E-06;100 nA;
0,350341796875;302,701273235753;4,8095703125E-08;0,35009765625;5;295;5,97961917519569E-06;-4,39674556255341E-06;100 nA;
0,400390625;303,702250233226;5,1300048828125E-08;0,40020751953125;5;296;5,97961917519569E-06;-4,39674556255341E-06;100 nA;
0,450439453125;304,703227230698;5,1025390625E-08;0,450164794921875;5;297;5,97961917519569E-06;-4,39674556255341E-06;100 nA;
0,50048828125;305,704204228171;5,2581787109375E-08;0,500152587890625;5;298;5,97961917519569E-06;-4,39674556255341E-06;100 nA;
0,550537109375;306,705181225644;6,53076171875E-08;0,550018310546875;5;299;5,97961917519569E-06;-4,39674556255341E-06;100 nA;
0,6005859375;307,706158223117;1,06903076171875E-07;0,599884033203125;5;300;5,97961917519569E-06;-4,39674556255341E-06;100 nA;
0,650634765625;308,707135220589;2,11334228515625E-07;0,6495361328125;5;301;5,97961917519569E-06;-4,39674556255341E-06;100 nA;
0,70068359375;309,708112218062;4,88983154296875E-07;0,698516845703125;5;302;5,97961917519569E-06;-4,39674556255341E-06;100 nA;Current overload
0,750732421875;310,709089215535;5,4290771484375E-07;0,749755859375;5;303;5,97961917519569E-06;-4,39674556255341E-06;1 µA;
0,80078125;311,710066213008;5,23681640625E-07;0,799560546875;5;304;5,97961917519569E-06;-4,39674556255341E-06;1 µA;
0,850830078125;312,711043210481;5,010986328125E-07;0,8489990234375;5;305;5,97961917519569E-06;-4,39674556255341E-06;1 µA;
0,90087890625;313,712020207953;4,913330078125E-07;0,89996337890625;5;306;5,97961917519569E-06;-4,39674556255341E-06;1 µA;
0,950927734375;314,712997205426;4,98046875E-07;0,95001220703125;5;307;5,97961917519569E-06;-4,39674556255341E-06;1 µA;
1,0009765625;315,713974202899;5,1971435546875E-07;0,999755859375;5;308;5,97961917519569E-06;-4,39674556255341E-06;1 µA;
0,950927734375;316,714951200372;4,1900634765625E-07;0,94970703125;5;309;5,97961917519569E-06;-4,39674556255341E-06;1 µA;
0,90087890625;317,715928197844;3,57879638671875E-07;0,899658203125;5;310;5,97961917519569E-06;-4,39674556255341E-06;1 µA;
0,850830078125;318,716905195317;3,06304931640625E-07;0,84991455078125;5;311;5,97961917519569E-06;-4,39674556255341E-06;1 µA;
0,80078125;319,71788219279;2,501220703125E-07;0,799560546875;5;312;5,97961917519569E-06;-4,39674556255341E-06;1 µA;
0,750732421875;320,718859190263;1,826171875E-07;0,749786376953125;5;313;5,97961917519569E-06;-4,39674556255341E-06;1 µA;
0,70068359375;321,719836187736;1,10198974609375E-07;0,699981689453125;5;314;5,97961917519569E-06;-4,39674556255341E-06;1 µA;
0,650634765625;322,720813185208;3,9276123046875E-08;0,6500244140625;5;315;5,97961917519569E-06;-4,39674556255341E-06;1 µA;
0,6005859375;323,721790182681;-1,2908935546875E-08;0,600067138671875;5;316;5,97961917519569E-06;-4,39674556255341E-06;1 µA;
0,550537109375;324,722767180154;-4,2388916015625E-08;0,550079345703125;5;317;5,97961917519569E-06;-4,39674556255341E-06;1 µA;
0,50048828125;325,723744177627;-5,9844970703125E-08;0,500091552734375;5;318;5,97961917519569E-06;-4,39674556255341E-06;1 µA;
0,450439453125;326,724721175099;-7,122802734375E-08;0,4500732421875;5;319;5,97961917519569E-06;-4,39674556255341E-06;1 µA;
0,400390625;327,725698172572;-8,2061767578125E-08;0,400146484375;5;320;5,97961917519569E-06;-4,39674556255341E-06;100 nA;
0,350341796875;328,726675170045;-8,9569091796875E-08;0,35009765625;5;321;5,97961917519569E-06;-4,39674556255341E-06;100 nA;
0,30029296875;329,727652167518;-9,033203125E-08;0,300140380859375;5;322;5,97961917519569E-06;-4,39674556255341E-06;100 nA;
0,250244140625;330,72862916499;-9,0301513671875E-08;0,2501220703125;5;323;5,97961917519569E-06;-4,39674556255341E-06;100 nA;
0,2001953125;331,729606162463;-9,21630859375E-08;0,20001220703125;5;324;5,97961917519569E-06;-4,39674556255341E-06;100 nA;
0,150146484375;332,730583159936;-9,0057373046875E-08;0,149993896484375;5;325;5,97961917519569E-06;-4,39674556255341E-06;100 nA;
0,10009765625;333,731560157409;-8,6029052734375E-08;0,10009765625;5;326;5,97961917519569E-06;-4,39674556255341E-06;100 nA;
0,050048828125;334,732537154882;-8,282470703125E-08;0,050140380859375;5;327;5,97961917519569E-06;-4,39674556255341E-06;100 nA;
0;335,733514152354;-8,0841064453125E-08;0,000115966796875006;5;328;5,97961917519569E-06;-4,39674556255341E-06;100 nA;
-0,050048828125;336,734491149827;-7,904052734375E-08;-0,0497344970703125;5;329;5,97961917519569E-06;-4,39674556255341E-06;100 nA;
-0,10009765625;337,7354681473;-7,7911376953125E-08;-0,099578857421875;5;330;5,97961917519569E-06;-4,39674556255341E-06;100 nA;
-0,150146484375;338,736445144773;-7,6995849609375E-08;-0,149444580078125;5;331;5,97961917519569E-06;-4,39674556255341E-06;100 nA;
-0,2001953125;339,737422142245;-7,7056884765625E-08;-0,199249267578125;5;332;5,97961917519569E-06;-4,39674556255341E-06;100 nA;
-0,250244140625;340,738399139718;-7,9620361328125E-08;-0,249176025390625;5;333;5,97961917519569E-06;-4,39674556255341E-06;100 nA;
-0,30029296875;341,739376137191;-8,4197998046875E-08;-0,299102783203125;5;334;5,97961917519569E-06;-4,39674556255341E-06;100 nA;
-0,350341796875;342,740353134664;-9,38720703125E-08;-0,348968505859375;5;335;5,97961917519569E-06;-4,39674556255341E-06;100 nA;
-0,400390625;343,741330132137;-1,11328125E-07;-0,39886474609375;5;336;5,97961917519569E-06;-4,39674556255341E-06;100 nA;
-0,450439453125;344,742307129609;-1,290283203125E-07;-0,448638916015625;5;337;5,97961917519569E-06;-4,39674556255341E-06;100 nA;
-0,50048828125;345,743284127082;-1,5399169921875E-07;-0,49859619140625;5;338;5,97961917519569E-06;-4,39674556255341E-06;100 nA;
-0,550537109375;346,744261124555;-1,84356689453125E-07;-0,548553466796875;5;339;5,97961917519569E-06;-4,39674556255341E-06;100 nA;
-0,6005859375;347,745238122028;-2,110595703125E-07;-0,598419189453125;5;340;5,97961917519569E-06;-4,39674556255341E-06;100 nA;
-0,650634765625;348,7462151195;-2,33489990234375E-07;-0,648223876953125;5;341;5,97961917519569E-06;-4,39674556255341E-06;100 nA;
-0,70068359375;349,747192116973;-2,56500244140625E-07;-0,698211669921875;5;342;5,97961917519569E-06;-4,39674556255341E-06;100 nA;
-0,750732421875;350,748169114446;-2,86041259765625E-07;-0,74822998046875;5;343;5,97961917519569E-06;-4,39674556255341E-06;100 nA;
-0,80078125;351,749146111919;-3,20343017578125E-07;-0,79864501953125;5;344;5,97961917519569E-06;-4,39674556255341E-06;100 nA;
-0,750732421875;352,750123109392;-2,58087158203125E-07;-0,74859619140625;5;345;5,97961917519569E-06;-4,39674556255341E-06;1 µA;
-0,70068359375;353,751100106864;-2,0770263671875E-07;-0,698516845703125;5;346;5,97961917519569E-06;-4,39674556255341E-06;1 µA;
-0,650634765625;354,752077104337;-1,61651611328125E-07;-0,648590087890625;5;347;5,97961917519569E-06;-4,39674556255341E-06;1 µA;
-0,6005859375;355,75305410181;-1,16485595703125E-07;-0,598663330078125;5;348;5,97961917519569E-06;-4,39674556255341E-06;1 µA;
-0,550537109375;356,754031099283;-7,31201171875E-08;-0,548736572265625;5;349;5,97961917519569E-06;-4,39674556255341E-06;1 µA;
-0,50048828125;357,755008096755;-4,2449951171875E-08;-0,49884033203125;5;350;5,97961917519569E-06;-4,39674556255341E-06;1 µA;
-0,450439453125;358,755985094228;-2,89306640625E-08;-0,448944091796875;5;351;5,97961917519569E-06;-4,39674556255341E-06;1 µA;
-0,400390625;359,756962091701;-2,288818359375E-08;-0,399078369140625;5;352;5,97961917519569E-06;-4,39674556255341E-06;1 µA;
-0,350341796875;360,757939089174;-1,8157958984375E-08;-0,34918212890625;5;353;5,97961917519569E-06;-4,39674556255341E-06;1 µA;
-0,30029296875;361,758916086647;-1,4801025390625E-08;-0,29913330078125;5;354;5,97961917519569E-06;-4,39674556255341E-06;100 nA;
-0,250244140625;362,759893084119;-1,0467529296875E-08;-0,249298095703125;5;355;5,97961917519569E-06;-4,39674556255341E-06;100 nA;
-0,2001953125;363,760870081592;-6,744384765625E-09;-0,199371337890625;5;356;5,97961917519569E-06;-4,39674556255341E-06;100 nA;
-0,150146484375;364,761847079065;-4,364013671875E-09;-0,1495361328125;5;357;5,97961917519569E-06;-4,39674556255341E-06;100 nA;
-0,10009765625;365,762824076538;-1,220703125E-09;-0,099609375;5;358;5,97961917519569E-06;-4,39674556255341E-06;100 nA;
-0,050048828125;366,76380107401;1,5869140625E-09;-0,04970703125;5;359;5,97961917519569E-06;-4,39674556255341E-06;100 nA;
0;367,764778071483;4,974365234375E-09;0,000119018554687503;5;360;5,97961917519569E-06;-4,39674556255341E-06;100 nA;
0,050048828125;368,765755068956;9,6435546875E-09;0,050140380859375;6;361;5,92087656259537E-06;-3,94870713353157E-06;100 nA;
0,10009765625;369,766732066429;1,4739990234375E-08;0,10009765625;6;362;5,92087656259537E-06;-3,94870713353157E-06;100 nA;
0,150146484375;370,767709063902;2,056884765625E-08;0,149993896484375;6;363;5,92087656259537E-06;-3,94870713353157E-06;100 nA;
0,2001953125;371,768686061374;2,703857421875E-08;0,20001220703125;6;364;5,92087656259537E-06;-3,94870713353157E-06;100 nA;
0,250244140625;372,769663058847;3,448486328125E-08;0,250030517578125;6;365;5,92087656259537E-06;-3,94870713353157E-06;100 nA;
0,30029296875;373,77064005632;4,0771484375E-08;0,299957275390625;6;366;5,92087656259537E-06;-3,94870713353157E-06;100 nA;
0,350341796875;374,771617053793;4,6844482421875E-08;0,3499755859375;6;367;5,92087656259537E-06;-3,94870713353157E-06;100 nA;
0,400390625;375,772594051265;5,035400390625E-08;0,4000244140625;6;368;5,92087656259537E-06;-3,94870713353157E-06;100 nA;
0,450439453125;376,773571048738;5,0048828125E-08;0,449951171875;6;369;5,92087656259537E-06;-3,94870713353157E-06;100 nA;
0,50048828125;377,774548046211;5,1605224609375E-08;0,49993896484375;6;370;5,92087656259537E-06;-3,94870713353157E-06;100 nA;
0,550537109375;378,775525043684;6,4727783203125E-08;0,54986572265625;6;371;5,92087656259537E-06;-3,94870713353157E-06;100 nA;
0,6005859375;379,776502041157;1,07330322265625E-07;0,59979248046875;6;372;5,92087656259537E-06;-3,94870713353157E-06;100 nA;
0,650634765625;380,777479038629;2,1795654296875E-07;0,64935302734375;6;373;5,92087656259537E-06;-3,94870713353157E-06;100 nA;
0,70068359375;381,778456036102;4,805908203125E-07;0,698577880859375;6;374;5,92087656259537E-06;-3,94870713353157E-06;100 nA;Current overload
0,750732421875;382,779433033575;5,316162109375E-07;0,749786376953125;6;375;5,92087656259537E-06;-3,94870713353157E-06;1 µA;
0,80078125;383,780410031048;5,16357421875E-07;0,79986572265625;6;376;5,92087656259537E-06;-3,94870713353157E-06;1 µA;
0,850830078125;384,78138702852;4,9560546875E-07;0,849609375;6;377;5,92087656259537E-06;-3,94870713353157E-06;1 µA;
0,90087890625;385,782364025993;4,87060546875E-07;0,89935302734375;6;378;5,92087656259537E-06;-3,94870713353157E-06;1 µA;
0,950927734375;386,783341023466;4,949951171875E-07;0,94940185546875;6;379;5,92087656259537E-06;-3,94870713353157E-06;1 µA;
1,0009765625;387,784318020939;5,16357421875E-07;0,99945068359375;6;380;5,92087656259537E-06;-3,94870713353157E-06;1 µA;
0,950927734375;388,785295018411;4,16259765625E-07;0,94940185546875;6;381;5,92087656259537E-06;-3,94870713353157E-06;1 µA;
0,90087890625;389,786272015884;3,55560302734375E-07;0,89996337890625;6;382;5,92087656259537E-06;-3,94870713353157E-06;1 µA;
0,850830078125;390,787249013357;3,045654296875E-07;0,84991455078125;6;383;5,92087656259537E-06;-3,94870713353157E-06;1 µA;
0,80078125;391,78822601083;2,49267578125E-07;0,79986572265625;6;384;5,92087656259537E-06;-3,94870713353157E-06;1 µA;
0,750732421875;392,789203008303;1,81884765625E-07;0,749786376953125;6;385;5,92087656259537E-06;-3,94870713353157E-06;1 µA;
0,70068359375;393,790180005775;1,09466552734375E-07;0,69989013671875;6;386;5,92087656259537E-06;-3,94870713353157E-06;1 µA;
0,650634765625;394,791157003248;3,8330078125E-08;0,64996337890625;6;387;5,92087656259537E-06;-3,94870713353157E-06;1 µA;
0,6005859375;395,792134000721;-1,3641357421875E-08;0,60009765625;6;388;5,92087656259537E-06;-3,94870713353157E-06;1 µA;
0,550537109375;396,793110998194;-4,315185546875E-08;0,55010986328125;6;389;5,92087656259537E-06;-3,94870713353157E-06;1 µA;
0,50048828125;397,794087995666;-6,0333251953125E-08;0,50006103515625;6;390;5,92087656259537E-06;-3,94870713353157E-06;1 µA;
0,450439453125;398,795064993139;-7,122802734375E-08;0,450042724609375;6;391;5,92087656259537E-06;-3,94870713353157E-06;1 µA;
0,400390625;399,796041990612;-8,123779296875E-08;0,400115966796875;6;392;5,92087656259537E-06;-3,94870713353157E-06;100 nA;
0,350341796875;400,797018988085;-8,7677001953125E-08;0,350128173828125;6;393;5,92087656259537E-06;-3,94870713353157E-06;100 nA;
0,30029296875;401,797995985558;-8,8714599609375E-08;0,300048828125;6;394;5,92087656259537E-06;-3,94870713353157E-06;100 nA;
0,250244140625;402,79897298303;-8,9202880859375E-08;0,250213623046875;6;395;5,92087656259537E-06;-3,94870713353157E-06;100 nA;
0,2001953125;403,799949980503;-9,1064453125E-08;0,200164794921875;6;396;5,92087656259537E-06;-3,94870713353157E-06;100 nA;
0,150146484375;404,800926977976;-8,929443359375E-08;0,150177001953125;6;397;5,92087656259537E-06;-3,94870713353157E-06;100 nA;
0,10009765625;405,801903975449;-8,599853515625E-08;0,1002197265625;6;398;5,92087656259537E-06;-3,94870713353157E-06;100 nA;
0,050048828125;406,802880972921;-8,392333984375E-08;0,05023193359375;6;399;5,92087656259537E-06;-3,94870713353157E-06;100 nA;
0;407,803857970394;-8,0902099609375E-08;0,000143432617187494;6;400;5,92087656259537E-06;-3,94870713353157E-06;100 nA;
-0,050048828125;408,804834967867;-7,769775390625E-08;-0,04970703125;6;401;5,92087656259537E-06;-3,94870713353157E-06;100 nA;
-0,10009765625;409,80581196534;-7,5653076171875E-08;-0,099456787109375;6;402;5,92087656259537E-06;-3,94870713353157E-06;100 nA;
-0,150146484375;410,806788962813;-7,5225830078125E-08;-0,149444580078125;6;403;5,92087656259537E-06;-3,94870713353157E-06;100 nA;
-0,2001953125;411,807765960285;-7,574462890625E-08;-0,19927978515625;6;404;5,92087656259537E-06;-3,94870713353157E-06;100 nA;
-0,250244140625;412,808742957758;-7,745361328125E-08;-0,24920654296875;6;405;5,92087656259537E-06;-3,94870713353157E-06;100 nA;
-0,30029296875;413,809719955231;-8,0230712890625E-08;-0,29913330078125;6;406;5,92087656259537E-06;-3,94870713353157E-06;100 nA;
-0,350341796875;414,810696952704;-8,5235595703125E-08;-0,34912109375;6;407;5,92087656259537E-06;-3,94870713353157E-06;100 nA;
-0,400390625;415,811673950176;-9,4390869140625E-08;-0,399017333984375;6;408;5,92087656259537E-06;-3,94870713353157E-06;100 nA;
-0,450439453125;416,812650947649;-1,09344482421875E-07;-0,44891357421875;6;409;5,92087656259537E-06;-3,94870713353157E-06;100 nA;
-0,50048828125;417,813627945122;-1,30035400390625E-07;-0,49871826171875;6;410;5,92087656259537E-06;-3,94870713353157E-06;100 nA;
-0,550537109375;418,814604942595;-1,50360107421875E-07;-0,548675537109375;6;411;5,92087656259537E-06;-3,94870713353157E-06;100 nA;
-0,6005859375;419,815581940068;-1,70989990234375E-07;-0,59857177734375;6;412;5,92087656259537E-06;-3,94870713353157E-06;100 nA;
-0,650634765625;420,81655893754;-1,90277099609375E-07;-0,64837646484375;6;413;5,92087656259537E-06;-3,94870713353157E-06;100 nA;
-0,70068359375;421,817535935013;-2,12158203125E-07;-0,69842529296875;6;414;5,92087656259537E-06;-3,94870713353157E-06;100 nA;
-0,750732421875;422,818512932486;-2,4072265625E-07;-0,7484130859375;6;415;5,92087656259537E-06;-3,94870713353157E-06;100 nA;
-0,80078125;423,819489929959;-2,7716064453125E-07;-0,79833984375;6;416;5,92087656259537E-06;-3,94870713353157E-06;100 nA;
-0,750732421875;424,820466927431;-2,21527099609375E-07;-0,74835205078125;6;417;5,92087656259537E-06;-3,94870713353157E-06;100 nA;
-0,70068359375;425,821443924904;-1,761474609375E-07;-0,698455810546875;6;418;5,92087656259537E-06;-3,94870713353157E-06;100 nA;
-0,650634765625;426,822420922377;-1,3677978515625E-07;-0,64837646484375;6;419;5,92087656259537E-06;-3,94870713353157E-06;100 nA;
-0,6005859375;427,82339791985;-9,9273681640625E-08;-0,59857177734375;6;420;5,92087656259537E-06;-3,94870713353157E-06;100 nA;
-0,550537109375;428,824374917323;-6,396484375E-08;-0,5487060546875;6;421;5,92087656259537E-06;-3,94870713353157E-06;100 nA;
-0,50048828125;429,825351914795;-3,9886474609375E-08;-0,498779296875;6;422;5,92087656259537E-06;-3,94870713353157E-06;100 nA;
-0,450439453125;430,826328912268;-2,911376953125E-08;-0,4488525390625;6;423;5,92087656259537E-06;-3,94870713353157E-06;100 nA;
-0,400390625;431,827305909741;-2,3712158203125E-08;-0,3990478515625;6;424;5,92087656259537E-06;-3,94870713353157E-06;100 nA;
-0,350341796875;432,828282907214;-1,971435546875E-08;-0,349090576171875;6;425;5,92087656259537E-06;-3,94870713353157E-06;100 nA;
-0,30029296875;433,829259904686;-1,5594482421875E-08;-0,2991943359375;6;426;5,92087656259537E-06;-3,94870713353157E-06;100 nA;
-0,250244140625;434,830236902159;-1,1322021484375E-08;-0,249237060546875;6;427;5,92087656259537E-06;-3,94870713353157E-06;100 nA;
-0,2001953125;435,831213899632;-8,453369140625E-09;-0,199432373046875;6;428;5,92087656259537E-06;-3,94870713353157E-06;100 nA;
-0,150146484375;436,832190897105;-5,9814453125E-09;-0,149505615234375;6;429;5,92087656259537E-06;-3,94870713353157E-06;100 nA;
-0,10009765625;437,833167894578;-2,899169921875E-09;-0,09954833984375;6;430;5,92087656259537E-06;-3,94870713353157E-06;100 nA;
-0,050048828125;438,83414489205;-1,434326171875E-09;-0,0497314453125;6;431;5,92087656259537E-06;-3,94870713353157E-06;100 nA;
0;439,835121889523;1,068115234375E-09;0,0001068115234375;6;432;5,92087656259537E-06;-3,94870713353157E-06;100 nA;
0,050048828125;440,836098886996;8,056640625E-09;0,050079345703125;7;433;5,79917579889298E-06;-3,95726040005684E-06;100 nA;
0,10009765625;441,837075884469;1,654052734375E-08;0,100067138671875;7;434;5,79917579889298E-06;-3,95726040005684E-06;100 nA;
0,150146484375;442,838052881941;1,580810546875E-08;0,15008544921875;7;435;5,79917579889298E-06;-3,95726040005684E-06;100 nA;
0,2001953125;443,839029879414;2,0599365234375E-08;0,20001220703125;7;436;5,79917579889298E-06;-3,95726040005684E-06;100 nA;
0,250244140625;444,840006876887;2,5848388671875E-08;0,25;7;437;5,79917579889298E-06;-3,95726040005684E-06;100 nA;
0,30029296875;445,84098387436;3,23486328125E-08;0,300018310546875;7;438;5,79917579889298E-06;-3,95726040005684E-06;100 nA;
0,350341796875;446,841960871833;3,7689208984375E-08;0,349945068359375;7;439;5,79917579889298E-06;-3,95726040005684E-06;100 nA;
0,400390625;447,842937869305;4,0130615234375E-08;0,4000244140625;7;440;5,79917579889298E-06;-3,95726040005684E-06;100 nA;
0,450439453125;448,843914866778;4,0618896484375E-08;0,449951171875;7;441;5,79917579889298E-06;-3,95726040005684E-06;100 nA;
0,50048828125;449,844891864251;4,4891357421875E-08;0,499969482421875;7;442;5,79917579889298E-06;-3,95726040005684E-06;100 nA;
0,550537109375;450,845868861724;6,0699462890625E-08;0,5499267578125;7;443;5,79917579889298E-06;-3,95726040005684E-06;100 nA;
0,6005859375;451,846845859196;1,07177734375E-07;0,599822998046875;7;444;5,79917579889298E-06;-3,95726040005684E-06;100 nA;
0,650634765625;452,847822856669;2,22259521484375E-07;0,649322509765625;7;445;5,79917579889298E-06;-3,95726040005684E-06;100 nA;
0,70068359375;453,848799854142;4,71405029296875E-07;0,698699951171875;7;446;5,79917579889298E-06;-3,95726040005684E-06;100 nA;Current overload
0,750732421875;454,849776851615;5,206298828125E-07;0,749725341796875;7;447;5,79917579889298E-06;-3,95726040005684E-06;1 µA;
0,80078125;455,850753849087;5,09033203125E-07;0,799560546875;7;448;5,79917579889298E-06;-3,95726040005684E-06;1 µA;
0,850830078125;456,85173084656;4,8919677734375E-07;0,84930419921875;7;449;5,79917579889298E-06;-3,95726040005684E-06;1 µA;
0,90087890625;457,852707844033;4,8126220703125E-07;0,89935302734375;7;450;5,79917579889298E-06;-3,95726040005684E-06;1 µA;
0,950927734375;458,853684841506;4,89501953125E-07;0,94940185546875;7;451;5,79917579889298E-06;-3,95726040005684E-06;1 µA;
1,0009765625;459,854661838979;5,108642578125E-07;0,99945068359375;7;452;5,79917579889298E-06;-3,95726040005684E-06;1 µA;
0,950927734375;460,855638836451;4,1290283203125E-07;0,94970703125;7;453;5,79917579889298E-06;-3,95726040005684E-06;1 µA;
0,90087890625;461,856615833924;3,53302001953125E-07;0,899658203125;7;454;5,79917579889298E-06;-3,95726040005684E-06;1 µA;
0,850830078125;462,857592831397;3,03070068359375E-07;0,849609375;7;455;5,79917579889298E-06;-3,95726040005684E-06;1 µA;
0,80078125;463,85856982887;2,4835205078125E-07;0,79986572265625;7;456;5,79917579889298E-06;-3,95726040005684E-06;1 µA;
0,750732421875;464,859546826342;1,81640625E-07;0,749755859375;7;457;5,79917579889298E-06;-3,95726040005684E-06;1 µA;
0,70068359375;465,860523823815;1,0968017578125E-07;0,699920654296875;7;458;5,79917579889298E-06;-3,95726040005684E-06;1 µA;
0,650634765625;466,861500821288;3,936767578125E-08;0,6500244140625;7;459;5,79917579889298E-06;-3,95726040005684E-06;1 µA;
0,6005859375;467,862477818761;-1,2451171875E-08;0,600067138671875;7;460;5,79917579889298E-06;-3,95726040005684E-06;1 µA;
0,550537109375;468,863454816234;-4,1900634765625E-08;0,55010986328125;7;461;5,79917579889298E-06;-3,95726040005684E-06;1 µA;
0,50048828125;469,864431813706;-5,9661865234375E-08;0,500091552734375;7;462;5,79917579889298E-06;-3,95726040005684E-06;1 µA;
0,450439453125;470,865408811179;-7,04345703125E-08;0,45013427734375;7;463;5,79917579889298E-06;-3,95726040005684E-06;1 µA;
0,400390625;471,866385808652;-7,928466796875E-08;0,40032958984375;7;464;5,79917579889298E-06;-3,95726040005684E-06;100 nA;
0,350341796875;472,867362806125;-8,5296630859375E-08;0,350311279296875;7;465;5,79917579889298E-06;-3,95726040005684E-06;100 nA;
0,30029296875;473,868339803597;-8,6212158203125E-08;0,300262451171875;7;466;5,79917579889298E-06;-3,95726040005684E-06;100 nA;
0,250244140625;474,86931680107;-8,7188720703125E-08;0,250274658203125;7;467;5,79917579889298E-06;-3,95726040005684E-06;100 nA;
0,2001953125;475,870293798543;-8,99658203125E-08;0,200103759765625;7;468;5,79917579889298E-06;-3,95726040005684E-06;100 nA;
0,150146484375;476,871270796016;-8,8623046875E-08;0,150146484375;7;469;5,79917579889298E-06;-3,95726040005684E-06;100 nA;
0,10009765625;477,872247793489;-8,5540771484375E-08;0,10009765625;7;470;5,79917579889298E-06;-3,95726040005684E-06;100 nA;
0,050048828125;478,873224790961;-8,48388671875E-08;0,050079345703125;7;471;5,79917579889298E-06;-3,95726040005684E-06;100 nA;
0;479,874201788434;-8,2000732421875E-08;0,000109863281249997;7;472;5,79917579889298E-06;-3,95726040005684E-06;100 nA;
-0,050048828125;480,875178785907;-7,928466796875E-08;-0,0498046875;7;473;5,79917579889298E-06;-3,95726040005684E-06;100 nA;
-0,10009765625;481,87615578338;-7,7728271484375E-08;-0,09967041015625;7;474;5,79917579889298E-06;-3,95726040005684E-06;100 nA;
-0,150146484375;482,877132780852;-7,708740234375E-08;-0,14959716796875;7;475;5,79917579889298E-06;-3,95726040005684E-06;100 nA;
-0,2001953125;483,878109778325;-7,763671875E-08;-0,199493408203125;7;476;5,79917579889298E-06;-3,95726040005684E-06;100 nA;
-0,250244140625;484,879086775798;-7,916259765625E-08;-0,24932861328125;7;477;5,79917579889298E-06;-3,95726040005684E-06;100 nA;
-0,30029296875;485,880063773271;-8,16650390625E-08;-0,299224853515625;7;478;5,79917579889298E-06;-3,95726040005684E-06;100 nA;
-0,350341796875;486,881040770744;-8,6669921875E-08;-0,3492431640625;7;479;5,79917579889298E-06;-3,95726040005684E-06;100 nA;
-0,400390625;487,882017768216;-9,5489501953125E-08;-0,3990478515625;7;480;5,79917579889298E-06;-3,95726040005684E-06;100 nA;
-0,450439453125;488,882994765689;-1,09771728515625E-07;-0,448883056640625;7;481;5,79917579889298E-06;-3,95726040005684E-06;100 nA;
-0,50048828125;489,883971763162;-1,29791259765625E-07;-0,498687744140625;7;482;5,79917579889298E-06;-3,95726040005684E-06;100 nA;
-0,550537109375;490,884948760635;-1,50360107421875E-07;-0,548583984375;7;483;5,79917579889298E-06;-3,95726040005684E-06;100 nA;
-0,6005859375;491,885925758107;-1,70745849609375E-07;-0,598419189453125;7;484;5,79917579889298E-06;-3,95726040005684E-06;100 nA;
-0,650634765625;492,88690275558;-1,904296875E-07;-0,6483154296875;7;485;5,79917579889298E-06;-3,95726040005684E-06;100 nA;
-0,70068359375;493,887879753053;-2,127685546875E-07;-0,698150634765625;7;486;5,79917579889298E-06;-3,95726040005684E-06;100 nA;
-0,750732421875;494,888856750526;-2,4090576171875E-07;-0,74810791015625;7;487;5,79917579889298E-06;-3,95726040005684E-06;100 nA;
-0,80078125;495,889833747999;-2,7764892578125E-07;-0,79925537109375;7;488;5,79917579889298E-06;-3,95726040005684E-06;100 nA;
-0,750732421875;496,890810745471;-2,21832275390625E-07;-0,74810791015625;7;489;5,79917579889298E-06;-3,95726040005684E-06;100 nA;
-0,70068359375;497,891787742944;-1,76116943359375E-07;-0,6982421875;7;490;5,79917579889298E-06;-3,95726040005684E-06;100 nA;
-0,650634765625;498,892764740417;-1,37115478515625E-07;-0,648345947265625;7;491;5,79917579889298E-06;-3,95726040005684E-06;100 nA;
-0,6005859375;499,89374173789;-9,967041015625E-08;-0,598358154296875;7;492;5,79917579889298E-06;-3,95726040005684E-06;100 nA;
-0,550537109375;500,894718735362;-6,439208984375E-08;-0,54864501953125;7;493;5,79917579889298E-06;-3,95726040005684E-06;100 nA;
-0,50048828125;501,895695732835;-4,0069580078125E-08;-0,498687744140625;7;494;5,79917579889298E-06;-3,95726040005684E-06;100 nA;
-0,450439453125;502,896672730308;-2,9815673828125E-08;-0,448822021484375;7;495;5,79917579889298E-06;-3,95726040005684E-06;100 nA;
-0,400390625;503,897649727781;-2,4505615234375E-08;-0,3990478515625;7;496;5,79917579889298E-06;-3,95726040005684E-06;100 nA;
-0,350341796875;504,898626725254;-2,0355224609375E-08;-0,349090576171875;7;497;5,79917579889298E-06;-3,95726040005684E-06;100 nA;
-0,30029296875;505,899603722726;-1,62353515625E-08;-0,2991943359375;7;498;5,79917579889298E-06;-3,95726040005684E-06;100 nA;
-0,250244140625;506,900580720199;-1,2176513671875E-08;-0,249237060546875;7;499;5,79917579889298E-06;-3,95726040005684E-06;100 nA;
-0,2001953125;507,901557717672;-8,880615234375E-09;-0,199371337890625;7;500;5,79917579889298E-06;-3,95726040005684E-06;100 nA;
-0,150146484375;508,902534715145;-6,195068359375E-09;-0,149505615234375;7;501;5,79917579889298E-06;-3,95726040005684E-06;100 nA;
-0,10009765625;509,903511712617;-4,0283203125E-09;-0,099578857421875;7;502;5,79917579889298E-06;-3,95726040005684E-06;100 nA;
-0,050048828125;510,90448871009;-1,46484375E-09;-0,0497344970703125;7;503;5,79917579889298E-06;-3,95726040005684E-06;100 nA;
0;511,905465707563;6,40869140625E-10;0,000125122070312497;7;504;5,79917579889298E-06;-3,95726040005684E-06;100 nA;
0,050048828125;512,906442705036;6,866455078125E-09;0,050018310546875;8;505;5,75161352753639E-06;-3,97564992308617E-06;100 nA;
0,10009765625;513,907419702508;1,690673828125E-08;0,100128173828125;8;506;5,75161352753639E-06;-3,97564992308617E-06;100 nA;
0,150146484375;514,908396699981;1,5655517578125E-08;0,150115966796875;8;507;5,75161352753639E-06;-3,97564992308617E-06;100 nA;
0,2001953125;515,909373697454;2,0172119140625E-08;0,200103759765625;8;508;5,75161352753639E-06;-3,97564992308617E-06;100 nA;
0,250244140625;516,910350694927;2,508544921875E-08;0,25;8;509;5,75161352753639E-06;-3,97564992308617E-06;100 nA;
0,30029296875;517,9113276924;3,076171875E-08;0,29998779296875;8;510;5,75161352753639E-06;-3,97564992308617E-06;100 nA;
0,350341796875;518,912304689872;3,6407470703125E-08;0,3499755859375;8;511;5,75161352753639E-06;-3,97564992308617E-06;100 nA;
0,400390625;519,913281687345;3,9459228515625E-08;0,399993896484375;8;512;5,75161352753639E-06;-3,97564992308617E-06;100 nA;
0,450439453125;520,914258684818;4,0069580078125E-08;0,449951171875;8;513;5,75161352753639E-06;-3,97564992308617E-06;100 nA;
0,50048828125;521,915235682291;4,443359375E-08;0,499969482421875;8;514;5,75161352753639E-06;-3,97564992308617E-06;100 nA;
0,550537109375;522,916212679763;6,097412109375E-08;0,54986572265625;8;515;5,75161352753639E-06;-3,97564992308617E-06;100 nA;
0,6005859375;523,917189677236;1,08184814453125E-07;0,5997314453125;8;516;5,75161352753639E-06;-3,97564992308617E-06;100 nA;
0,650634765625;524,918166674709;2,276611328125E-07;0,649505615234375;8;517;5,75161352753639E-06;-3,97564992308617E-06;100 nA;
0,70068359375;525,919143672182;4,64569091796875E-07;0,69854736328125;8;518;5,75161352753639E-06;-3,97564992308617E-06;100 nA;Current overload
0,750732421875;526,920120669655;5,133056640625E-07;0,749755859375;8;519;5,75161352753639E-06;-3,97564992308617E-06;1 µA;
0,80078125;527,921097667127;5,0445556640625E-07;0,8001708984375;8;520;5,75161352753639E-06;-3,97564992308617E-06;1 µA;
0,850830078125;528,9220746646;4,8492431640625E-07;0,8502197265625;8;521;5,75161352753639E-06;-3,97564992308617E-06;1 µA;
0,90087890625;529,923051662073;4,7760009765625E-07;0,899658203125;8;522;5,75161352753639E-06;-3,97564992308617E-06;1 µA;
0,950927734375;530,924028659546;4,8553466796875E-07;0,94970703125;8;523;5,75161352753639E-06;-3,97564992308617E-06;1 µA;
1,0009765625;531,925005657018;5,06591796875E-07;0,99945068359375;8;524;5,75161352753639E-06;-3,97564992308617E-06;1 µA;
0,950927734375;532,925982654491;4,0985107421875E-07;0,95001220703125;8;525;5,75161352753639E-06;-3,97564992308617E-06;1 µA;
0,90087890625;533,926959651964;3,509521484375E-07;0,899658203125;8;526;5,75161352753639E-06;-3,97564992308617E-06;1 µA;
0,850830078125;534,927936649437;3,01177978515625E-07;0,849609375;8;527;5,75161352753639E-06;-3,97564992308617E-06;1 µA;
0,80078125;535,92891364691;2,46734619140625E-07;0,8001708984375;8;528;5,75161352753639E-06;-3,97564992308617E-06;1 µA;
0,750732421875;536,929890644382;1,80267333984375E-07;0,749786376953125;8;529;5,75161352753639E-06;-3,97564992308617E-06;1 µA;
0,70068359375;537,930867641855;1,08856201171875E-07;0,699859619140625;8;530;5,75161352753639E-06;-3,97564992308617E-06;1 µA;
0,650634765625;538,931844639328;3,8543701171875E-08;0,649993896484375;8;531;5,75161352753639E-06;-3,97564992308617E-06;1 µA;
0,6005859375;539,932821636801;-1,263427734375E-08;0,60009765625;8;532;5,75161352753639E-06;-3,97564992308617E-06;1 µA;
0,550537109375;540,933798634273;-4,2633056640625E-08;0,550048828125;8;533;5,75161352753639E-06;-3,97564992308617E-06;1 µA;
0,50048828125;541,934775631746;-6,0211181640625E-08;0,500091552734375;8;534;5,75161352753639E-06;-3,97564992308617E-06;1 µA;
0,450439453125;542,935752629219;-7,073974609375E-08;0,450103759765625;8;535;5,75161352753639E-06;-3,97564992308617E-06;1 µA;
0,400390625;543,936729626692;-7,9742431640625E-08;0,40020751953125;8;536;5,75161352753639E-06;-3,97564992308617E-06;100 nA;
0,350341796875;544,937706624165;-8,489990234375E-08;0,35015869140625;8;537;5,75161352753639E-06;-3,97564992308617E-06;100 nA;
0,30029296875;545,938683621637;-8,5601806640625E-08;0,30010986328125;8;538;5,75161352753639E-06;-3,97564992308617E-06;100 nA;
0,250244140625;546,93966061911;-8,72802734375E-08;0,250152587890625;8;539;5,75161352753639E-06;-3,97564992308617E-06;100 nA;
0,2001953125;547,940637616583;-8,990478515625E-08;0,2000732421875;8;540;5,75161352753639E-06;-3,97564992308617E-06;100 nA;
0,150146484375;548,941614614056;-8,8623046875E-08;0,150115966796875;8;541;5,75161352753639E-06;-3,97564992308617E-06;100 nA;
0,10009765625;549,942591611528;-8,612060546875E-08;0,10015869140625;8;542;5,75161352753639E-06;-3,97564992308617E-06;100 nA;
0,050048828125;550,943568609001;-8,4747314453125E-08;0,05010986328125;8;543;5,75161352753639E-06;-3,97564992308617E-06;100 nA;
0;551,944545606474;-8,1939697265625E-08;0,0001220703125;8;544;5,75161352753639E-06;-3,97564992308617E-06;100 nA;
-0,050048828125;552,945522603947;-7,9620361328125E-08;-0,04974365234375;8;545;5,75161352753639E-06;-3,97564992308617E-06;100 nA;
-0,10009765625;553,94649960142;-7,8216552734375E-08;-0,099639892578125;8;546;5,75161352753639E-06;-3,97564992308617E-06;100 nA;
-0,150146484375;554,947476598892;-7,7301025390625E-08;-0,14947509765625;8;547;5,75161352753639E-06;-3,97564992308617E-06;100 nA;
-0,2001953125;555,948453596365;-7,8033447265625E-08;-0,19927978515625;8;548;5,75161352753639E-06;-3,97564992308617E-06;100 nA;
-0,250244140625;556,949430593838;-7,9498291015625E-08;-0,24920654296875;8;549;5,75161352753639E-06;-3,97564992308617E-06;100 nA;
-0,30029296875;557,950407591311;-8,1817626953125E-08;-0,29913330078125;8;550;5,75161352753639E-06;-3,97564992308617E-06;100 nA;
-0,350341796875;558,951384588783;-8,6822509765625E-08;-0,3489990234375;8;551;5,75161352753639E-06;-3,97564992308617E-06;100 nA;
-0,400390625;559,952361586256;-9,5458984375E-08;-0,398895263671875;8;552;5,75161352753639E-06;-3,97564992308617E-06;100 nA;
-0,450439453125;560,953338583729;-1,0955810546875E-07;-0,44873046875;8;553;5,75161352753639E-06;-3,97564992308617E-06;100 nA;
-0,50048828125;561,954315581202;-1,29364013671875E-07;-0,498565673828125;8;554;5,75161352753639E-06;-3,97564992308617E-06;100 nA;
-0,550537109375;562,955292578675;-1,495361328125E-07;-0,548370361328125;8;555;5,75161352753639E-06;-3,97564992308617E-06;100 nA;
-0,6005859375;563,956269576147;-1,70196533203125E-07;-0,598175048828125;8;556;5,75161352753639E-06;-3,97564992308617E-06;100 nA;
-0,650634765625;564,95724657362;-1,90093994140625E-07;-0,648223876953125;8;557;5,75161352753639E-06;-3,97564992308617E-06;100 nA;
-0,70068359375;565,958223571093;-2,1234130859375E-07;-0,697998046875;8;558;5,75161352753639E-06;-3,97564992308617E-06;100 nA;
-0,750732421875;566,959200568566;-2,4151611328125E-07;-0,748016357421875;8;559;5,75161352753639E-06;-3,97564992308617E-06;100 nA;
-0,80078125;567,960177566038;-2,7850341796875E-07;-0,79833984375;8;560;5,75161352753639E-06;-3,97564992308617E-06;100 nA;
-0,750732421875;568,961154563511;-2,225341796875E-07;-0,748046875;8;561;5,75161352753639E-06;-3,97564992308617E-06;100 nA;
-0,70068359375;569,962131560984;-1,76788330078125E-07;-0,6981201171875;8;562;5,75161352753639E-06;-3,97564992308617E-06;100 nA;
-0,650634765625;570,963108558457;-1,37359619140625E-07;-0,64813232421875;8;563;5,75161352753639E-06;-3,97564992308617E-06;100 nA;
-0,6005859375;571,96408555593;-1,00128173828125E-07;-0,598419189453125;8;564;5,75161352753639E-06;-3,97564992308617E-06;100 nA;
-0,550537109375;572,965062553402;-6,4208984375E-08;-0,54852294921875;8;565;5,75161352753639E-06;-3,97564992308617E-06;100 nA;
-0,50048828125;573,966039550875;-4,1748046875E-08;-0,498779296875;8;566;5,75161352753639E-06;-3,97564992308617E-06;100 nA;
-0,450439453125;574,967016548348;-3,0670166015625E-08;-0,448944091796875;8;567;5,75161352753639E-06;-3,97564992308617E-06;100 nA;
-0,400390625;575,967993545821;-2,557373046875E-08;-0,3990478515625;8;568;5,75161352753639E-06;-3,97564992308617E-06;100 nA;
-0,350341796875;576,968970543293;-2,1728515625E-08;-0,34918212890625;8;569;5,75161352753639E-06;-3,97564992308617E-06;100 nA;
-0,30029296875;577,969947540766;-1,763916015625E-08;-0,299285888671875;8;570;5,75161352753639E-06;-3,97564992308617E-06;100 nA;
-0,250244140625;578,970924538239;-1,348876953125E-08;-0,2493896484375;8;571;5,75161352753639E-06;-3,97564992308617E-06;100 nA;
-0,2001953125;579,971901535712;-1,0223388671875E-08;-0,199462890625;8;572;5,75161352753639E-06;-3,97564992308617E-06;100 nA;
-0,150146484375;580,972878533184;-7,62939453125E-09;-0,149627685546875;8;573;5,75161352753639E-06;-3,97564992308617E-06;100 nA;
-0,10009765625;581,973855530657;-5,401611328125E-09;-0,099700927734375;8;574;5,75161352753639E-06;-3,97564992308617E-06;100 nA;
-0,050048828125;582,97483252813;-3,0517578125E-09;-0,04986572265625;8;575;5,75161352753639E-06;-3,97564992308617E-06;100 nA;
0;583,975809525603;-6,40869140625E-10;9,76562499999944E-05;8;576;5,75161352753639E-06;-3,97564992308617E-06;100 nA;
0,050048828125;584,976786523076;5,645751953125E-09;0,050103759765625;9;577;5,71275725960732E-06;-3,99929359555244E-06;100 nA;
0,10009765625;585,977763520548;1,6510009765625E-08;0,099945068359375;9;578;5,71275725960732E-06;-3,99929359555244E-06;100 nA;
0,150146484375;586,978740518021;1,52587890625E-08;0,14990234375;9;579;5,71275725960732E-06;-3,99929359555244E-06;100 nA;
0,2001953125;587,979717515494;1,922607421875E-08;0,199920654296875;9;580;5,71275725960732E-06;-3,99929359555244E-06;100 nA;
0,250244140625;588,980694512967;2,386474609375E-08;0,2498779296875;9;581;5,71275725960732E-06;-3,99929359555244E-06;100 nA;
0,30029296875;589,981671510439;2,960205078125E-08;0,29986572265625;9;582;5,71275725960732E-06;-3,99929359555244E-06;100 nA;
0,350341796875;590,982648507912;3,5675048828125E-08;0,34991455078125;9;583;5,71275725960732E-06;-3,99929359555244E-06;100 nA;
0,400390625;591,983625505385;3,8970947265625E-08;0,39996337890625;9;584;5,71275725960732E-06;-3,99929359555244E-06;100 nA;
0,450439453125;592,984602502858;3,9703369140625E-08;0,44989013671875;9;585;5,71275725960732E-06;-3,99929359555244E-06;100 nA;
0,50048828125;593,985579500331;4,449462890625E-08;0,499908447265625;9;586;5,71275725960732E-06;-3,99929359555244E-06;100 nA;
0,550537109375;594,986556497803;6,1614990234375E-08;0,549896240234375;9;587;5,71275725960732E-06;-3,99929359555244E-06;100 nA;
0,6005859375;595,987533495276;1,08673095703125E-07;0,599639892578125;9;588;5,71275725960732E-06;-3,99929359555244E-06;100 nA;
0,650634765625;596,988510492749;2,314453125E-07;0,649383544921875;9;589;5,71275725960732E-06;-3,99929359555244E-06;100 nA;
0,70068359375;597,989487490222;4,5733642578125E-07;0,698699951171875;9;590;5,71275725960732E-06;-3,99929359555244E-06;100 nA;Current overload
0,750732421875;598,990464487694;5,06591796875E-07;0,749755859375;9;591;5,71275725960732E-06;-3,99929359555244E-06;1 µA;
0,80078125;599,991441485167;4,998779296875E-07;0,8001708984375;9;592;5,71275725960732E-06;-3,99929359555244E-06;1 µA;
0,850830078125;600,99241848264;4,815673828125E-07;0,84991455078125;9;593;5,71275725960732E-06;-3,99929359555244E-06;1 µA;
0,90087890625;601,993395480113;4,7454833984375E-07;0,899658203125;9;594;5,71275725960732E-06;-3,99929359555244E-06;1 µA;
0,950927734375;602,994372477586;4,827880859375E-07;0,94970703125;9;595;5,71275725960732E-06;-3,99929359555244E-06;1 µA;
1,0009765625;603,995349475058;5,035400390625E-07;0,999755859375;9;596;5,71275725960732E-06;-3,99929359555244E-06;1 µA;
0,950927734375;604,996326472531;4,0740966796875E-07;0,94970703125;9;597;5,71275725960732E-06;-3,99929359555244E-06;1 µA;
0,90087890625;605,997303470004;3,4912109375E-07;0,8990478515625;9;598;5,71275725960732E-06;-3,99929359555244E-06;1 µA;
0,850830078125;606,998280467477;3,001708984375E-07;0,8502197265625;9;599;5,71275725960732E-06;-3,99929359555244E-06;1 µA;
0,80078125;607,999257464949;2,4652099609375E-07;0,799560546875;9;600;5,71275725960732E-06;-3,99929359555244E-06;1 µA;
0,750732421875;609,000234462422;1,80267333984375E-07;0,749786376953125;9;601;5,71275725960732E-06;-3,99929359555244E-06;1 µA;
0,70068359375;610,001211459895;1,08612060546875E-07;0,699920654296875;9;602;5,71275725960732E-06;-3,99929359555244E-06;1 µA;
0,650634765625;611,002188457368;3,814697265625E-08;0,6500244140625;9;603;5,71275725960732E-06;-3,99929359555244E-06;1 µA;
0,6005859375;612,003165454841;-1,3458251953125E-08;0,60009765625;9;604;5,71275725960732E-06;-3,99929359555244E-06;1 µA;
0,550537109375;613,004142452313;-4,290771484375E-08;0,550079345703125;9;605;5,71275725960732E-06;-3,99929359555244E-06;1 µA;
0,50048828125;614,005119449786;-6,0272216796875E-08;0,50006103515625;9;606;5,71275725960732E-06;-3,99929359555244E-06;1 µA;
0,450439453125;615,006096447259;-7,037353515625E-08;0,45013427734375;9;607;5,71275725960732E-06;-3,99929359555244E-06;1 µA;
0,400390625;616,007073444732;-7,8857421875E-08;0,400146484375;9;608;5,71275725960732E-06;-3,99929359555244E-06;100 nA;
0,350341796875;617,008050442204;-8,367919921875E-08;0,3502197265625;9;609;5,71275725960732E-06;-3,99929359555244E-06;100 nA;
0,30029296875;618,009027439677;-8,453369140625E-08;0,300048828125;9;610;5,71275725960732E-06;-3,99929359555244E-06;100 nA;
0,250244140625;619,01000443715;-8,67919921875E-08;0,25006103515625;9;611;5,71275725960732E-06;-3,99929359555244E-06;100 nA;
0,2001953125;620,010981434623;-8,9630126953125E-08;0,2000732421875;9;612;5,71275725960732E-06;-3,99929359555244E-06;100 nA;
0,150146484375;621,011958432096;-8,843994140625E-08;0,150115966796875;9;613;5,71275725960732E-06;-3,99929359555244E-06;100 nA;
0,10009765625;622,012935429568;-8,5784912109375E-08;0,10015869140625;9;614;5,71275725960732E-06;-3,99929359555244E-06;100 nA;
0,050048828125;623,013912427041;-8,4686279296875E-08;0,050201416015625;9;615;5,71275725960732E-06;-3,99929359555244E-06;100 nA;
0;624,014889424514;-8,1939697265625E-08;0,000115966796875006;9;616;5,71275725960732E-06;-3,99929359555244E-06;100 nA;
-0,050048828125;625,015866421987;-7,940673828125E-08;-0,04970703125;9;617;5,71275725960732E-06;-3,99929359555244E-06;100 nA;
-0,10009765625;626,016843419459;-7,781982421875E-08;-0,099517822265625;9;618;5,71275725960732E-06;-3,99929359555244E-06;100 nA;
-0,150146484375;627,017820416932;-7,7362060546875E-08;-0,14935302734375;9;619;5,71275725960732E-06;-3,99929359555244E-06;100 nA;
-0,2001953125;628,018797414405;-7,8033447265625E-08;-0,19927978515625;9;620;5,71275725960732E-06;-3,99929359555244E-06;100 nA;
-0,250244140625;629,019774411878;-7,9864501953125E-08;-0,249114990234375;9;621;5,71275725960732E-06;-3,99929359555244E-06;100 nA;
-0,30029296875;630,020751409351;-8,2489013671875E-08;-0,29913330078125;9;622;5,71275725960732E-06;-3,99929359555244E-06;100 nA;
-0,350341796875;631,021728406823;-8,7890625E-08;-0,349151611328125;9;623;5,71275725960732E-06;-3,99929359555244E-06;100 nA;
-0,400390625;632,022705404296;-9,6832275390625E-08;-0,3990478515625;9;624;5,71275725960732E-06;-3,99929359555244E-06;100 nA;
-0,450439453125;633,023682401769;-1,1083984375E-07;-0,448883056640625;9;625;5,71275725960732E-06;-3,99929359555244E-06;100 nA;
-0,50048828125;634,024659399242;-1,3037109375E-07;-0,498809814453125;9;626;5,71275725960732E-06;-3,99929359555244E-06;100 nA;
-0,550537109375;635,025636396714;-1,51123046875E-07;-0,54864501953125;9;627;5,71275725960732E-06;-3,99929359555244E-06;100 nA;
-0,6005859375;636,026613394187;-1,71905517578125E-07;-0,5985107421875;9;628;5,71275725960732E-06;-3,99929359555244E-06;100 nA;
-0,650634765625;637,02759039166;-1,9183349609375E-07;-0,648468017578125;9;629;5,71275725960732E-06;-3,99929359555244E-06;100 nA;
-0,70068359375;638,028567389133;-2,14263916015625E-07;-0,69830322265625;9;630;5,71275725960732E-06;-3,99929359555244E-06;100 nA;
-0,750732421875;639,029544386605;-2,4310302734375E-07;-0,7481689453125;9;631;5,71275725960732E-06;-3,99929359555244E-06;100 nA;
-0,80078125;640,030521384078;-2,81005859375E-07;-0,79864501953125;9;632;5,71275725960732E-06;-3,99929359555244E-06;100 nA;
-0,750732421875;641,031498381551;-2,23846435546875E-07;-0,748077392578125;9;633;5,71275725960732E-06;-3,99929359555244E-06;100 nA;
-0,70068359375;642,032475379024;-1,78802490234375E-07;-0,698211669921875;9;634;5,71275725960732E-06;-3,99929359555244E-06;100 nA;
-0,650634765625;643,033452376497;-1,38214111328125E-07;-0,648223876953125;9;635;5,71275725960732E-06;-3,99929359555244E-06;100 nA;
-0,6005859375;644,034429373969;-1,00921630859375E-07;-0,598358154296875;9;636;5,71275725960732E-06;-3,99929359555244E-06;100 nA;
-0,550537109375;645,035406371442;-6,5185546875E-08;-0,548614501953125;9;637;5,71275725960732E-06;-3,99929359555244E-06;100 nA;
-0,50048828125;646,036383368915;-4,180908203125E-08;-0,498779296875;9;638;5,71275725960732E-06;-3,99929359555244E-06;100 nA;
-0,450439453125;647,037360366388;-3,1646728515625E-08;-0,448944091796875;9;639;5,71275725960732E-06;-3,99929359555244E-06;100 nA;
-0,400390625;648,03833736386;-2,6336669921875E-08;-0,399078369140625;9;640;5,71275725960732E-06;-3,99929359555244E-06;100 nA;
-0,350341796875;649,039314361333;-2,23388671875E-08;-0,349212646484375;9;641;5,71275725960732E-06;-3,99929359555244E-06;100 nA;
-0,30029296875;650,040291358806;-1,8218994140625E-08;-0,299285888671875;9;642;5,71275725960732E-06;-3,99929359555244E-06;100 nA;
-0,250244140625;651,041268356279;-1,4617919921875E-08;-0,249420166015625;9;643;5,71275725960732E-06;-3,99929359555244E-06;100 nA;
-0,2001953125;652,042245353752;-1,1077880859375E-08;-0,199615478515625;9;644;5,71275725960732E-06;-3,99929359555244E-06;100 nA;
-0,150146484375;653,043222351224;-8,148193359375E-09;-0,14971923828125;9;645;5,71275725960732E-06;-3,99929359555244E-06;100 nA;
-0,10009765625;654,044199348697;-5,279541015625E-09;-0,099761962890625;9;646;5,71275725960732E-06;-3,99929359555244E-06;100 nA;
-0,050048828125;655,04517634617;-3,23486328125E-09;-0,049774169921875;9;647;5,71275725960732E-06;-3,99929359555244E-06;100 nA;
0;656,046153343643;-2,13623046875E-10;0,000131225585937506;9;648;5,71275725960732E-06;-3,99929359555244E-06;100 nA;
0,050048828125;657,047130341115;5,584716796875E-09;0,050140380859375;10;649;5,68395107984543E-06;-4,00702208280563E-06;100 nA;
0,10009765625;658,048107338588;1,7730712890625E-08;0,100067138671875;10;650;5,68395107984543E-06;-4,00702208280563E-06;100 nA;
0,150146484375;659,049084336061;1,64794921875E-08;0,15008544921875;10;651;5,68395107984543E-06;-4,00702208280563E-06;100 nA;
0,2001953125;660,050061333534;2,020263671875E-08;0,20013427734375;10;652;5,68395107984543E-06;-4,00702208280563E-06;100 nA;
0,250244140625;661,051038331007;2,47802734375E-08;0,250091552734375;10;653;5,68395107984543E-06;-4,00702208280563E-06;100 nA;
0,30029296875;662,052015328479;3,0670166015625E-08;0,30010986328125;10;654;5,68395107984543E-06;-4,00702208280563E-06;100 nA;
0,350341796875;663,052992325952;3,607177734375E-08;0,35009765625;10;655;5,68395107984543E-06;-4,00702208280563E-06;100 nA;
0,400390625;664,053969323425;3,924560546875E-08;0,399993896484375;10;656;5,68395107984543E-06;-4,00702208280563E-06;100 nA;
0,450439453125;665,054946320898;4,010009765625E-08;0,45001220703125;10;657;5,68395107984543E-06;-4,00702208280563E-06;100 nA;
0,50048828125;666,05592331837;4,5013427734375E-08;0,49993896484375;10;658;5,68395107984543E-06;-4,00702208280563E-06;100 nA;
0,550537109375;667,056900315843;6,195068359375E-08;0,5499267578125;10;659;5,68395107984543E-06;-4,00702208280563E-06;100 nA;
0,6005859375;668,057877313316;1,0986328125E-07;0,599761962890625;10;660;5,68395107984543E-06;-4,00702208280563E-06;100 nA;
0,650634765625;669,058854310789;2,3553466796875E-07;0,649444580078125;10;661;5,68395107984543E-06;-4,00702208280563E-06;100 nA;
0,70068359375;670,059831308262;4,50775146484375E-07;0,698699951171875;10;662;5,68395107984543E-06;-4,00702208280563E-06;100 nA;Current overload
0,750732421875;671,060808305734;4,99267578125E-07;0,749755859375;10;663;5,68395107984543E-06;-4,00702208280563E-06;1 µA;
0,80078125;672,061785303207;4,9560546875E-07;0,799560546875;10;664;5,68395107984543E-06;-4,00702208280563E-06;1 µA;
0,850830078125;673,06276230068;4,7760009765625E-07;0,8502197265625;10;665;5,68395107984543E-06;-4,00702208280563E-06;1 µA;
0,90087890625;674,063739298153;4,7149658203125E-07;0,899658203125;10;666;5,68395107984543E-06;-4,00702208280563E-06;1 µA;
0,950927734375;675,064716295625;4,7943115234375E-07;0,9490966796875;10;667;5,68395107984543E-06;-4,00702208280563E-06;1 µA;
1,0009765625;676,065693293098;5,0018310546875E-07;0,99945068359375;10;668;5,68395107984543E-06;-4,00702208280563E-06;1 µA;
0,950927734375;677,066670290571;4,0435791015625E-07;0,94970703125;10;669;5,68395107984543E-06;-4,00702208280563E-06;1 µA;
0,90087890625;678,067647288044;3,4710693359375E-07;0,89996337890625;10;670;5,68395107984543E-06;-4,00702208280563E-06;1 µA;
0,850830078125;679,068624285517;2,98675537109375E-07;0,8502197265625;10;671;5,68395107984543E-06;-4,00702208280563E-06;1 µA;
0,80078125;680,069601282989;2,45330810546875E-07;0,799560546875;10;672;5,68395107984543E-06;-4,00702208280563E-06;1 µA;
0,750732421875;681,070578280462;1,7962646484375E-07;0,749847412109375;10;673;5,68395107984543E-06;-4,00702208280563E-06;1 µA;
0,70068359375;682,071555277935;1,08123779296875E-07;0,699951171875;10;674;5,68395107984543E-06;-4,00702208280563E-06;1 µA;
0,650634765625;683,072532275408;3,759765625E-08;0,650054931640625;10;675;5,68395107984543E-06;-4,00702208280563E-06;1 µA;
0,6005859375;684,07350927288;-1,37939453125E-08;0,600067138671875;10;676;5,68395107984543E-06;-4,00702208280563E-06;1 µA;
0,550537109375;685,074486270353;-4,3487548828125E-08;0,550048828125;10;677;5,68395107984543E-06;-4,00702208280563E-06;1 µA;
0,50048828125;686,075463267826;-6,0150146484375E-08;0,500091552734375;10;678;5,68395107984543E-06;-4,00702208280563E-06;1 µA;
0,450439453125;687,076440265299;-7,049560546875E-08;0,4500732421875;10;679;5,68395107984543E-06;-4,00702208280563E-06;1 µA;
0,400390625;688,077417262772;-7,8216552734375E-08;0,400054931640625;10;680;5,68395107984543E-06;-4,00702208280563E-06;100 nA;
0,350341796875;689,078394260244;-8,270263671875E-08;0,35009765625;10;681;5,68395107984543E-06;-4,00702208280563E-06;100 nA;
0,30029296875;690,079371257717;-8,331298828125E-08;0,30010986328125;10;682;5,68395107984543E-06;-4,00702208280563E-06;100 nA;
0,250244140625;691,08034825519;-8,5693359375E-08;0,250152587890625;10;683;5,68395107984543E-06;-4,00702208280563E-06;100 nA;
0,2001953125;692,081325252663;-8,856201171875E-08;0,200164794921875;10;684;5,68395107984543E-06;-4,00702208280563E-06;100 nA;
0,150146484375;693,082302250135;-8,758544921875E-08;0,150238037109375;10;685;5,68395107984543E-06;-4,00702208280563E-06;100 nA;
0,10009765625;694,083279247608;-8,5479736328125E-08;0,1002197265625;10;686;5,68395107984543E-06;-4,00702208280563E-06;100 nA;
0,050048828125;695,084256245081;-8,428955078125E-08;0,050262451171875;10;687;5,68395107984543E-06;-4,00702208280563E-06;100 nA;
0;696,085233242554;-8,1573486328125E-08;0,000158691406249994;10;688;5,68395107984543E-06;-4,00702208280563E-06;100 nA;
-0,050048828125;697,086210240027;-7,97119140625E-08;-0,04974365234375;10;689;5,68395107984543E-06;-4,00702208280563E-06;100 nA;
-0,10009765625;698,087187237499;-7,89794921875E-08;-0,099639892578125;10;690;5,68395107984543E-06;-4,00702208280563E-06;100 nA;
-0,150146484375;699,088164234972;-7,8948974609375E-08;-0,149505615234375;10;691;5,68395107984543E-06;-4,00702208280563E-06;100 nA;
-0,2001953125;700,089141232445;-7,9437255859375E-08;-0,199432373046875;10;692;5,68395107984543E-06;-4,00702208280563E-06;100 nA;
-0,250244140625;701,090118229918;-8,1085205078125E-08;-0,2493896484375;10;693;5,68395107984543E-06;-4,00702208280563E-06;100 nA;
-0,30029296875;702,09109522739;-8,3587646484375E-08;-0,299285888671875;10;694;5,68395107984543E-06;-4,00702208280563E-06;100 nA;
-0,350341796875;703,092072224863;-8,88671875E-08;-0,349212646484375;10;695;5,68395107984543E-06;-4,00702208280563E-06;100 nA;
-0,400390625;704,093049222336;-9,7564697265625E-08;-0,3990478515625;10;696;5,68395107984543E-06;-4,00702208280563E-06;100 nA;
-0,450439453125;705,094026219809;-1,11083984375E-07;-0,448974609375;10;697;5,68395107984543E-06;-4,00702208280563E-06;100 nA;
-0,50048828125;706,095003217281;-1,30523681640625E-07;-0,498809814453125;10;698;5,68395107984543E-06;-4,00702208280563E-06;100 nA;
-0,550537109375;707,095980214754;-1,51214599609375E-07;-0,548583984375;10;699;5,68395107984543E-06;-4,00702208280563E-06;100 nA;
-0,6005859375;708,096957212227;-1,72027587890625E-07;-0,598358154296875;10;700;5,68395107984543E-06;-4,00702208280563E-06;100 nA;
-0,650634765625;709,0979342097;-1,9189453125E-07;-0,64825439453125;10;701;5,68395107984543E-06;-4,00702208280563E-06;100 nA;
-0,70068359375;710,098911207173;-2,1435546875E-07;-0,69818115234375;10;702;5,68395107984543E-06;-4,00702208280563E-06;100 nA;
-0,750732421875;711,099888204645;-2,4267578125E-07;-0,748046875;10;703;5,68395107984543E-06;-4,00702208280563E-06;100 nA;
-0,80078125;712,100865202118;-2,786865234375E-07;-0,79833984375;10;704;5,68395107984543E-06;-4,00702208280563E-06;100 nA;
-0,750732421875;713,101842199591;-2,23388671875E-07;-0,748077392578125;10;705;5,68395107984543E-06;-4,00702208280563E-06;100 nA;
-0,70068359375;714,102819197064;-1,7791748046875E-07;-0,6981201171875;10;706;5,68395107984543E-06;-4,00702208280563E-06;100 nA;
-0,650634765625;715,103796194536;-1,38671875E-07;-0,64825439453125;10;707;5,68395107984543E-06;-4,00702208280563E-06;100 nA;
-0,6005859375;716,104773192009;-1,0150146484375E-07;-0,598388671875;10;708;5,68395107984543E-06;-4,00702208280563E-06;100 nA;
-0,550537109375;717,105750189482;-6,6131591796875E-08;-0,548614501953125;10;709;5,68395107984543E-06;-4,00702208280563E-06;100 nA;
-0,50048828125;718,106727186955;-4,254150390625E-08;-0,498809814453125;10;710;5,68395107984543E-06;-4,00702208280563E-06;100 nA;
-0,450439453125;719,107704184428;-3,192138671875E-08;-0,448944091796875;10;711;5,68395107984543E-06;-4,00702208280563E-06;100 nA;
-0,400390625;720,1086811819;-2,7099609375E-08;-0,39910888671875;10;712;5,68395107984543E-06;-4,00702208280563E-06;100 nA;
-0,350341796875;721,109658179373;-2,294921875E-08;-0,3492431640625;10;713;5,68395107984543E-06;-4,00702208280563E-06;100 nA;
-0,30029296875;722,110635176846;-1,9073486328125E-08;-0,29925537109375;10;714;5,68395107984543E-06;-4,00702208280563E-06;100 nA;
-0,250244140625;723,111612174319;-1,5228271484375E-08;-0,24951171875;10;715;5,68395107984543E-06;-4,00702208280563E-06;100 nA;
-0,2001953125;724,112589171791;-1,1383056640625E-08;-0,1995849609375;10;716;5,68395107984543E-06;-4,00702208280563E-06;100 nA;
-0,150146484375;725,113566169264;-8,9111328125E-09;-0,149749755859375;10;717;5,68395107984543E-06;-4,00702208280563E-06;100 nA;
-0,10009765625;726,114543166737;-5,859375E-09;-0,099884033203125;10;718;5,68395107984543E-06;-4,00702208280563E-06;100 nA;
-0,050048828125;727,11552016421;-4,0283203125E-09;-0,0499267578125;10;719;5,68395107984543E-06;-4,00702208280563E-06;100 nA;
0;728,116497161683;-5,18798828125E-10;0,000149536132812503;10;720;5,68395107984543E-06;-4,00702208280563E-06;100 nA;
