Potential applied (V);Time (s);WE(1).Current (A);WE(1).Potential (V);Scan;Index;Q+;Q-;Current range
0,050048828125;7,42848498124488;1,1199951171875E-09;0,050079345703125;1;1;6,00149109959602E-08;-6,49712234735489E-08;100 nA
0,10009765625;7,92897297998127;1,9287109375E-09;0,100067138671875;1;2;6,00149109959602E-08;-6,49712234735489E-08;100 nA
0,150146484375;8,42946097871766;3,106689453125E-09;0,150054931640625;1;3;6,00149109959602E-08;-6,49712234735489E-08;100 nA
0,2001953125;8,92994897745405;3,460693359375E-09;0,2000732421875;1;4;6,00149109959602E-08;-6,49712234735489E-08;100 nA
0,250244140625;9,43043697619044;3,23486328125E-09;0,250030517578125;1;5;6,00149109959602E-08;-6,49712234735489E-08;100 nA
0,30029296875;9,93092497492682;3,2623291015625E-09;0,30010986328125;1;6;6,00149109959602E-08;-6,49712234735489E-08;100 nA
0,350341796875;10,4314129736632;3,460693359375E-09;0,350128173828125;1;7;6,00149109959602E-08;-6,49712234735489E-08;100 nA
0,400390625;10,9319009723996;3,564453125E-09;0,400115966796875;1;8;6,00149109959602E-08;-6,49712234735489E-08;100 nA
0,450439453125;11,432388971136;3,64990234375E-09;0,45013427734375;1;9;6,00149109959602E-08;-6,49712234735489E-08;100 nA
0,50048828125;11,9328769698724;3,69873046875E-09;0,500091552734375;1;10;6,00149109959602E-08;-6,49712234735489E-08;100 nA
0,550537109375;12,4333649686088;3,839111328125E-09;0,550140380859375;1;11;6,00149109959602E-08;-6,49712234735489E-08;100 nA
0,6005859375;12,9338529673452;4,0283203125E-09;0,60009765625;1;12;6,00149109959602E-08;-6,49712234735489E-08;100 nA
0,650634765625;13,4343409660816;4,1961669921875E-09;0,65008544921875;1;13;6,00149109959602E-08;-6,49712234735489E-08;100 nA
0,70068359375;13,9348289648179;4,376220703125E-09;0,699920654296875;1;14;6,00149109959602E-08;-6,49712234735489E-08;100 nA
0,750732421875;14,4353169635543;4,638671875E-09;0,7498779296875;1;15;6,00149109959602E-08;-6,49712234735489E-08;100 nA
0,80078125;14,9358049622907;4,94384765625E-09;0,79986572265625;1;16;6,00149109959602E-08;-6,49712234735489E-08;100 nA
0,850830078125;15,4362929610271;5,31005859375E-09;0,849609375;1;17;6,00149109959602E-08;-6,49712234735489E-08;100 nA
0,90087890625;15,9367809597635;5,7525634765625E-09;0,89996337890625;1;18;6,00149109959602E-08;-6,49712234735489E-08;100 nA
0,950927734375;16,4372689584999;6,219482421875E-09;0,94940185546875;1;19;6,00149109959602E-08;-6,49712234735489E-08;100 nA
1,0009765625;16,9377569572363;6,8023681640625E-09;0,999755859375;1;20;6,00149109959602E-08;-6,49712234735489E-08;100 nA
0,950927734375;17,4382449559727;2,06298828125E-09;0,95001220703125;1;21;6,00149109959602E-08;-6,49712234735489E-08;100 nA
0,90087890625;17,9387329547091;9,765625E-11;0,89996337890625;1;22;6,00149109959602E-08;-6,49712234735489E-08;100 nA
0,850830078125;18,4392209534454;-9,521484375E-10;0,8502197265625;1;23;6,00149109959602E-08;-6,49712234735489E-08;100 nA
0,80078125;18,9397089521818;-1,531982421875E-09;0,79986572265625;1;24;6,00149109959602E-08;-6,49712234735489E-08;100 nA
0,750732421875;19,4401969509182;-1,9378662109375E-09;0,749847412109375;1;25;6,00149109959602E-08;-6,49712234735489E-08;100 nA
0,70068359375;19,9406849496546;-2,203369140625E-09;0,70001220703125;1;26;6,00149109959602E-08;-6,49712234735489E-08;100 nA
0,650634765625;20,441172948391;-2,3773193359375E-09;0,650115966796875;1;27;6,00149109959602E-08;-6,49712234735489E-08;100 nA
0,6005859375;20,9416609471274;-2,4810791015625E-09;0,60009765625;1;28;6,00149109959602E-08;-6,49712234735489E-08;100 nA
0,550537109375;21,4421489458638;-2,4993896484375E-09;0,550140380859375;1;29;6,00149109959602E-08;-6,49712234735489E-08;100 nA
0,50048828125;21,9426369446002;-2,4566650390625E-09;0,50018310546875;1;30;6,00149109959602E-08;-6,49712234735489E-08;100 nA
0,450439453125;22,4431249433366;-2,3956298828125E-09;0,450164794921875;1;31;6,00149109959602E-08;-6,49712234735489E-08;100 nA
0,400390625;22,9436129420729;-2,4139404296875E-09;0,400146484375;1;32;6,00149109959602E-08;-6,49712234735489E-08;100 nA
0,350341796875;23,4441009408093;-2,587890625E-09;0,350189208984375;1;33;6,00149109959602E-08;-6,49712234735489E-08;100 nA
0,30029296875;23,9445889395457;-2,8167724609375E-09;0,3001708984375;1;34;6,00149109959602E-08;-6,49712234735489E-08;100 nA
0,250244140625;24,4450769382821;-3,143310546875E-09;0,2501220703125;1;35;6,00149109959602E-08;-6,49712234735489E-08;100 nA
0,2001953125;24,9455649370185;-4,00390625E-09;0,200103759765625;1;36;6,00149109959602E-08;-6,49712234735489E-08;100 nA
0,150146484375;25,4460529357549;-5,609130859375E-09;0,15008544921875;1;37;6,00149109959602E-08;-6,49712234735489E-08;100 nA
0,10009765625;25,9465409344913;-4,0740966796875E-09;0,100128173828125;1;38;6,00149109959602E-08;-6,49712234735489E-08;100 nA
0,050048828125;26,4470289332277;-3,704833984375E-09;0,05010986328125;1;39;6,00149109959602E-08;-6,49712234735489E-08;100 nA
0;26,9475169319641;-3,5858154296875E-09;0,000164794921875003;1;40;6,00149109959602E-08;-6,49712234735489E-08;100 nA
-0,050048828125;27,4480049307004;-3,6651611328125E-09;-0,049713134765625;1;41;6,00149109959602E-08;-6,49712234735489E-08;100 nA
-0,10009765625;27,9484929294368;-3,72314453125E-09;-0,099639892578125;1;42;6,00149109959602E-08;-6,49712234735489E-08;100 nA
-0,150146484375;28,4489809281732;-3,863525390625E-09;-0,1495361328125;1;43;6,00149109959602E-08;-6,49712234735489E-08;100 nA
-0,2001953125;28,9494689269096;-4,034423828125E-09;-0,199493408203125;1;44;6,00149109959602E-08;-6,49712234735489E-08;100 nA
-0,250244140625;29,449956925646;-4,302978515625E-09;-0,24932861328125;1;45;6,00149109959602E-08;-6,49712234735489E-08;100 nA
-0,30029296875;29,9504449243824;-4,6875E-09;-0,29925537109375;1;46;6,00149109959602E-08;-6,49712234735489E-08;100 nA
-0,350341796875;30,4509329231188;-4,9957275390625E-09;-0,349151611328125;1;47;6,00149109959602E-08;-6,49712234735489E-08;100 nA
-0,400390625;30,9514209218552;-5,218505859375E-09;-0,399078369140625;1;48;6,00149109959602E-08;-6,49712234735489E-08;100 nA
-0,450439453125;31,4519089205916;-4,9224853515625E-09;-0,448944091796875;1;49;6,00149109959602E-08;-6,49712234735489E-08;100 nA
-0,50048828125;31,952396919328;-4,2938232421875E-09;-0,49884033203125;1;50;6,00149109959602E-08;-6,49712234735489E-08;100 nA
-0,550537109375;32,4528849180643;-3,90625E-09;-0,548736572265625;1;51;6,00149109959602E-08;-6,49712234735489E-08;100 nA
-0,6005859375;32,9533729168007;-3,9306640625E-09;-0,598663330078125;1;52;6,00149109959602E-08;-6,49712234735489E-08;100 nA
-0,650634765625;33,4538609155371;-3,9794921875E-09;-0,648651123046875;1;53;6,00149109959602E-08;-6,49712234735489E-08;100 nA
-0,70068359375;33,9543489142735;-3,5064697265625E-09;-0,69866943359375;1;54;6,00149109959602E-08;-6,49712234735489E-08;100 nA
-0,750732421875;34,4548369130099;-3,0181884765625E-09;-0,748565673828125;1;55;6,00149109959602E-08;-6,49712234735489E-08;100 nA
-0,80078125;34,9553249117463;-2,752685546875E-09;-0,79864501953125;1;56;6,00149109959602E-08;-6,49712234735489E-08;100 nA
-0,850830078125;35,4558129104827;-2,6580810546875E-09;-0,848388671875;1;57;6,00149109959602E-08;-6,49712234735489E-08;100 nA
-0,90087890625;35,9563009092191;-2,7435302734375E-09;-0,8984375;1;58;6,00149109959602E-08;-6,49712234735489E-08;100 nA
-0,950927734375;36,4567889079555;-2,8533935546875E-09;-0,94879150390625;1;59;6,00149109959602E-08;-6,49712234735489E-08;100 nA
-1,0009765625;36,9572769066918;-3,1097412109375E-09;-0,99884033203125;1;60;6,00149109959602E-08;-6,49712234735489E-08;100 nA
-0,950927734375;37,4577649054282;-1,55029296875E-09;-0,948486328125;1;61;6,00149109959602E-08;-6,49712234735489E-08;100 nA
-0,90087890625;37,9582529041646;-8,026123046875E-10;-0,89874267578125;1;62;6,00149109959602E-08;-6,49712234735489E-08;100 nA
-0,850830078125;38,458740902901;-3,875732421875E-10;-0,8489990234375;1;63;6,00149109959602E-08;-6,49712234735489E-08;100 nA
-0,80078125;38,9592289016374;-1,3427734375E-10;-0,7989501953125;1;64;6,00149109959602E-08;-6,49712234735489E-08;100 nA
-0,750732421875;39,4597169003738;2,44140625E-11;-0,74859619140625;1;65;6,00149109959602E-08;-6,49712234735489E-08;100 nA
-0,70068359375;39,9602048991102;1,5869140625E-10;-0,698638916015625;1;66;6,00149109959602E-08;-6,49712234735489E-08;100 nA
-0,650634765625;40,4606928978466;5,645751953125E-10;-0,648651123046875;1;67;6,00149109959602E-08;-6,49712234735489E-08;100 nA
-0,6005859375;40,961180896583;1,1322021484375E-09;-0,598663330078125;1;68;6,00149109959602E-08;-6,49712234735489E-08;100 nA
-0,550537109375;41,4616688953193;1,3153076171875E-09;-0,54876708984375;1;69;6,00149109959602E-08;-6,49712234735489E-08;100 nA
-0,50048828125;41,9621568940557;1,4801025390625E-09;-0,49896240234375;1;70;6,00149109959602E-08;-6,49712234735489E-08;100 nA
-0,450439453125;42,4626448927921;1,727294921875E-09;-0,448944091796875;1;71;6,00149109959602E-08;-6,49712234735489E-08;100 nA
-0,400390625;42,9631328915285;2,1820068359375E-09;-0,399139404296875;1;72;6,00149109959602E-08;-6,49712234735489E-08;100 nA
-0,350341796875;43,4636208902649;2,7435302734375E-09;-0,349212646484375;1;73;6,00149109959602E-08;-6,49712234735489E-08;100 nA
-0,30029296875;43,9641088890013;3,375244140625E-09;-0,299285888671875;1;74;6,00149109959602E-08;-6,49712234735489E-08;100 nA
-0,250244140625;44,4645968877377;3,6376953125E-09;-0,24932861328125;1;75;6,00149109959602E-08;-6,49712234735489E-08;100 nA
-0,2001953125;44,9650848864741;3,8421630859375E-09;-0,199432373046875;1;76;6,00149109959602E-08;-6,49712234735489E-08;100 nA
-0,150146484375;45,4655728852105;3,863525390625E-09;-0,149566650390625;1;77;6,00149109959602E-08;-6,49712234735489E-08;100 nA
-0,10009765625;45,9660608839469;3,7353515625E-09;-0,099639892578125;1;78;6,00149109959602E-08;-6,49712234735489E-08;100 nA
-0,050048828125;46,4665488826832;3,6773681640625E-09;-0,0498046875;1;79;6,00149109959602E-08;-6,49712234735489E-08;100 nA
0;46,9670368814196;3,69873046875E-09;0,000128173828124994;1;80;6,00149109959602E-08;-6,49712234735489E-08;100 nA
0,050048828125;47,467524880156;3,7628173828125E-09;0,05010986328125;2;81;6,78182393312454E-08;-6,24082982540131E-08;100 nA
0,10009765625;47,9680128788924;3,89404296875E-09;0,100067138671875;2;82;6,78182393312454E-08;-6,24082982540131E-08;100 nA
0,150146484375;48,4685008776288;4,67529296875E-09;0,150115966796875;2;83;6,78182393312454E-08;-6,24082982540131E-08;100 nA
0,2001953125;48,9689888763652;4,779052734375E-09;0,200103759765625;2;84;6,78182393312454E-08;-6,24082982540131E-08;100 nA
0,250244140625;49,4694768751016;4,449462890625E-09;0,250152587890625;2;85;6,78182393312454E-08;-6,24082982540131E-08;100 nA
0,30029296875;49,969964873838;4,302978515625E-09;0,300079345703125;2;86;6,78182393312454E-08;-6,24082982540131E-08;100 nA
0,350341796875;50,4704528725744;4,254150390625E-09;0,350128173828125;2;87;6,78182393312454E-08;-6,24082982540131E-08;100 nA
0,400390625;50,9709408713107;4,150390625E-09;0,400146484375;2;88;6,78182393312454E-08;-6,24082982540131E-08;100 nA
0,450439453125;51,4714288700471;4,0557861328125E-09;0,450103759765625;2;89;6,78182393312454E-08;-6,24082982540131E-08;100 nA
0,50048828125;51,9719168687835;4,1015625E-09;0,500152587890625;2;90;6,78182393312454E-08;-6,24082982540131E-08;100 nA
0,550537109375;52,4724048675199;4,1534423828125E-09;0,55010986328125;2;91;6,78182393312454E-08;-6,24082982540131E-08;100 nA
0,6005859375;52,9728928662563;4,302978515625E-09;0,60015869140625;2;92;6,78182393312454E-08;-6,24082982540131E-08;100 nA
0,650634765625;53,4733808649927;4,47998046875E-09;0,6500244140625;2;93;6,78182393312454E-08;-6,24082982540131E-08;100 nA
0,70068359375;53,9738688637291;4,6905517578125E-09;0,699951171875;2;94;6,78182393312454E-08;-6,24082982540131E-08;100 nA
0,750732421875;54,4743568624655;4,9285888671875E-09;0,749847412109375;2;95;6,78182393312454E-08;-6,24082982540131E-08;100 nA
0,80078125;54,9748448612019;5,26123046875E-09;0,8001708984375;2;96;6,78182393312454E-08;-6,24082982540131E-08;100 nA
0,850830078125;55,4753328599382;5,65185546875E-09;0,8502197265625;2;97;6,78182393312454E-08;-6,24082982540131E-08;100 nA
0,90087890625;55,9758208586746;6,0699462890625E-09;0,899658203125;2;98;6,78182393312454E-08;-6,24082982540131E-08;100 nA
0,950927734375;56,476308857411;6,5093994140625E-09;0,95001220703125;2;99;6,78182393312454E-08;-6,24082982540131E-08;100 nA
1,0009765625;56,9767968561474;7,0068359375E-09;0,9991455078125;2;100;6,78182393312454E-08;-6,24082982540131E-08;100 nA
0,950927734375;57,4772848548838;2,203369140625E-09;0,94970703125;2;101;6,78182393312454E-08;-6,24082982540131E-08;100 nA
0,90087890625;57,9777728536202;1,64794921875E-10;0,9002685546875;2;102;6,78182393312454E-08;-6,24082982540131E-08;100 nA
0,850830078125;58,4782608523566;-8,85009765625E-10;0,849609375;2;103;6,78182393312454E-08;-6,24082982540131E-08;100 nA
0,80078125;58,978748851093;-1,519775390625E-09;0,79986572265625;2;104;6,78182393312454E-08;-6,24082982540131E-08;100 nA
0,750732421875;59,4792368498294;-1,910400390625E-09;0,749847412109375;2;105;6,78182393312454E-08;-6,24082982540131E-08;100 nA
0,70068359375;59,9797248485658;-2,2003173828125E-09;0,70001220703125;2;106;6,78182393312454E-08;-6,24082982540131E-08;100 nA
0,650634765625;60,4802128473021;-2,362060546875E-09;0,65008544921875;2;107;6,78182393312454E-08;-6,24082982540131E-08;100 nA
0,6005859375;60,9807008460385;-2,471923828125E-09;0,600128173828125;2;108;6,78182393312454E-08;-6,24082982540131E-08;100 nA
0,550537109375;61,4811888447749;-2,490234375E-09;0,55010986328125;2;109;6,78182393312454E-08;-6,24082982540131E-08;100 nA
0,50048828125;61,9816768435113;-2,5054931640625E-09;0,500091552734375;2;110;6,78182393312454E-08;-6,24082982540131E-08;100 nA
0,450439453125;62,4821648422477;-2,4261474609375E-09;0,450164794921875;2;111;6,78182393312454E-08;-6,24082982540131E-08;100 nA
0,400390625;62,9826528409841;-2,4627685546875E-09;0,400146484375;2;112;6,78182393312454E-08;-6,24082982540131E-08;100 nA
0,350341796875;63,4831408397205;-2,6031494140625E-09;0,35015869140625;2;113;6,78182393312454E-08;-6,24082982540131E-08;100 nA
0,30029296875;63,9836288384569;-2,8564453125E-09;0,30010986328125;2;114;6,78182393312454E-08;-6,24082982540131E-08;100 nA
0,250244140625;64,4841168371933;-3,216552734375E-09;0,2501220703125;2;115;6,78182393312454E-08;-6,24082982540131E-08;100 nA
0,2001953125;64,9846048359296;-4,052734375E-09;0,20013427734375;2;116;6,78182393312454E-08;-6,24082982540131E-08;100 nA
0,150146484375;65,485092834666;-5,7769775390625E-09;0,15008544921875;2;117;6,78182393312454E-08;-6,24082982540131E-08;100 nA
0,10009765625;65,9855808334024;-4,345703125E-09;0,100128173828125;2;118;6,78182393312454E-08;-6,24082982540131E-08;100 nA
0,050048828125;66,4860688321388;-3,9276123046875E-09;0,050140380859375;2;119;6,78182393312454E-08;-6,24082982540131E-08;100 nA
0;66,9865568308752;-3,9031982421875E-09;0,000170898437499997;2;120;6,78182393312454E-08;-6,24082982540131E-08;100 nA
-0,050048828125;67,4870448296116;-3,9093017578125E-09;-0,04974365234375;2;121;6,78182393312454E-08;-6,24082982540131E-08;100 nA
-0,10009765625;67,987532828348;-3,94287109375E-09;-0,09967041015625;2;122;6,78182393312454E-08;-6,24082982540131E-08;100 nA
-0,150146484375;68,4880208270844;-3,9947509765625E-09;-0,149566650390625;2;123;6,78182393312454E-08;-6,24082982540131E-08;100 nA
-0,2001953125;68,9885088258208;-4,058837890625E-09;-0,199462890625;2;124;6,78182393312454E-08;-6,24082982540131E-08;100 nA
-0,250244140625;69,4889968245571;-4,150390625E-09;-0,249359130859375;2;125;6,78182393312454E-08;-6,24082982540131E-08;100 nA
-0,30029296875;69,9894848232935;-4,3182373046875E-09;-0,29925537109375;2;126;6,78182393312454E-08;-6,24082982540131E-08;100 nA
-0,350341796875;70,4899728220299;-4,5806884765625E-09;-0,349151611328125;2;127;6,78182393312454E-08;-6,24082982540131E-08;100 nA
-0,400390625;70,9904608207663;-4,6600341796875E-09;-0,3990478515625;2;128;6,78182393312454E-08;-6,24082982540131E-08;100 nA
-0,450439453125;71,4909488195027;-4,3731689453125E-09;-0,448974609375;2;129;6,78182393312454E-08;-6,24082982540131E-08;100 nA
-0,50048828125;71,9914368182391;-3,8543701171875E-09;-0,498809814453125;2;130;6,78182393312454E-08;-6,24082982540131E-08;100 nA
-0,550537109375;72,4919248169755;-3,5247802734375E-09;-0,548797607421875;2;131;6,78182393312454E-08;-6,24082982540131E-08;100 nA
-0,6005859375;72,9924128157119;-3,558349609375E-09;-0,598602294921875;2;132;6,78182393312454E-08;-6,24082982540131E-08;100 nA
-0,650634765625;73,4929008144483;-3,5308837890625E-09;-0,64862060546875;2;133;6,78182393312454E-08;-6,24082982540131E-08;100 nA
-0,70068359375;73,9933888131847;-3,0242919921875E-09;-0,698577880859375;2;134;6,78182393312454E-08;-6,24082982540131E-08;100 nA
-0,750732421875;74,493876811921;-2,57568359375E-09;-0,748626708984375;2;135;6,78182393312454E-08;-6,24082982540131E-08;100 nA
-0,80078125;74,9943648106574;-2,362060546875E-09;-0,79864501953125;2;136;6,78182393312454E-08;-6,24082982540131E-08;100 nA
-0,850830078125;75,4948528093938;-2,294921875E-09;-0,848388671875;2;137;6,78182393312454E-08;-6,24082982540131E-08;100 nA
-0,90087890625;75,9953408081302;-2,3681640625E-09;-0,89874267578125;2;138;6,78182393312454E-08;-6,24082982540131E-08;100 nA
-0,950927734375;76,4958288068666;-2,5482177734375E-09;-0,94879150390625;2;139;6,78182393312454E-08;-6,24082982540131E-08;100 nA
-1,0009765625;76,996316805603;-2,8350830078125E-09;-0,99884033203125;2;140;6,78182393312454E-08;-6,24082982540131E-08;100 nA
-0,950927734375;77,4968048043394;-1,3519287109375E-09;-0,94879150390625;2;141;6,78182393312454E-08;-6,24082982540131E-08;100 nA
-0,90087890625;77,9972928030758;-6,622314453125E-10;-0,89935302734375;2;142;6,78182393312454E-08;-6,24082982540131E-08;100 nA
-0,850830078125;78,4977808018122;-2,655029296875E-10;-0,8489990234375;2;143;6,78182393312454E-08;-6,24082982540131E-08;100 nA
-0,80078125;78,9982688005485;-3,35693359375E-11;-0,79864501953125;2;144;6,78182393312454E-08;-6,24082982540131E-08;100 nA
-0,750732421875;79,4987567992849;1,28173828125E-10;-0,748626708984375;2;145;6,78182393312454E-08;-6,24082982540131E-08;100 nA
-0,70068359375;79,9992447980213;2,899169921875E-10;-0,6986083984375;2;146;6,78182393312454E-08;-6,24082982540131E-08;100 nA
-0,650634765625;80,4997327967577;6,378173828125E-10;-0,648651123046875;2;147;6,78182393312454E-08;-6,24082982540131E-08;100 nA
-0,6005859375;81,0002207954941;1,1444091796875E-09;-0,59869384765625;2;148;6,78182393312454E-08;-6,24082982540131E-08;100 nA
-0,550537109375;81,5007087942305;1,397705078125E-09;-0,548828125;2;149;6,78182393312454E-08;-6,24082982540131E-08;100 nA
-0,50048828125;82,0011967929669;1,5472412109375E-09;-0,4989013671875;2;150;6,78182393312454E-08;-6,24082982540131E-08;100 nA
-0,450439453125;82,5016847917033;1,776123046875E-09;-0,448974609375;2;151;6,78182393312454E-08;-6,24082982540131E-08;100 nA
-0,400390625;83,0021727904397;2,1728515625E-09;-0,399139404296875;2;152;6,78182393312454E-08;-6,24082982540131E-08;100 nA
-0,350341796875;83,502660789176;2,764892578125E-09;-0,349212646484375;2;153;6,78182393312454E-08;-6,24082982540131E-08;100 nA
-0,30029296875;84,0031487879124;3,375244140625E-09;-0,299285888671875;2;154;6,78182393312454E-08;-6,24082982540131E-08;100 nA
-0,250244140625;84,5036367866488;3,631591796875E-09;-0,249359130859375;2;155;6,78182393312454E-08;-6,24082982540131E-08;100 nA
-0,2001953125;85,0041247853852;3,8177490234375E-09;-0,199493408203125;2;156;6,78182393312454E-08;-6,24082982540131E-08;100 nA
-0,150146484375;85,5046127841216;3,86962890625E-09;-0,149627685546875;2;157;6,78182393312454E-08;-6,24082982540131E-08;100 nA
-0,10009765625;86,005100782858;3,741455078125E-09;-0,09979248046875;2;158;6,78182393312454E-08;-6,24082982540131E-08;100 nA
-0,050048828125;86,5055887815944;3,6651611328125E-09;-0,04986572265625;2;159;6,78182393312454E-08;-6,24082982540131E-08;100 nA
0;87,0060767803308;3,6956787109375E-09;0,000125122070312497;2;160;6,78182393312454E-08;-6,24082982540131E-08;100 nA
0,050048828125;87,5065647790672;3,74755859375E-09;0,05010986328125;3;161;6,68773800134659E-08;-6,17622211575508E-08;100 nA
0,10009765625;88,0070527778036;3,86962890625E-09;0,100067138671875;3;162;6,68773800134659E-08;-6,17622211575508E-08;100 nA
0,150146484375;88,5075407765399;4,6539306640625E-09;0,150115966796875;3;163;6,68773800134659E-08;-6,17622211575508E-08;100 nA
0,2001953125;89,0080287752763;4,742431640625E-09;0,2000732421875;3;164;6,68773800134659E-08;-6,17622211575508E-08;100 nA
0,250244140625;89,5085167740127;4,4036865234375E-09;0,25006103515625;3;165;6,68773800134659E-08;-6,17622211575508E-08;100 nA
0,30029296875;90,0090047727491;4,248046875E-09;0,300079345703125;3;166;6,68773800134659E-08;-6,17622211575508E-08;100 nA
0,350341796875;90,5094927714855;4,18701171875E-09;0,350128173828125;3;167;6,68773800134659E-08;-6,17622211575508E-08;100 nA
0,400390625;91,0099807702219;4,0771484375E-09;0,400115966796875;3;168;6,68773800134659E-08;-6,17622211575508E-08;100 nA
0,450439453125;91,5104687689583;4,0008544921875E-09;0,45013427734375;3;169;6,68773800134659E-08;-6,17622211575508E-08;100 nA
0,50048828125;92,0109567676947;3,997802734375E-09;0,500152587890625;3;170;6,68773800134659E-08;-6,17622211575508E-08;100 nA
0,550537109375;92,5114447664311;4,0557861328125E-09;0,550079345703125;3;171;6,68773800134659E-08;-6,17622211575508E-08;100 nA
0,6005859375;93,0119327651674;4,2236328125E-09;0,600128173828125;3;172;6,68773800134659E-08;-6,17622211575508E-08;100 nA
0,650634765625;93,5124207639038;4,39453125E-09;0,65008544921875;3;173;6,68773800134659E-08;-6,17622211575508E-08;100 nA
0,70068359375;94,0129087626402;4,583740234375E-09;0,699951171875;3;174;6,68773800134659E-08;-6,17622211575508E-08;100 nA
0,750732421875;94,5133967613766;4,8248291015625E-09;0,7498779296875;3;175;6,68773800134659E-08;-6,17622211575508E-08;100 nA
0,80078125;95,013884760113;5,169677734375E-09;0,79986572265625;3;176;6,68773800134659E-08;-6,17622211575508E-08;100 nA
0,850830078125;95,5143727588494;5,5816650390625E-09;0,84991455078125;3;177;6,68773800134659E-08;-6,17622211575508E-08;100 nA
0,90087890625;96,0148607575858;6,0028076171875E-09;0,89996337890625;3;178;6,68773800134659E-08;-6,17622211575508E-08;100 nA
0,950927734375;96,5153487563222;6,463623046875E-09;0,95001220703125;3;179;6,68773800134659E-08;-6,17622211575508E-08;100 nA
1,0009765625;97,0158367550586;6,9854736328125E-09;0,99945068359375;3;180;6,68773800134659E-08;-6,17622211575508E-08;100 nA
0,950927734375;97,5163247537949;2,16064453125E-09;0,94940185546875;3;181;6,68773800134659E-08;-6,17622211575508E-08;100 nA
0,90087890625;98,0168127525313;1,46484375E-10;0,89996337890625;3;182;6,68773800134659E-08;-6,17622211575508E-08;100 nA
0,850830078125;98,5173007512677;-9,3994140625E-10;0,8502197265625;3;183;6,68773800134659E-08;-6,17622211575508E-08;100 nA
0,80078125;99,0177887500041;-1,507568359375E-09;0,79986572265625;3;184;6,68773800134659E-08;-6,17622211575508E-08;100 nA
0,750732421875;99,5182767487405;-1,8646240234375E-09;0,7498779296875;3;185;6,68773800134659E-08;-6,17622211575508E-08;100 nA
0,70068359375;100,018764747477;-2,16064453125E-09;0,699981689453125;3;186;6,68773800134659E-08;-6,17622211575508E-08;100 nA
0,650634765625;100,519252746213;-2,3162841796875E-09;0,650177001953125;3;187;6,68773800134659E-08;-6,17622211575508E-08;100 nA
0,6005859375;101,01974074495;-2,4139404296875E-09;0,60015869140625;3;188;6,68773800134659E-08;-6,17622211575508E-08;100 nA
0,550537109375;101,520228743686;-2,4505615234375E-09;0,550140380859375;3;189;6,68773800134659E-08;-6,17622211575508E-08;100 nA
0,50048828125;102,020716742422;-2,4261474609375E-09;0,5001220703125;3;190;6,68773800134659E-08;-6,17622211575508E-08;100 nA
0,450439453125;102,521204741159;-2,386474609375E-09;0,450103759765625;3;191;6,68773800134659E-08;-6,17622211575508E-08;100 nA
0,400390625;103,021692739895;-2,410888671875E-09;0,400115966796875;3;192;6,68773800134659E-08;-6,17622211575508E-08;100 nA
0,350341796875;103,522180738632;-2,569580078125E-09;0,350189208984375;3;193;6,68773800134659E-08;-6,17622211575508E-08;100 nA
0,30029296875;104,022668737368;-2,8289794921875E-09;0,3001708984375;3;194;6,68773800134659E-08;-6,17622211575508E-08;100 nA
0,250244140625;104,523156736104;-3,192138671875E-09;0,2501220703125;3;195;6,68773800134659E-08;-6,17622211575508E-08;100 nA
0,2001953125;105,023644734841;-4,010009765625E-09;0,20013427734375;3;196;6,68773800134659E-08;-6,17622211575508E-08;100 nA
0,150146484375;105,524132733577;-5,7647705078125E-09;0,150146484375;3;197;6,68773800134659E-08;-6,17622211575508E-08;100 nA
0,10009765625;106,024620732314;-4,38232421875E-09;0,10009765625;3;198;6,68773800134659E-08;-6,17622211575508E-08;100 nA
0,050048828125;106,52510873105;-3,9215087890625E-09;0,0501708984375;3;199;6,68773800134659E-08;-6,17622211575508E-08;100 nA
0;107,025596729786;-3,8970947265625E-09;0,000152587890625;3;200;6,68773800134659E-08;-6,17622211575508E-08;100 nA
-0,050048828125;107,526084728523;-3,9154052734375E-09;-0,04974365234375;3;201;6,68773800134659E-08;-6,17622211575508E-08;100 nA
-0,10009765625;108,026572727259;-3,9581298828125E-09;-0,09967041015625;3;202;6,68773800134659E-08;-6,17622211575508E-08;100 nA
-0,150146484375;108,527060725996;-4,00390625E-09;-0,149566650390625;3;203;6,68773800134659E-08;-6,17622211575508E-08;100 nA
-0,2001953125;109,027548724732;-4,0435791015625E-09;-0,199462890625;3;204;6,68773800134659E-08;-6,17622211575508E-08;100 nA
-0,250244140625;109,528036723468;-4,16259765625E-09;-0,24932861328125;3;205;6,68773800134659E-08;-6,17622211575508E-08;100 nA
-0,30029296875;110,028524722205;-4,3121337890625E-09;-0,29925537109375;3;206;6,68773800134659E-08;-6,17622211575508E-08;100 nA
-0,350341796875;110,529012720941;-4,5562744140625E-09;-0,34918212890625;3;207;6,68773800134659E-08;-6,17622211575508E-08;100 nA
-0,400390625;111,029500719677;-4,6234130859375E-09;-0,399017333984375;3;208;6,68773800134659E-08;-6,17622211575508E-08;100 nA
-0,450439453125;111,529988718414;-4,3243408203125E-09;-0,448944091796875;3;209;6,68773800134659E-08;-6,17622211575508E-08;100 nA
-0,50048828125;112,03047671715;-3,7994384765625E-09;-0,49884033203125;3;210;6,68773800134659E-08;-6,17622211575508E-08;100 nA
-0,550537109375;112,530964715887;-3,4942626953125E-09;-0,548797607421875;3;211;6,68773800134659E-08;-6,17622211575508E-08;100 nA
-0,6005859375;113,031452714623;-3,5186767578125E-09;-0,598663330078125;3;212;6,68773800134659E-08;-6,17622211575508E-08;100 nA
-0,650634765625;113,531940713359;-3,448486328125E-09;-0,648590087890625;3;213;6,68773800134659E-08;-6,17622211575508E-08;100 nA
-0,70068359375;114,032428712096;-2,9266357421875E-09;-0,698638916015625;3;214;6,68773800134659E-08;-6,17622211575508E-08;100 nA
-0,750732421875;114,532916710832;-2,4993896484375E-09;-0,74859619140625;3;215;6,68773800134659E-08;-6,17622211575508E-08;100 nA
-0,80078125;115,033404709569;-2,288818359375E-09;-0,7989501953125;3;216;6,68773800134659E-08;-6,17622211575508E-08;100 nA
-0,850830078125;115,533892708305;-2,252197265625E-09;-0,84869384765625;3;217;6,68773800134659E-08;-6,17622211575508E-08;100 nA
-0,90087890625;116,034380707041;-2,2918701171875E-09;-0,89874267578125;3;218;6,68773800134659E-08;-6,17622211575508E-08;100 nA
-0,950927734375;116,534868705778;-2,50244140625E-09;-0,94879150390625;3;219;6,68773800134659E-08;-6,17622211575508E-08;100 nA
-1,0009765625;117,035356704514;-2,825927734375E-09;-0,99853515625;3;220;6,68773800134659E-08;-6,17622211575508E-08;100 nA
-0,950927734375;117,535844703251;-1,3397216796875E-09;-0,94879150390625;3;221;6,68773800134659E-08;-6,17622211575508E-08;100 nA
-0,90087890625;118,036332701987;-6,072998046875E-10;-0,8984375;3;222;6,68773800134659E-08;-6,17622211575508E-08;100 nA
-0,850830078125;118,536820700723;-2,410888671875E-10;-0,848388671875;3;223;6,68773800134659E-08;-6,17622211575508E-08;100 nA
-0,80078125;119,03730869946;-2,44140625E-11;-0,79833984375;3;224;6,68773800134659E-08;-6,17622211575508E-08;100 nA
-0,750732421875;119,537796698196;1,190185546875E-10;-0,748626708984375;3;225;6,68773800134659E-08;-6,17622211575508E-08;100 nA
-0,70068359375;120,038284696932;2,685546875E-10;-0,6986083984375;3;226;6,68773800134659E-08;-6,17622211575508E-08;100 nA
-0,650634765625;120,538772695669;5,767822265625E-10;-0,64862060546875;3;227;6,68773800134659E-08;-6,17622211575508E-08;100 nA
-0,6005859375;121,039260694405;1,08642578125E-09;-0,5987548828125;3;228;6,68773800134659E-08;-6,17622211575508E-08;100 nA
-0,550537109375;121,539748693142;1,348876953125E-09;-0,54876708984375;3;229;6,68773800134659E-08;-6,17622211575508E-08;100 nA
-0,50048828125;122,040236691878;1,50146484375E-09;-0,4989013671875;3;230;6,68773800134659E-08;-6,17622211575508E-08;100 nA
-0,450439453125;122,540724690614;1,7547607421875E-09;-0,448944091796875;3;231;6,68773800134659E-08;-6,17622211575508E-08;100 nA
-0,400390625;123,041212689351;2,1514892578125E-09;-0,39910888671875;3;232;6,68773800134659E-08;-6,17622211575508E-08;100 nA
-0,350341796875;123,541700688087;2,728271484375E-09;-0,349212646484375;3;233;6,68773800134659E-08;-6,17622211575508E-08;100 nA
-0,30029296875;124,042188686824;3,3294677734375E-09;-0,299285888671875;3;234;6,68773800134659E-08;-6,17622211575508E-08;100 nA
-0,250244140625;124,54267668556;3,582763671875E-09;-0,249359130859375;3;235;6,68773800134659E-08;-6,17622211575508E-08;100 nA
-0,2001953125;125,043164684296;3,753662109375E-09;-0,199493408203125;3;236;6,68773800134659E-08;-6,17622211575508E-08;100 nA
-0,150146484375;125,543652683033;3,851318359375E-09;-0,149627685546875;3;237;6,68773800134659E-08;-6,17622211575508E-08;100 nA
-0,10009765625;126,044140681769;3,7384033203125E-09;-0,099700927734375;3;238;6,68773800134659E-08;-6,17622211575508E-08;100 nA
-0,050048828125;126,544628680506;3,6407470703125E-09;-0,049835205078125;3;239;6,68773800134659E-08;-6,17622211575508E-08;100 nA
0;127,045116679242;3,6712646484375E-09;0,0001220703125;3;240;6,68773800134659E-08;-6,17622211575508E-08;100 nA
0,050048828125;127,545604677978;3,7109375E-09;0,050079345703125;4;241;6,67490810155868E-08;-6,19256496429443E-08;100 nA
0,10009765625;128,046092676715;3,8238525390625E-09;0,10009765625;4;242;6,67490810155868E-08;-6,19256496429443E-08;100 nA
0,150146484375;128,546580675451;4,6173095703125E-09;0,150115966796875;4;243;6,67490810155868E-08;-6,19256496429443E-08;100 nA
0,2001953125;129,047068674187;4,7149658203125E-09;0,200042724609375;4;244;6,67490810155868E-08;-6,19256496429443E-08;100 nA
0,250244140625;129,547556672924;4,3731689453125E-09;0,25006103515625;4;245;6,67490810155868E-08;-6,19256496429443E-08;100 nA
0,30029296875;130,04804467166;4,2205810546875E-09;0,300048828125;4;246;6,67490810155868E-08;-6,19256496429443E-08;100 nA
0,350341796875;130,548532670397;4,1717529296875E-09;0,35009765625;4;247;6,67490810155868E-08;-6,19256496429443E-08;100 nA
0,400390625;131,049020669133;4,046630859375E-09;0,400115966796875;4;248;6,67490810155868E-08;-6,19256496429443E-08;100 nA
0,450439453125;131,549508667869;3,9642333984375E-09;0,450103759765625;4;249;6,67490810155868E-08;-6,19256496429443E-08;100 nA
0,50048828125;132,049996666606;3,973388671875E-09;0,50006103515625;4;250;6,67490810155868E-08;-6,19256496429443E-08;100 nA
0,550537109375;132,550484665342;4,04052734375E-09;0,550048828125;4;251;6,67490810155868E-08;-6,19256496429443E-08;100 nA
0,6005859375;133,050972664079;4,205322265625E-09;0,600128173828125;4;252;6,67490810155868E-08;-6,19256496429443E-08;100 nA
0,650634765625;133,551460662815;4,3609619140625E-09;0,6500244140625;4;253;6,67490810155868E-08;-6,19256496429443E-08;100 nA
0,70068359375;134,051948661551;4,583740234375E-09;0,699920654296875;4;254;6,67490810155868E-08;-6,19256496429443E-08;100 nA
0,750732421875;134,552436660288;4,8431396484375E-09;0,7498779296875;4;255;6,67490810155868E-08;-6,19256496429443E-08;100 nA
0,80078125;135,052924659024;5,17578125E-09;0,79986572265625;4;256;6,67490810155868E-08;-6,19256496429443E-08;100 nA
0,850830078125;135,553412657761;5,5877685546875E-09;0,84991455078125;4;257;6,67490810155868E-08;-6,19256496429443E-08;100 nA
0,90087890625;136,053900656497;6,0272216796875E-09;0,89996337890625;4;258;6,67490810155868E-08;-6,19256496429443E-08;100 nA
0,950927734375;136,554388655233;6,4971923828125E-09;0,95001220703125;4;259;6,67490810155868E-08;-6,19256496429443E-08;100 nA
1,0009765625;137,05487665397;7,01904296875E-09;0,99945068359375;4;260;6,67490810155868E-08;-6,19256496429443E-08;100 nA
0,950927734375;137,555364652706;2,2247314453125E-09;0,9503173828125;4;261;6,67490810155868E-08;-6,19256496429443E-08;100 nA
0,90087890625;138,055852651442;2,01416015625E-10;0,9002685546875;4;262;6,67490810155868E-08;-6,19256496429443E-08;100 nA
0,850830078125;138,556340650179;-8,36181640625E-10;0,84991455078125;4;263;6,67490810155868E-08;-6,19256496429443E-08;100 nA
0,80078125;139,056828648915;-1,4404296875E-09;0,79986572265625;4;264;6,67490810155868E-08;-6,19256496429443E-08;100 nA
0,750732421875;139,557316647652;-1,8280029296875E-09;0,749908447265625;4;265;6,67490810155868E-08;-6,19256496429443E-08;100 nA
0,70068359375;140,057804646388;-2,0751953125E-09;0,699981689453125;4;266;6,67490810155868E-08;-6,19256496429443E-08;100 nA
0,650634765625;140,558292645124;-2,2674560546875E-09;0,65008544921875;4;267;6,67490810155868E-08;-6,19256496429443E-08;100 nA
0,6005859375;141,058780643861;-2,3406982421875E-09;0,600189208984375;4;268;6,67490810155868E-08;-6,19256496429443E-08;100 nA
0,550537109375;141,559268642597;-2,3651123046875E-09;0,550201416015625;4;269;6,67490810155868E-08;-6,19256496429443E-08;100 nA
0,50048828125;142,059756641334;-2,3590087890625E-09;0,500152587890625;4;270;6,67490810155868E-08;-6,19256496429443E-08;100 nA
0,450439453125;142,56024464007;-2,325439453125E-09;0,450164794921875;4;271;6,67490810155868E-08;-6,19256496429443E-08;100 nA
0,400390625;143,060732638806;-2,35595703125E-09;0,40020751953125;4;272;6,67490810155868E-08;-6,19256496429443E-08;100 nA
0,350341796875;143,561220637543;-2,5238037109375E-09;0,35015869140625;4;273;6,67490810155868E-08;-6,19256496429443E-08;100 nA
0,30029296875;144,061708636279;-2,7984619140625E-09;0,300140380859375;4;274;6,67490810155868E-08;-6,19256496429443E-08;100 nA
0,250244140625;144,562196635016;-3,1005859375E-09;0,250152587890625;4;275;6,67490810155868E-08;-6,19256496429443E-08;100 nA
0,2001953125;145,062684633752;-3,9306640625E-09;0,200164794921875;4;276;6,67490810155868E-08;-6,19256496429443E-08;100 nA
0,150146484375;145,563172632488;-5,7464599609375E-09;0,150146484375;4;277;6,67490810155868E-08;-6,19256496429443E-08;100 nA
0,10009765625;146,063660631225;-4,4158935546875E-09;0,10009765625;4;278;6,67490810155868E-08;-6,19256496429443E-08;100 nA
0,050048828125;146,564148629961;-3,9154052734375E-09;0,050140380859375;4;279;6,67490810155868E-08;-6,19256496429443E-08;100 nA
0;147,064636628697;-3,90625E-09;0,000140380859374997;4;280;6,67490810155868E-08;-6,19256496429443E-08;100 nA
-0,050048828125;147,565124627434;-3,912353515625E-09;-0,04971923828125;4;281;6,67490810155868E-08;-6,19256496429443E-08;100 nA
-0,10009765625;148,06561262617;-3,955078125E-09;-0,099700927734375;4;282;6,67490810155868E-08;-6,19256496429443E-08;100 nA
-0,150146484375;148,566100624907;-4,0069580078125E-09;-0,149566650390625;4;283;6,67490810155868E-08;-6,19256496429443E-08;100 nA
-0,2001953125;149,066588623643;-4,0771484375E-09;-0,199493408203125;4;284;6,67490810155868E-08;-6,19256496429443E-08;100 nA
-0,250244140625;149,567076622379;-4,180908203125E-09;-0,249359130859375;4;285;6,67490810155868E-08;-6,19256496429443E-08;100 nA
-0,30029296875;150,067564621116;-4,351806640625E-09;-0,29925537109375;4;286;6,67490810155868E-08;-6,19256496429443E-08;100 nA
-0,350341796875;150,568052619852;-4,5928955078125E-09;-0,34918212890625;4;287;6,67490810155868E-08;-6,19256496429443E-08;100 nA
-0,400390625;151,068540618589;-4,6630859375E-09;-0,399078369140625;4;288;6,67490810155868E-08;-6,19256496429443E-08;100 nA
-0,450439453125;151,569028617325;-4,3975830078125E-09;-0,449005126953125;4;289;6,67490810155868E-08;-6,19256496429443E-08;100 nA
-0,50048828125;152,069516616061;-3,8604736328125E-09;-0,49884033203125;4;290;6,67490810155868E-08;-6,19256496429443E-08;100 nA
-0,550537109375;152,570004614798;-3,558349609375E-09;-0,548828125;4;291;6,67490810155868E-08;-6,19256496429443E-08;100 nA
-0,6005859375;153,070492613534;-3,5980224609375E-09;-0,59869384765625;4;292;6,67490810155868E-08;-6,19256496429443E-08;100 nA
-0,650634765625;153,570980612271;-3,5125732421875E-09;-0,64862060546875;4;293;6,67490810155868E-08;-6,19256496429443E-08;100 nA
-0,70068359375;154,071468611007;-2,972412109375E-09;-0,69854736328125;4;294;6,67490810155868E-08;-6,19256496429443E-08;100 nA
-0,750732421875;154,571956609743;-2,5421142578125E-09;-0,748626708984375;4;295;6,67490810155868E-08;-6,19256496429443E-08;100 nA
-0,80078125;155,07244460848;-2,34375E-09;-0,7989501953125;4;296;6,67490810155868E-08;-6,19256496429443E-08;100 nA
-0,850830078125;155,572932607216;-2,3040771484375E-09;-0,8489990234375;4;297;6,67490810155868E-08;-6,19256496429443E-08;100 nA
-0,90087890625;156,073420605952;-2,4017333984375E-09;-0,8984375;4;298;6,67490810155868E-08;-6,19256496429443E-08;100 nA
-0,950927734375;156,573908604689;-2,60009765625E-09;-0,948486328125;4;299;6,67490810155868E-08;-6,19256496429443E-08;100 nA
-1,0009765625;157,074396603425;-2,8717041015625E-09;-0,99884033203125;4;300;6,67490810155868E-08;-6,19256496429443E-08;100 nA
-0,950927734375;157,574884602162;-1,4434814453125E-09;-0,948486328125;4;301;6,67490810155868E-08;-6,19256496429443E-08;100 nA
-0,90087890625;158,075372600898;-6,866455078125E-10;-0,89874267578125;4;302;6,67490810155868E-08;-6,19256496429443E-08;100 nA
-0,850830078125;158,575860599634;-3,143310546875E-10;-0,848388671875;4;303;6,67490810155868E-08;-6,19256496429443E-08;100 nA
-0,80078125;159,076348598371;-5,18798828125E-11;-0,79833984375;4;304;6,67490810155868E-08;-6,19256496429443E-08;100 nA
-0,750732421875;159,576836597107;1,220703125E-11;-0,748626708984375;4;305;6,67490810155868E-08;-6,19256496429443E-08;100 nA
-0,70068359375;160,077324595844;2,197265625E-10;-0,698638916015625;4;306;6,67490810155868E-08;-6,19256496429443E-08;100 nA
-0,650634765625;160,57781259458;5,462646484375E-10;-0,64862060546875;4;307;6,67490810155868E-08;-6,19256496429443E-08;100 nA
-0,6005859375;161,078300593316;1,025390625E-09;-0,59869384765625;4;308;6,67490810155868E-08;-6,19256496429443E-08;100 nA
-0,550537109375;161,578788592053;1,300048828125E-09;-0,548858642578125;4;309;6,67490810155868E-08;-6,19256496429443E-08;100 nA
-0,50048828125;162,079276590789;1,47705078125E-09;-0,498870849609375;4;310;6,67490810155868E-08;-6,19256496429443E-08;100 nA
-0,450439453125;162,579764589526;1,7120361328125E-09;-0,449066162109375;4;311;6,67490810155868E-08;-6,19256496429443E-08;100 nA
-0,400390625;163,080252588262;2,1209716796875E-09;-0,399078369140625;4;312;6,67490810155868E-08;-6,19256496429443E-08;100 nA
-0,350341796875;163,580740586998;2,69775390625E-09;-0,349273681640625;4;313;6,67490810155868E-08;-6,19256496429443E-08;100 nA
-0,30029296875;164,081228585735;3,314208984375E-09;-0,29931640625;4;314;6,67490810155868E-08;-6,19256496429443E-08;100 nA
-0,250244140625;164,581716584471;3,62548828125E-09;-0,249420166015625;4;315;6,67490810155868E-08;-6,19256496429443E-08;100 nA
-0,2001953125;165,082204583208;3,7933349609375E-09;-0,199493408203125;4;316;6,67490810155868E-08;-6,19256496429443E-08;100 nA
-0,150146484375;165,582692581944;3,863525390625E-09;-0,149505615234375;4;317;6,67490810155868E-08;-6,19256496429443E-08;100 nA
-0,10009765625;166,08318058068;3,7933349609375E-09;-0,0997314453125;4;318;6,67490810155868E-08;-6,19256496429443E-08;100 nA
-0,050048828125;166,583668579417;3,729248046875E-09;-0,049713134765625;4;319;6,67490810155868E-08;-6,19256496429443E-08;100 nA
0;167,084156578153;3,753662109375E-09;0,000125122070312497;4;320;6,67490810155868E-08;-6,19256496429443E-08;100 nA
0,050048828125;167,584644576889;3,8116455078125E-09;0,05010986328125;5;321;6,79526478052139E-08;-6,24098256230354E-08;100 nA
0,10009765625;168,085132575626;3,936767578125E-09;0,100128173828125;5;322;6,79526478052139E-08;-6,24098256230354E-08;100 nA
0,150146484375;168,585620574362;4,754638671875E-09;0,150054931640625;5;323;6,79526478052139E-08;-6,24098256230354E-08;100 nA
0,2001953125;169,086108573099;4,8065185546875E-09;0,20013427734375;5;324;6,79526478052139E-08;-6,24098256230354E-08;100 nA
0,250244140625;169,586596571835;4,4708251953125E-09;0,250030517578125;5;325;6,79526478052139E-08;-6,24098256230354E-08;100 nA
0,30029296875;170,087084570571;4,3243408203125E-09;0,300140380859375;5;326;6,79526478052139E-08;-6,24098256230354E-08;100 nA
0,350341796875;170,587572569308;4,278564453125E-09;0,350128173828125;5;327;6,79526478052139E-08;-6,24098256230354E-08;100 nA
0,400390625;171,088060568044;4,1534423828125E-09;0,400177001953125;5;328;6,79526478052139E-08;-6,24098256230354E-08;100 nA
0,450439453125;171,588548566781;4,0557861328125E-09;0,45013427734375;5;329;6,79526478052139E-08;-6,24098256230354E-08;100 nA
0,50048828125;172,089036565517;4,0679931640625E-09;0,500152587890625;5;330;6,79526478052139E-08;-6,24098256230354E-08;100 nA
0,550537109375;172,589524564253;4,1351318359375E-09;0,5501708984375;5;331;6,79526478052139E-08;-6,24098256230354E-08;100 nA
0,6005859375;173,09001256299;4,2633056640625E-09;0,60015869140625;5;332;6,79526478052139E-08;-6,24098256230354E-08;100 nA
0,650634765625;173,590500561726;4,443359375E-09;0,65008544921875;5;333;6,79526478052139E-08;-6,24098256230354E-08;100 nA
0,70068359375;174,090988560463;4,65087890625E-09;0,699920654296875;5;334;6,79526478052139E-08;-6,24098256230354E-08;100 nA
0,750732421875;174,591476559199;4,931640625E-09;0,74993896484375;5;335;6,79526478052139E-08;-6,24098256230354E-08;100 nA
0,80078125;175,091964557935;5,2398681640625E-09;0,8001708984375;5;336;6,79526478052139E-08;-6,24098256230354E-08;100 nA
0,850830078125;175,592452556672;5,60302734375E-09;0,8502197265625;5;337;6,79526478052139E-08;-6,24098256230354E-08;100 nA
0,90087890625;176,092940555408;6,0394287109375E-09;0,89996337890625;5;338;6,79526478052139E-08;-6,24098256230354E-08;100 nA
0,950927734375;176,593428554144;6,5155029296875E-09;0,94970703125;5;339;6,79526478052139E-08;-6,24098256230354E-08;100 nA
1,0009765625;177,093916552881;7,0465087890625E-09;0,99945068359375;5;340;6,79526478052139E-08;-6,24098256230354E-08;100 nA
0,950927734375;177,594404551617;2,2003173828125E-09;0,95001220703125;5;341;6,79526478052139E-08;-6,24098256230354E-08;100 nA
0,90087890625;178,094892550354;2,13623046875E-10;0,89935302734375;5;342;6,79526478052139E-08;-6,24098256230354E-08;100 nA
0,850830078125;178,59538054909;-8,4228515625E-10;0,849609375;5;343;6,79526478052139E-08;-6,24098256230354E-08;100 nA
0,80078125;179,095868547826;-1,4495849609375E-09;0,8001708984375;5;344;6,79526478052139E-08;-6,24098256230354E-08;100 nA
0,750732421875;179,596356546563;-1,8585205078125E-09;0,74993896484375;5;345;6,79526478052139E-08;-6,24098256230354E-08;100 nA
0,70068359375;180,096844545299;-2,1270751953125E-09;0,699981689453125;5;346;6,79526478052139E-08;-6,24098256230354E-08;100 nA
0,650634765625;180,597332544036;-2,30712890625E-09;0,65008544921875;5;347;6,79526478052139E-08;-6,24098256230354E-08;100 nA
0,6005859375;181,097820542772;-2,4139404296875E-09;0,600189208984375;5;348;6,79526478052139E-08;-6,24098256230354E-08;100 nA
0,550537109375;181,598308541508;-2,4749755859375E-09;0,550201416015625;5;349;6,79526478052139E-08;-6,24098256230354E-08;100 nA
0,50048828125;182,098796540245;-2,4322509765625E-09;0,500152587890625;5;350;6,79526478052139E-08;-6,24098256230354E-08;100 nA
0,450439453125;182,599284538981;-2,410888671875E-09;0,4501953125;5;351;6,79526478052139E-08;-6,24098256230354E-08;100 nA
0,400390625;183,099772537718;-2,447509765625E-09;0,400177001953125;5;352;6,79526478052139E-08;-6,24098256230354E-08;100 nA
0,350341796875;183,600260536454;-2,6092529296875E-09;0,350189208984375;5;353;6,79526478052139E-08;-6,24098256230354E-08;100 nA
0,30029296875;184,10074853519;-2,8656005859375E-09;0,300140380859375;5;354;6,79526478052139E-08;-6,24098256230354E-08;100 nA
0,250244140625;184,601236533927;-3,204345703125E-09;0,2501220703125;5;355;6,79526478052139E-08;-6,24098256230354E-08;100 nA
0,2001953125;185,101724532663;-4,0008544921875E-09;0,200103759765625;5;356;6,79526478052139E-08;-6,24098256230354E-08;100 nA
0,150146484375;185,602212531399;-5,816650390625E-09;0,150146484375;5;357;6,79526478052139E-08;-6,24098256230354E-08;100 nA
0,10009765625;186,102700530136;-4,55322265625E-09;0,100128173828125;5;358;6,79526478052139E-08;-6,24098256230354E-08;100 nA
0,050048828125;186,603188528872;-4,0283203125E-09;0,050079345703125;5;359;6,79526478052139E-08;-6,24098256230354E-08;100 nA
0;187,103676527609;-4,010009765625E-09;0,000152587890625;5;360;6,79526478052139E-08;-6,24098256230354E-08;100 nA
-0,050048828125;187,604164526345;-4,01611328125E-09;-0,049835205078125;5;361;6,79526478052139E-08;-6,24098256230354E-08;100 nA
-0,10009765625;188,104652525081;-4,046630859375E-09;-0,09967041015625;5;362;6,79526478052139E-08;-6,24098256230354E-08;100 nA
-0,150146484375;188,605140523818;-4,06494140625E-09;-0,149566650390625;5;363;6,79526478052139E-08;-6,24098256230354E-08;100 nA
-0,2001953125;189,105628522554;-4,144287109375E-09;-0,199493408203125;5;364;6,79526478052139E-08;-6,24098256230354E-08;100 nA
-0,250244140625;189,606116521291;-4,2388916015625E-09;-0,249420166015625;5;365;6,79526478052139E-08;-6,24098256230354E-08;100 nA
-0,30029296875;190,106604520027;-4,4097900390625E-09;-0,299285888671875;5;366;6,79526478052139E-08;-6,24098256230354E-08;100 nA
-0,350341796875;190,607092518763;-4,681396484375E-09;-0,349273681640625;5;367;6,79526478052139E-08;-6,24098256230354E-08;100 nA
-0,400390625;191,1075805175;-4,693603515625E-09;-0,399017333984375;5;368;6,79526478052139E-08;-6,24098256230354E-08;100 nA
-0,450439453125;191,608068516236;-4,3731689453125E-09;-0,449066162109375;5;369;6,79526478052139E-08;-6,24098256230354E-08;100 nA
-0,50048828125;192,108556514973;-3,8482666015625E-09;-0,498870849609375;5;370;6,79526478052139E-08;-6,24098256230354E-08;100 nA
-0,550537109375;192,609044513709;-3,5552978515625E-09;-0,54876708984375;5;371;6,79526478052139E-08;-6,24098256230354E-08;100 nA
-0,6005859375;193,109532512445;-3,564453125E-09;-0,59869384765625;5;372;6,79526478052139E-08;-6,24098256230354E-08;100 nA
-0,650634765625;193,610020511182;-3,460693359375E-09;-0,648651123046875;5;373;6,79526478052139E-08;-6,24098256230354E-08;100 nA
-0,70068359375;194,110508509918;-2,9205322265625E-09;-0,698638916015625;5;374;6,79526478052139E-08;-6,24098256230354E-08;100 nA
-0,750732421875;194,610996508654;-2,484130859375E-09;-0,7486572265625;5;375;6,79526478052139E-08;-6,24098256230354E-08;100 nA
-0,80078125;195,111484507391;-2,28271484375E-09;-0,79864501953125;5;376;6,79526478052139E-08;-6,24098256230354E-08;100 nA
-0,850830078125;195,611972506127;-2,2430419921875E-09;-0,8489990234375;5;377;6,79526478052139E-08;-6,24098256230354E-08;100 nA
-0,90087890625;196,112460504864;-2,3162841796875E-09;-0,89874267578125;5;378;6,79526478052139E-08;-6,24098256230354E-08;100 nA
-0,950927734375;196,6129485036;-2,50244140625E-09;-0,94879150390625;5;379;6,79526478052139E-08;-6,24098256230354E-08;100 nA
-1,0009765625;197,113436502336;-2,7984619140625E-09;-0,9991455078125;5;380;6,79526478052139E-08;-6,24098256230354E-08;100 nA
-0,950927734375;197,613924501073;-1,3153076171875E-09;-0,9490966796875;5;381;6,79526478052139E-08;-6,24098256230354E-08;100 nA
-0,90087890625;198,114412499809;-6,2255859375E-10;-0,8990478515625;5;382;6,79526478052139E-08;-6,24098256230354E-08;100 nA
-0,850830078125;198,614900498546;-2,410888671875E-10;-0,84869384765625;5;383;6,79526478052139E-08;-6,24098256230354E-08;100 nA
-0,80078125;199,115388497282;-2,13623046875E-11;-0,79833984375;5;384;6,79526478052139E-08;-6,24098256230354E-08;100 nA
-0,750732421875;199,615876496018;1,190185546875E-10;-0,7486572265625;5;385;6,79526478052139E-08;-6,24098256230354E-08;100 nA
-0,70068359375;200,116364494755;2,685546875E-10;-0,6986083984375;5;386;6,79526478052139E-08;-6,24098256230354E-08;100 nA
-0,650634765625;200,616852493491;5,79833984375E-10;-0,64862060546875;5;387;6,79526478052139E-08;-6,24098256230354E-08;100 nA
-0,6005859375;201,117340492228;1,0894775390625E-09;-0,59869384765625;5;388;6,79526478052139E-08;-6,24098256230354E-08;100 nA
-0,550537109375;201,617828490964;1,385498046875E-09;-0,548797607421875;5;389;6,79526478052139E-08;-6,24098256230354E-08;100 nA
-0,50048828125;202,1183164897;1,5380859375E-09;-0,498870849609375;5;390;6,79526478052139E-08;-6,24098256230354E-08;100 nA
-0,450439453125;202,618804488437;1,7974853515625E-09;-0,448944091796875;5;391;6,79526478052139E-08;-6,24098256230354E-08;100 nA
-0,400390625;203,119292487173;2,215576171875E-09;-0,3990478515625;5;392;6,79526478052139E-08;-6,24098256230354E-08;100 nA
-0,350341796875;203,619780485909;2,752685546875E-09;-0,34918212890625;5;393;6,79526478052139E-08;-6,24098256230354E-08;100 nA
-0,30029296875;204,120268484646;3,35693359375E-09;-0,299285888671875;5;394;6,79526478052139E-08;-6,24098256230354E-08;100 nA
-0,250244140625;204,620756483382;3,6376953125E-09;-0,2493896484375;5;395;6,79526478052139E-08;-6,24098256230354E-08;100 nA
-0,2001953125;205,121244482119;3,839111328125E-09;-0,199493408203125;5;396;6,79526478052139E-08;-6,24098256230354E-08;100 nA
-0,150146484375;205,621732480855;3,91845703125E-09;-0,149627685546875;5;397;6,79526478052139E-08;-6,24098256230354E-08;100 nA
-0,10009765625;206,122220479591;3,826904296875E-09;-0,0997314453125;5;398;6,79526478052139E-08;-6,24098256230354E-08;100 nA
-0,050048828125;206,622708478328;3,7445068359375E-09;-0,049835205078125;5;399;6,79526478052139E-08;-6,24098256230354E-08;100 nA
0;207,123196477064;3,759765625E-09;0,000131225585937506;5;400;6,79526478052139E-08;-6,24098256230354E-08;100 nA
0,050048828125;207,623684475801;3,8543701171875E-09;0,050140380859375;6;401;6,74089044332504E-08;-6,18095695972443E-08;100 nA
0,10009765625;208,124172474537;3,9764404296875E-09;0,10015869140625;6;402;6,74089044332504E-08;-6,18095695972443E-08;100 nA
0,150146484375;208,624660473273;4,7882080078125E-09;0,150146484375;6;403;6,74089044332504E-08;-6,18095695972443E-08;100 nA
0,2001953125;209,12514847201;4,803466796875E-09;0,2000732421875;6;404;6,74089044332504E-08;-6,18095695972443E-08;100 nA
0,250244140625;209,625636470746;4,4708251953125E-09;0,250091552734375;6;405;6,74089044332504E-08;-6,18095695972443E-08;100 nA
0,30029296875;210,126124469483;4,3243408203125E-09;0,300140380859375;6;406;6,74089044332504E-08;-6,18095695972443E-08;100 nA
0,350341796875;210,626612468219;4,266357421875E-09;0,35015869140625;6;407;6,74089044332504E-08;-6,18095695972443E-08;100 nA
0,400390625;211,127100466955;4,11376953125E-09;0,400177001953125;6;408;6,74089044332504E-08;-6,18095695972443E-08;100 nA
0,450439453125;211,627588465692;4,0191650390625E-09;0,45013427734375;6;409;6,74089044332504E-08;-6,18095695972443E-08;100 nA
0,50048828125;212,128076464428;4,01611328125E-09;0,500152587890625;6;410;6,74089044332504E-08;-6,18095695972443E-08;100 nA
0,550537109375;212,628564463164;4,1229248046875E-09;0,550140380859375;6;411;6,74089044332504E-08;-6,18095695972443E-08;100 nA
0,6005859375;213,129052461901;4,254150390625E-09;0,60009765625;6;412;6,74089044332504E-08;-6,18095695972443E-08;100 nA
0,650634765625;213,629540460637;4,52880859375E-09;0,65008544921875;6;413;6,74089044332504E-08;-6,18095695972443E-08;100 nA
0,70068359375;214,130028459374;4,5928955078125E-09;0,70001220703125;6;414;6,74089044332504E-08;-6,18095695972443E-08;100 nA
0,750732421875;214,63051645811;4,8126220703125E-09;0,749908447265625;6;415;6,74089044332504E-08;-6,18095695972443E-08;100 nA
0,80078125;215,131004456846;5,1727294921875E-09;0,79986572265625;6;416;6,74089044332504E-08;-6,18095695972443E-08;100 nA
0,850830078125;215,631492455583;5,5694580078125E-09;0,85052490234375;6;417;6,74089044332504E-08;-6,18095695972443E-08;100 nA
0,90087890625;216,131980454319;6,0028076171875E-09;0,89935302734375;6;418;6,74089044332504E-08;-6,18095695972443E-08;100 nA
0,950927734375;216,632468453056;6,4727783203125E-09;0,95001220703125;6;419;6,74089044332504E-08;-6,18095695972443E-08;100 nA
1,0009765625;217,132956451792;6,99462890625E-09;0,99945068359375;6;420;6,74089044332504E-08;-6,18095695972443E-08;100 nA
0,950927734375;217,633444450528;2,16064453125E-09;0,9490966796875;6;421;6,74089044332504E-08;-6,18095695972443E-08;100 nA
0,90087890625;218,133932449265;1,40380859375E-10;0,9002685546875;6;422;6,74089044332504E-08;-6,18095695972443E-08;100 nA
0,850830078125;218,634420448001;-9,033203125E-10;0,84991455078125;6;423;6,74089044332504E-08;-6,18095695972443E-08;100 nA
0,80078125;219,134908446738;-1,5045166015625E-09;0,79986572265625;6;424;6,74089044332504E-08;-6,18095695972443E-08;100 nA
0,750732421875;219,635396445474;-1,8798828125E-09;0,7498779296875;6;425;6,74089044332504E-08;-6,18095695972443E-08;100 nA
0,70068359375;220,13588444421;-2,1270751953125E-09;0,699981689453125;6;426;6,74089044332504E-08;-6,18095695972443E-08;100 nA
0,650634765625;220,636372442947;-2,3162841796875E-09;0,650054931640625;6;427;6,74089044332504E-08;-6,18095695972443E-08;100 nA
0,6005859375;221,136860441683;-2,4169921875E-09;0,600189208984375;6;428;6,74089044332504E-08;-6,18095695972443E-08;100 nA
0,550537109375;221,637348440419;-2,4566650390625E-09;0,550140380859375;6;429;6,74089044332504E-08;-6,18095695972443E-08;100 nA
0,50048828125;222,137836439156;-2,459716796875E-09;0,5001220703125;6;430;6,74089044332504E-08;-6,18095695972443E-08;100 nA
0,450439453125;222,638324437892;-2,4383544921875E-09;0,450164794921875;6;431;6,74089044332504E-08;-6,18095695972443E-08;100 nA
0,400390625;223,138812436629;-2,4505615234375E-09;0,400177001953125;6;432;6,74089044332504E-08;-6,18095695972443E-08;100 nA
0,350341796875;223,639300435365;-2,6214599609375E-09;0,35015869140625;6;433;6,74089044332504E-08;-6,18095695972443E-08;100 nA
0,30029296875;224,139788434101;-2,86865234375E-09;0,300140380859375;6;434;6,74089044332504E-08;-6,18095695972443E-08;100 nA
0,250244140625;224,640276432838;-3,21044921875E-09;0,2501220703125;6;435;6,74089044332504E-08;-6,18095695972443E-08;100 nA
0,2001953125;225,140764431574;-3,9794921875E-09;0,200103759765625;6;436;6,74089044332504E-08;-6,18095695972443E-08;100 nA
0,150146484375;225,641252430311;-5,8258056640625E-09;0,150115966796875;6;437;6,74089044332504E-08;-6,18095695972443E-08;100 nA
0,10009765625;226,141740429047;-4,6142578125E-09;0,100006103515625;6;438;6,74089044332504E-08;-6,18095695972443E-08;100 nA
0,050048828125;226,642228427783;-4,0130615234375E-09;0,050079345703125;6;439;6,74089044332504E-08;-6,18095695972443E-08;100 nA
0;227,14271642652;-3,997802734375E-09;0,000155639648437497;6;440;6,74089044332504E-08;-6,18095695972443E-08;100 nA
-0,050048828125;227,643204425256;-3,9764404296875E-09;-0,0498046875;6;441;6,74089044332504E-08;-6,18095695972443E-08;100 nA
-0,10009765625;228,143692423993;-4,022216796875E-09;-0,09967041015625;6;442;6,74089044332504E-08;-6,18095695972443E-08;100 nA
-0,150146484375;228,644180422729;-4,0557861328125E-09;-0,14959716796875;6;443;6,74089044332504E-08;-6,18095695972443E-08;100 nA
-0,2001953125;229,144668421465;-4,1107177734375E-09;-0,199432373046875;6;444;6,74089044332504E-08;-6,18095695972443E-08;100 nA
-0,250244140625;229,645156420202;-4,229736328125E-09;-0,249359130859375;6;445;6,74089044332504E-08;-6,18095695972443E-08;100 nA
-0,30029296875;230,145644418938;-4,345703125E-09;-0,29925537109375;6;446;6,74089044332504E-08;-6,18095695972443E-08;100 nA
-0,350341796875;230,646132417674;-4,5867919921875E-09;-0,34918212890625;6;447;6,74089044332504E-08;-6,18095695972443E-08;100 nA
-0,400390625;231,146620416411;-4,6356201171875E-09;-0,399078369140625;6;448;6,74089044332504E-08;-6,18095695972443E-08;100 nA
-0,450439453125;231,647108415147;-4,2938232421875E-09;-0,448944091796875;6;449;6,74089044332504E-08;-6,18095695972443E-08;100 nA
-0,50048828125;232,147596413884;-3,753662109375E-09;-0,49884033203125;6;450;6,74089044332504E-08;-6,18095695972443E-08;100 nA
-0,550537109375;232,64808441262;-3,4698486328125E-09;-0,548797607421875;6;451;6,74089044332504E-08;-6,18095695972443E-08;100 nA
-0,6005859375;233,148572411356;-3,5247802734375E-09;-0,59869384765625;6;452;6,74089044332504E-08;-6,18095695972443E-08;100 nA
-0,650634765625;233,649060410093;-3,3843994140625E-09;-0,64862060546875;6;453;6,74089044332504E-08;-6,18095695972443E-08;100 nA
-0,70068359375;234,149548408829;-2,850341796875E-09;-0,6986083984375;6;454;6,74089044332504E-08;-6,18095695972443E-08;100 nA
-0,750732421875;234,650036407566;-2,3956298828125E-09;-0,748565673828125;6;455;6,74089044332504E-08;-6,18095695972443E-08;100 nA
-0,80078125;235,150524406302;-2,203369140625E-09;-0,79833984375;6;456;6,74089044332504E-08;-6,18095695972443E-08;100 nA
-0,850830078125;235,651012405038;-2,1728515625E-09;-0,84869384765625;6;457;6,74089044332504E-08;-6,18095695972443E-08;100 nA
-0,90087890625;236,151500403775;-2,2430419921875E-09;-0,8984375;6;458;6,74089044332504E-08;-6,18095695972443E-08;100 nA
-0,950927734375;236,651988402511;-2,4017333984375E-09;-0,948486328125;6;459;6,74089044332504E-08;-6,18095695972443E-08;100 nA
-1,0009765625;237,152476401248;-2,72216796875E-09;-0,9991455078125;6;460;6,74089044332504E-08;-6,18095695972443E-08;100 nA
-0,950927734375;237,652964399984;-1,25732421875E-09;-0,948486328125;6;461;6,74089044332504E-08;-6,18095695972443E-08;100 nA
-0,90087890625;238,15345239872;-5,523681640625E-10;-0,89874267578125;6;462;6,74089044332504E-08;-6,18095695972443E-08;100 nA
-0,850830078125;238,653940397457;-2,13623046875E-10;-0,84869384765625;6;463;6,74089044332504E-08;-6,18095695972443E-08;100 nA
-0,80078125;239,154428396193;-1,220703125E-11;-0,7989501953125;6;464;6,74089044332504E-08;-6,18095695972443E-08;100 nA
-0,750732421875;239,65491639493;1,40380859375E-10;-0,748565673828125;6;465;6,74089044332504E-08;-6,18095695972443E-08;100 nA
-0,70068359375;240,155404393666;2,86865234375E-10;-0,6986083984375;6;466;6,74089044332504E-08;-6,18095695972443E-08;100 nA
-0,650634765625;240,655892392402;5,79833984375E-10;-0,648590087890625;6;467;6,74089044332504E-08;-6,18095695972443E-08;100 nA
-0,6005859375;241,156380391139;1,080322265625E-09;-0,59869384765625;6;468;6,74089044332504E-08;-6,18095695972443E-08;100 nA
-0,550537109375;241,656868389875;1,385498046875E-09;-0,548797607421875;6;469;6,74089044332504E-08;-6,18095695972443E-08;100 nA
-0,50048828125;242,157356388611;1,5167236328125E-09;-0,498870849609375;6;470;6,74089044332504E-08;-6,18095695972443E-08;100 nA
-0,450439453125;242,657844387348;1,751708984375E-09;-0,448974609375;6;471;6,74089044332504E-08;-6,18095695972443E-08;100 nA
-0,400390625;243,158332386084;2,130126953125E-09;-0,39910888671875;6;472;6,74089044332504E-08;-6,18095695972443E-08;100 nA
-0,350341796875;243,658820384821;2,6885986328125E-09;-0,349273681640625;6;473;6,74089044332504E-08;-6,18095695972443E-08;100 nA
-0,30029296875;244,159308383557;3,2928466796875E-09;-0,29925537109375;6;474;6,74089044332504E-08;-6,18095695972443E-08;100 nA
-0,250244140625;244,659796382293;3,564453125E-09;-0,249420166015625;6;475;6,74089044332504E-08;-6,18095695972443E-08;100 nA
-0,2001953125;245,16028438103;3,7750244140625E-09;-0,199554443359375;6;476;6,74089044332504E-08;-6,18095695972443E-08;100 nA
-0,150146484375;245,660772379766;3,8848876953125E-09;-0,149658203125;6;477;6,74089044332504E-08;-6,18095695972443E-08;100 nA
-0,10009765625;246,161260378503;3,778076171875E-09;-0,099700927734375;6;478;6,74089044332504E-08;-6,18095695972443E-08;100 nA
-0,050048828125;246,661748377239;3,6865234375E-09;-0,049774169921875;6;479;6,74089044332504E-08;-6,18095695972443E-08;100 nA
0;247,162236375975;3,6865234375E-09;0,0001220703125;6;480;6,74089044332504E-08;-6,18095695972443E-08;100 nA
0,050048828125;247,662724374712;3,7445068359375E-09;0,05010986328125;7;481;6,61228597164154E-08;-6,10199198126793E-08;100 nA
0,10009765625;248,163212373448;3,8848876953125E-09;0,100067138671875;7;482;6,61228597164154E-08;-6,10199198126793E-08;100 nA
0,150146484375;248,663700372185;4,7149658203125E-09;0,150115966796875;7;483;6,61228597164154E-08;-6,10199198126793E-08;100 nA
0,2001953125;249,164188370921;4,7393798828125E-09;0,2000732421875;7;484;6,61228597164154E-08;-6,10199198126793E-08;100 nA
0,250244140625;249,664676369657;4,388427734375E-09;0,2501220703125;7;485;6,61228597164154E-08;-6,10199198126793E-08;100 nA
0,30029296875;250,165164368394;4,241943359375E-09;0,30010986328125;7;486;6,61228597164154E-08;-6,10199198126793E-08;100 nA
0,350341796875;250,66565236713;4,180908203125E-09;0,35009765625;7;487;6,61228597164154E-08;-6,10199198126793E-08;100 nA
0,400390625;251,166140365866;4,04052734375E-09;0,400146484375;7;488;6,61228597164154E-08;-6,10199198126793E-08;100 nA
0,450439453125;251,666628364603;3,924560546875E-09;0,45013427734375;7;489;6,61228597164154E-08;-6,10199198126793E-08;100 nA
0,50048828125;252,167116363339;3,9154052734375E-09;0,500091552734375;7;490;6,61228597164154E-08;-6,10199198126793E-08;100 nA
0,550537109375;252,667604362076;3,9764404296875E-09;0,550079345703125;7;491;6,61228597164154E-08;-6,10199198126793E-08;100 nA
0,6005859375;253,168092360812;4,1229248046875E-09;0,60009765625;7;492;6,61228597164154E-08;-6,10199198126793E-08;100 nA
0,650634765625;253,668580359548;4,2694091796875E-09;0,65008544921875;7;493;6,61228597164154E-08;-6,10199198126793E-08;100 nA
0,70068359375;254,169068358285;4,5135498046875E-09;0,699981689453125;7;494;6,61228597164154E-08;-6,10199198126793E-08;100 nA
0,750732421875;254,669556357021;4,7698974609375E-09;0,7498779296875;7;495;6,61228597164154E-08;-6,10199198126793E-08;100 nA
0,80078125;255,170044355758;5,1055908203125E-09;0,8001708984375;7;496;6,61228597164154E-08;-6,10199198126793E-08;100 nA
0,850830078125;255,670532354494;5,5084228515625E-09;0,8502197265625;7;497;6,61228597164154E-08;-6,10199198126793E-08;100 nA
0,90087890625;256,17102035323;5,9234619140625E-09;0,9002685546875;7;498;6,61228597164154E-08;-6,10199198126793E-08;100 nA
0,950927734375;256,671508351967;6,3812255859375E-09;0,94940185546875;7;499;6,61228597164154E-08;-6,10199198126793E-08;100 nA
1,0009765625;257,171996350703;6,9549560546875E-09;0,99945068359375;7;500;6,61228597164154E-08;-6,10199198126793E-08;100 nA
0,950927734375;257,67248434944;2,093505859375E-09;0,94940185546875;7;501;6,61228597164154E-08;-6,10199198126793E-08;100 nA
0,90087890625;258,172972348176;7,32421875E-11;0,89996337890625;7;502;6,61228597164154E-08;-6,10199198126793E-08;100 nA
0,850830078125;258,673460346912;-9,521484375E-10;0,84991455078125;7;503;6,61228597164154E-08;-6,10199198126793E-08;100 nA
0,80078125;259,173948345649;-1,5106201171875E-09;0,79986572265625;7;504;6,61228597164154E-08;-6,10199198126793E-08;100 nA
0,750732421875;259,674436344385;-1,8829345703125E-09;0,749847412109375;7;505;6,61228597164154E-08;-6,10199198126793E-08;100 nA
0,70068359375;260,174924343121;-2,142333984375E-09;0,699981689453125;7;506;6,61228597164154E-08;-6,10199198126793E-08;100 nA
0,650634765625;260,675412341858;-2,2857666015625E-09;0,650115966796875;7;507;6,61228597164154E-08;-6,10199198126793E-08;100 nA
0,6005859375;261,175900340594;-2,392578125E-09;0,60009765625;7;508;6,61228597164154E-08;-6,10199198126793E-08;100 nA
0,550537109375;261,676388339331;-2,423095703125E-09;0,550140380859375;7;509;6,61228597164154E-08;-6,10199198126793E-08;100 nA
0,50048828125;262,176876338067;-2,410888671875E-09;0,500152587890625;7;510;6,61228597164154E-08;-6,10199198126793E-08;100 nA
0,450439453125;262,677364336803;-2,3895263671875E-09;0,450164794921875;7;511;6,61228597164154E-08;-6,10199198126793E-08;100 nA
0,400390625;263,17785233554;-2,4169921875E-09;0,400177001953125;7;512;6,61228597164154E-08;-6,10199198126793E-08;100 nA
0,350341796875;263,678340334276;-2,569580078125E-09;0,350067138671875;7;513;6,61228597164154E-08;-6,10199198126793E-08;100 nA
0,30029296875;264,178828333013;-2,81982421875E-09;0,300079345703125;7;514;6,61228597164154E-08;-6,10199198126793E-08;100 nA
0,250244140625;264,679316331749;-3,1585693359375E-09;0,250152587890625;7;515;6,61228597164154E-08;-6,10199198126793E-08;100 nA
0,2001953125;265,179804330485;-3,9093017578125E-09;0,200103759765625;7;516;6,61228597164154E-08;-6,10199198126793E-08;100 nA
0,150146484375;265,680292329222;-5,7342529296875E-09;0,150115966796875;7;517;6,61228597164154E-08;-6,10199198126793E-08;100 nA
0,10009765625;266,180780327958;-4,6142578125E-09;0,10015869140625;7;518;6,61228597164154E-08;-6,10199198126793E-08;100 nA
0,050048828125;266,681268326695;-3,9886474609375E-09;0,05010986328125;7;519;6,61228597164154E-08;-6,10199198126793E-08;100 nA
0;267,181756325431;-3,9337158203125E-09;0,000143432617187494;7;520;6,61228597164154E-08;-6,10199198126793E-08;100 nA
-0,050048828125;267,682244324167;-3,9459228515625E-09;-0,04971923828125;7;521;6,61228597164154E-08;-6,10199198126793E-08;100 nA
-0,10009765625;268,182732322904;-3,99169921875E-09;-0,099639892578125;7;522;6,61228597164154E-08;-6,10199198126793E-08;100 nA
-0,150146484375;268,68322032164;-4,0252685546875E-09;-0,149566650390625;7;523;6,61228597164154E-08;-6,10199198126793E-08;100 nA
-0,2001953125;269,183708320376;-4,0802001953125E-09;-0,199432373046875;7;524;6,61228597164154E-08;-6,10199198126793E-08;100 nA
-0,250244140625;269,684196319113;-4,1717529296875E-09;-0,24932861328125;7;525;6,61228597164154E-08;-6,10199198126793E-08;100 nA
-0,30029296875;270,184684317849;-4,3243408203125E-09;-0,299285888671875;7;526;6,61228597164154E-08;-6,10199198126793E-08;100 nA
-0,350341796875;270,685172316586;-4,55322265625E-09;-0,34918212890625;7;527;6,61228597164154E-08;-6,10199198126793E-08;100 nA
-0,400390625;271,185660315322;-4,57763671875E-09;-0,399078369140625;7;528;6,61228597164154E-08;-6,10199198126793E-08;100 nA
-0,450439453125;271,686148314058;-4,2144775390625E-09;-0,448974609375;7;529;6,61228597164154E-08;-6,10199198126793E-08;100 nA
-0,50048828125;272,186636312795;-3,6712646484375E-09;-0,498870849609375;7;530;6,61228597164154E-08;-6,10199198126793E-08;100 nA
-0,550537109375;272,687124311531;-3,1829833984375E-09;-0,54876708984375;7;531;6,61228597164154E-08;-6,10199198126793E-08;100 nA
-0,6005859375;273,187612310268;-3,38134765625E-09;-0,59869384765625;7;532;6,61228597164154E-08;-6,10199198126793E-08;100 nA
-0,650634765625;273,688100309004;-3,2135009765625E-09;-0,648590087890625;7;533;6,61228597164154E-08;-6,10199198126793E-08;100 nA
-0,70068359375;274,18858830774;-2,7862548828125E-09;-0,6986083984375;7;534;6,61228597164154E-08;-6,10199198126793E-08;100 nA
-0,750732421875;274,689076306477;-2,38037109375E-09;-0,7486572265625;7;535;6,61228597164154E-08;-6,10199198126793E-08;100 nA
-0,80078125;275,189564305213;-2,227783203125E-09;-0,79864501953125;7;536;6,61228597164154E-08;-6,10199198126793E-08;100 nA
-0,850830078125;275,69005230395;-2,130126953125E-09;-0,849609375;7;537;6,61228597164154E-08;-6,10199198126793E-08;100 nA
-0,90087890625;276,190540302686;-2,264404296875E-09;-0,89874267578125;7;538;6,61228597164154E-08;-6,10199198126793E-08;100 nA
-0,950927734375;276,691028301422;-2,4383544921875E-09;-0,94940185546875;7;539;6,61228597164154E-08;-6,10199198126793E-08;100 nA
-1,0009765625;277,191516300159;-2,734375E-09;-0,9991455078125;7;540;6,61228597164154E-08;-6,10199198126793E-08;100 nA
-0,950927734375;277,692004298895;-1,239013671875E-09;-0,9490966796875;7;541;6,61228597164154E-08;-6,10199198126793E-08;100 nA
-0,90087890625;278,192492297631;-6,134033203125E-10;-0,89874267578125;7;542;6,61228597164154E-08;-6,10199198126793E-08;100 nA
-0,850830078125;278,692980296368;-2,38037109375E-10;-0,8489990234375;7;543;6,61228597164154E-08;-6,10199198126793E-08;100 nA
-0,80078125;279,193468295104;6,103515625E-12;-0,7989501953125;7;544;6,61228597164154E-08;-6,10199198126793E-08;100 nA
-0,750732421875;279,693956293841;1,28173828125E-10;-0,74859619140625;7;545;6,61228597164154E-08;-6,10199198126793E-08;100 nA
-0,70068359375;280,194444292577;2,685546875E-10;-0,698577880859375;7;546;6,61228597164154E-08;-6,10199198126793E-08;100 nA
-0,650634765625;280,694932291313;5,31005859375E-10;-0,64862060546875;7;547;6,61228597164154E-08;-6,10199198126793E-08;100 nA
-0,6005859375;281,19542029005;9,857177734375E-10;-0,598724365234375;7;548;6,61228597164154E-08;-6,10199198126793E-08;100 nA
-0,550537109375;281,695908288786;1,3214111328125E-09;-0,548828125;7;549;6,61228597164154E-08;-6,10199198126793E-08;100 nA
-0,50048828125;282,196396287523;1,483154296875E-09;-0,498809814453125;7;550;6,61228597164154E-08;-6,10199198126793E-08;100 nA
-0,450439453125;282,696884286259;1,7364501953125E-09;-0,449005126953125;7;551;6,61228597164154E-08;-6,10199198126793E-08;100 nA
-0,400390625;283,197372284995;2,1026611328125E-09;-0,399139404296875;7;552;6,61228597164154E-08;-6,10199198126793E-08;100 nA
-0,350341796875;283,697860283732;2,655029296875E-09;-0,3492431640625;7;553;6,61228597164154E-08;-6,10199198126793E-08;100 nA
-0,30029296875;284,198348282468;3,240966796875E-09;-0,299285888671875;7;554;6,61228597164154E-08;-6,10199198126793E-08;100 nA
-0,250244140625;284,698836281205;3,5308837890625E-09;-0,249359130859375;7;555;6,61228597164154E-08;-6,10199198126793E-08;100 nA
-0,2001953125;285,199324279941;3,7322998046875E-09;-0,199493408203125;7;556;6,61228597164154E-08;-6,10199198126793E-08;100 nA
-0,150146484375;285,699812278677;3,8543701171875E-09;-0,14959716796875;7;557;6,61228597164154E-08;-6,10199198126793E-08;100 nA
-0,10009765625;286,200300277414;3,7200927734375E-09;-0,0997314453125;7;558;6,61228597164154E-08;-6,10199198126793E-08;100 nA
-0,050048828125;286,70078827615;3,6834716796875E-09;-0,0498046875;7;559;6,61228597164154E-08;-6,10199198126793E-08;100 nA
0;287,201276274886;3,668212890625E-09;0,000134277343750003;7;560;6,61228597164154E-08;-6,10199198126793E-08;100 nA
0,050048828125;287,701764273623;3,7322998046875E-09;0,050048828125;8;561;6,65138661861419E-08;-6,14995136857033E-08;100 nA
0,10009765625;288,202252272359;3,84521484375E-09;0,100067138671875;8;562;6,65138661861419E-08;-6,14995136857033E-08;100 nA
0,150146484375;288,702740271096;4,7088623046875E-09;0,150054931640625;8;563;6,65138661861419E-08;-6,14995136857033E-08;100 nA
0,2001953125;289,203228269832;4,67529296875E-09;0,199981689453125;8;564;6,65138661861419E-08;-6,14995136857033E-08;100 nA
0,250244140625;289,703716268568;4,3365478515625E-09;0,25;8;565;6,65138661861419E-08;-6,14995136857033E-08;100 nA
0,30029296875;290,204204267305;4,2083740234375E-09;0,30010986328125;8;566;6,65138661861419E-08;-6,14995136857033E-08;100 nA
0,350341796875;290,704692266041;4,0679931640625E-09;0,35009765625;8;567;6,65138661861419E-08;-6,14995136857033E-08;100 nA
0,400390625;291,205180264778;4,0252685546875E-09;0,40008544921875;8;568;6,65138661861419E-08;-6,14995136857033E-08;100 nA
0,450439453125;291,705668263514;3,887939453125E-09;0,4500732421875;8;569;6,65138661861419E-08;-6,14995136857033E-08;100 nA
0,50048828125;292,20615626225;3,91845703125E-09;0,500152587890625;8;570;6,65138661861419E-08;-6,14995136857033E-08;100 nA
0,550537109375;292,706644260987;4,022216796875E-09;0,550140380859375;8;571;6,65138661861419E-08;-6,14995136857033E-08;100 nA
0,6005859375;293,207132259723;4,1534423828125E-09;0,600067138671875;8;572;6,65138661861419E-08;-6,14995136857033E-08;100 nA
0,650634765625;293,70762025846;4,30908203125E-09;0,650054931640625;8;573;6,65138661861419E-08;-6,14995136857033E-08;100 nA
0,70068359375;294,208108257196;4,522705078125E-09;0,699951171875;8;574;6,65138661861419E-08;-6,14995136857033E-08;100 nA
0,750732421875;294,708596255932;4,791259765625E-09;0,7498779296875;8;575;6,65138661861419E-08;-6,14995136857033E-08;100 nA
0,80078125;295,209084254669;5,13916015625E-09;0,799560546875;8;576;6,65138661861419E-08;-6,14995136857033E-08;100 nA
0,850830078125;295,709572253405;5,535888671875E-09;0,8502197265625;8;577;6,65138661861419E-08;-6,14995136857033E-08;100 nA
0,90087890625;296,210060252141;5,96923828125E-09;0,9002685546875;8;578;6,65138661861419E-08;-6,14995136857033E-08;100 nA
0,950927734375;296,710548250878;6,43310546875E-09;0,94970703125;8;579;6,65138661861419E-08;-6,14995136857033E-08;100 nA
1,0009765625;297,211036249614;6,99462890625E-09;0,999755859375;8;580;6,65138661861419E-08;-6,14995136857033E-08;100 nA
0,950927734375;297,711524248351;2,1881103515625E-09;0,9503173828125;8;581;6,65138661861419E-08;-6,14995136857033E-08;100 nA
0,90087890625;298,212012247087;1,5869140625E-10;0,899658203125;8;582;6,65138661861419E-08;-6,14995136857033E-08;100 nA
0,850830078125;298,712500245823;-8,758544921875E-10;0,85052490234375;8;583;6,65138661861419E-08;-6,14995136857033E-08;100 nA
0,80078125;299,21298824456;-1,4556884765625E-09;0,80047607421875;8;584;6,65138661861419E-08;-6,14995136857033E-08;100 nA
0,750732421875;299,713476243296;-1,8310546875E-09;0,74993896484375;8;585;6,65138661861419E-08;-6,14995136857033E-08;100 nA
0,70068359375;300,213964242033;-2,069091796875E-09;0,700042724609375;8;586;6,65138661861419E-08;-6,14995136857033E-08;100 nA
0,650634765625;300,714452240769;-2,2064208984375E-09;0,650115966796875;8;587;6,65138661861419E-08;-6,14995136857033E-08;100 nA
0,6005859375;301,214940239505;-2,325439453125E-09;0,6002197265625;8;588;6,65138661861419E-08;-6,14995136857033E-08;100 nA
0,550537109375;301,715428238242;-2,349853515625E-09;0,550201416015625;8;589;6,65138661861419E-08;-6,14995136857033E-08;100 nA
0,50048828125;302,215916236978;-2,3406982421875E-09;0,5001220703125;8;590;6,65138661861419E-08;-6,14995136857033E-08;100 nA
0,450439453125;302,716404235715;-2,3468017578125E-09;0,450164794921875;8;591;6,65138661861419E-08;-6,14995136857033E-08;100 nA
0,400390625;303,216892234451;-2,3284912109375E-09;0,400146484375;8;592;6,65138661861419E-08;-6,14995136857033E-08;100 nA
0,350341796875;303,717380233187;-2,5390625E-09;0,3502197265625;8;593;6,65138661861419E-08;-6,14995136857033E-08;100 nA
0,30029296875;304,217868231924;-2,7618408203125E-09;0,300140380859375;8;594;6,65138661861419E-08;-6,14995136857033E-08;100 nA
0,250244140625;304,71835623066;-3,1158447265625E-09;0,250152587890625;8;595;6,65138661861419E-08;-6,14995136857033E-08;100 nA
0,2001953125;305,218844229397;-3,857421875E-09;0,20013427734375;8;596;6,65138661861419E-08;-6,14995136857033E-08;100 nA
0,150146484375;305,719332228133;-5,6732177734375E-09;0,150146484375;8;597;6,65138661861419E-08;-6,14995136857033E-08;100 nA
0,10009765625;306,219820226869;-4,6234130859375E-09;0,10009765625;8;598;6,65138661861419E-08;-6,14995136857033E-08;100 nA
0,050048828125;306,720308225606;-3,985595703125E-09;0,05010986328125;8;599;6,65138661861419E-08;-6,14995136857033E-08;100 nA
0;307,220796224342;-3,9642333984375E-09;0,000125122070312497;8;600;6,65138661861419E-08;-6,14995136857033E-08;100 nA
-0,050048828125;307,721284223078;-4,0283203125E-09;-0,049774169921875;8;601;6,65138661861419E-08;-6,14995136857033E-08;100 nA
-0,10009765625;308,221772221815;-3,9764404296875E-09;-0,09967041015625;8;602;6,65138661861419E-08;-6,14995136857033E-08;100 nA
-0,150146484375;308,722260220551;-4,1168212890625E-09;-0,14959716796875;8;603;6,65138661861419E-08;-6,14995136857033E-08;100 nA
-0,2001953125;309,222748219288;-4,1656494140625E-09;-0,199462890625;8;604;6,65138661861419E-08;-6,14995136857033E-08;100 nA
-0,250244140625;309,723236218024;-4,248046875E-09;-0,24932861328125;8;605;6,65138661861419E-08;-6,14995136857033E-08;100 nA
-0,30029296875;310,22372421676;-4,4189453125E-09;-0,299224853515625;8;606;6,65138661861419E-08;-6,14995136857033E-08;100 nA
-0,350341796875;310,724212215497;-4,620361328125E-09;-0,3492431640625;8;607;6,65138661861419E-08;-6,14995136857033E-08;100 nA
-0,400390625;311,224700214233;-4,6112060546875E-09;-0,399078369140625;8;608;6,65138661861419E-08;-6,14995136857033E-08;100 nA
-0,450439453125;311,72518821297;-4,327392578125E-09;-0,449005126953125;8;609;6,65138661861419E-08;-6,14995136857033E-08;100 nA
-0,50048828125;312,225676211706;-3,80859375E-09;-0,498870849609375;8;610;6,65138661861419E-08;-6,14995136857033E-08;100 nA
-0,550537109375;312,726164210442;-3,5491943359375E-09;-0,54876708984375;8;611;6,65138661861419E-08;-6,14995136857033E-08;100 nA
-0,6005859375;313,226652209179;-3,6102294921875E-09;-0,59869384765625;8;612;6,65138661861419E-08;-6,14995136857033E-08;100 nA
-0,650634765625;313,727140207915;-3,3538818359375E-09;-0,648712158203125;8;613;6,65138661861419E-08;-6,14995136857033E-08;100 nA
-0,70068359375;314,227628206652;-2,862548828125E-09;-0,698638916015625;8;614;6,65138661861419E-08;-6,14995136857033E-08;100 nA
-0,750732421875;314,728116205388;-2,4871826171875E-09;-0,748626708984375;8;615;6,65138661861419E-08;-6,14995136857033E-08;100 nA
-0,80078125;315,228604204124;-2,239990234375E-09;-0,79833984375;8;616;6,65138661861419E-08;-6,14995136857033E-08;100 nA
-0,850830078125;315,729092202861;-2,2308349609375E-09;-0,84808349609375;8;617;6,65138661861419E-08;-6,14995136857033E-08;100 nA
-0,90087890625;316,229580201597;-2,28271484375E-09;-0,89874267578125;8;618;6,65138661861419E-08;-6,14995136857033E-08;100 nA
-0,950927734375;316,730068200333;-2,4658203125E-09;-0,9490966796875;8;619;6,65138661861419E-08;-6,14995136857033E-08;100 nA
-1,0009765625;317,23055619907;-2,7099609375E-09;-0,99945068359375;8;620;6,65138661861419E-08;-6,14995136857033E-08;100 nA
-0,950927734375;317,731044197806;-1,2786865234375E-09;-0,948486328125;8;621;6,65138661861419E-08;-6,14995136857033E-08;100 nA
-0,90087890625;318,231532196543;-5,9814453125E-10;-0,89874267578125;8;622;6,65138661861419E-08;-6,14995136857033E-08;100 nA
-0,850830078125;318,732020195279;-2,3193359375E-10;-0,8489990234375;8;623;6,65138661861419E-08;-6,14995136857033E-08;100 nA
-0,80078125;319,232508194015;-6,103515625E-12;-0,7989501953125;8;624;6,65138661861419E-08;-6,14995136857033E-08;100 nA
-0,750732421875;319,732996192752;1,220703125E-10;-0,7486572265625;8;625;6,65138661861419E-08;-6,14995136857033E-08;100 nA
-0,70068359375;320,233484191488;2,86865234375E-10;-0,6986083984375;8;626;6,65138661861419E-08;-6,14995136857033E-08;100 nA
-0,650634765625;320,733972190225;5,7373046875E-10;-0,648681640625;8;627;6,65138661861419E-08;-6,14995136857033E-08;100 nA
-0,6005859375;321,234460188961;1,0986328125E-09;-0,59869384765625;8;628;6,65138661861419E-08;-6,14995136857033E-08;100 nA
-0,550537109375;321,734948187697;1,348876953125E-09;-0,548736572265625;8;629;6,65138661861419E-08;-6,14995136857033E-08;100 nA
-0,50048828125;322,235436186434;1,531982421875E-09;-0,4989013671875;8;630;6,65138661861419E-08;-6,14995136857033E-08;100 nA
-0,450439453125;322,73592418517;1,8096923828125E-09;-0,449005126953125;8;631;6,65138661861419E-08;-6,14995136857033E-08;100 nA
-0,400390625;323,236412183907;2,1331787109375E-09;-0,399139404296875;8;632;6,65138661861419E-08;-6,14995136857033E-08;100 nA
-0,350341796875;323,736900182643;2,703857421875E-09;-0,349273681640625;8;633;6,65138661861419E-08;-6,14995136857033E-08;100 nA
-0,30029296875;324,237388181379;3,2684326171875E-09;-0,29931640625;8;634;6,65138661861419E-08;-6,14995136857033E-08;100 nA
-0,250244140625;324,737876180116;3,564453125E-09;-0,249359130859375;8;635;6,65138661861419E-08;-6,14995136857033E-08;100 nA
-0,2001953125;325,238364178852;3,759765625E-09;-0,199432373046875;8;636;6,65138661861419E-08;-6,14995136857033E-08;100 nA
-0,150146484375;325,738852177588;3,875732421875E-09;-0,14959716796875;8;637;6,65138661861419E-08;-6,14995136857033E-08;100 nA
-0,10009765625;326,239340176325;3,7994384765625E-09;-0,099700927734375;8;638;6,65138661861419E-08;-6,14995136857033E-08;100 nA
-0,050048828125;326,739828175061;3,704833984375E-09;-0,049835205078125;8;639;6,65138661861419E-08;-6,14995136857033E-08;100 nA
0;327,240316173798;3,692626953125E-09;0,000119018554687503;8;640;6,65138661861419E-08;-6,14995136857033E-08;100 nA
0,050048828125;327,740804172534;3,74755859375E-09;0,050048828125;9;641;6,6472627222538E-08;-6,13757967948914E-08;100 nA
0,10009765625;328,24129217127;3,90625E-09;0,10003662109375;9;642;6,6472627222538E-08;-6,13757967948914E-08;100 nA
0,150146484375;328,741780170007;4,730224609375E-09;0,150054931640625;9;643;6,6472627222538E-08;-6,13757967948914E-08;100 nA
0,2001953125;329,242268168743;4,7088623046875E-09;0,2000732421875;9;644;6,6472627222538E-08;-6,13757967948914E-08;100 nA
0,250244140625;329,74275616748;4,364013671875E-09;0,250091552734375;9;645;6,6472627222538E-08;-6,13757967948914E-08;100 nA
0,30029296875;330,243244166216;4,21142578125E-09;0,30010986328125;9;646;6,6472627222538E-08;-6,13757967948914E-08;100 nA
0,350341796875;330,743732164952;4,16259765625E-09;0,35009765625;9;647;6,6472627222538E-08;-6,13757967948914E-08;100 nA
0,400390625;331,244220163689;4,01611328125E-09;0,400146484375;9;648;6,6472627222538E-08;-6,13757967948914E-08;100 nA
0,450439453125;331,744708162425;3,9337158203125E-09;0,45013427734375;9;649;6,6472627222538E-08;-6,13757967948914E-08;100 nA
0,50048828125;332,245196161162;3,924560546875E-09;0,5001220703125;9;650;6,6472627222538E-08;-6,13757967948914E-08;100 nA
0,550537109375;332,745684159898;4,0130615234375E-09;0,550140380859375;9;651;6,6472627222538E-08;-6,13757967948914E-08;100 nA
0,6005859375;333,246172158634;4,1290283203125E-09;0,600128173828125;9;652;6,6472627222538E-08;-6,13757967948914E-08;100 nA
0,650634765625;333,746660157371;4,327392578125E-09;0,65008544921875;9;653;6,6472627222538E-08;-6,13757967948914E-08;100 nA
0,70068359375;334,247148156107;4,510498046875E-09;0,699951171875;9;654;6,6472627222538E-08;-6,13757967948914E-08;100 nA
0,750732421875;334,747636154843;4,8095703125E-09;0,7498779296875;9;655;6,6472627222538E-08;-6,13757967948914E-08;100 nA
0,80078125;335,24812415358;5,181884765625E-09;0,8001708984375;9;656;6,6472627222538E-08;-6,13757967948914E-08;100 nA
0,850830078125;335,748612152316;5,572509765625E-09;0,849609375;9;657;6,6472627222538E-08;-6,13757967948914E-08;100 nA
0,90087890625;336,249100151053;5,9814453125E-09;0,89996337890625;9;658;6,6472627222538E-08;-6,13757967948914E-08;100 nA
0,950927734375;336,749588149789;6,4483642578125E-09;0,95001220703125;9;659;6,6472627222538E-08;-6,13757967948914E-08;100 nA
1,0009765625;337,250076148525;7,025146484375E-09;1,00006103515625;9;660;6,6472627222538E-08;-6,13757967948914E-08;100 nA
0,950927734375;337,750564147262;2,18505859375E-09;0,94970703125;9;661;6,6472627222538E-08;-6,13757967948914E-08;100 nA
0,90087890625;338,251052145998;1,800537109375E-10;0,899658203125;9;662;6,6472627222538E-08;-6,13757967948914E-08;100 nA
0,850830078125;338,751540144735;-8,514404296875E-10;0,84930419921875;9;663;6,6472627222538E-08;-6,13757967948914E-08;100 nA
0,80078125;339,252028143471;-1,4373779296875E-09;0,80047607421875;9;664;6,6472627222538E-08;-6,13757967948914E-08;100 nA
0,750732421875;339,752516142207;-1,7974853515625E-09;0,7498779296875;9;665;6,6472627222538E-08;-6,13757967948914E-08;100 nA
0,70068359375;340,253004140944;-2,0721435546875E-09;0,700042724609375;9;666;6,6472627222538E-08;-6,13757967948914E-08;100 nA
0,650634765625;340,75349213968;-2,2430419921875E-09;0,650146484375;9;667;6,6472627222538E-08;-6,13757967948914E-08;100 nA
0,6005859375;341,253980138417;-2,313232421875E-09;0,60015869140625;9;668;6,6472627222538E-08;-6,13757967948914E-08;100 nA
0,550537109375;341,754468137153;-2,4200439453125E-09;0,550140380859375;9;669;6,6472627222538E-08;-6,13757967948914E-08;100 nA
0,50048828125;342,254956135889;-2,410888671875E-09;0,500152587890625;9;670;6,6472627222538E-08;-6,13757967948914E-08;100 nA
0,450439453125;342,755444134626;-2,40478515625E-09;0,450103759765625;9;671;6,6472627222538E-08;-6,13757967948914E-08;100 nA
0,400390625;343,255932133362;-2,435302734375E-09;0,400177001953125;9;672;6,6472627222538E-08;-6,13757967948914E-08;100 nA
0,350341796875;343,756420132098;-2,593994140625E-09;0,350128173828125;9;673;6,6472627222538E-08;-6,13757967948914E-08;100 nA
0,30029296875;344,256908130835;-2,8533935546875E-09;0,30010986328125;9;674;6,6472627222538E-08;-6,13757967948914E-08;100 nA
0,250244140625;344,757396129571;-3,1829833984375E-09;0,2501220703125;9;675;6,6472627222538E-08;-6,13757967948914E-08;100 nA
0,2001953125;345,257884128308;-3,9215087890625E-09;0,20013427734375;9;676;6,6472627222538E-08;-6,13757967948914E-08;100 nA
0,150146484375;345,758372127044;-5,7373046875E-09;0,150115966796875;9;677;6,6472627222538E-08;-6,13757967948914E-08;100 nA
0,10009765625;346,25886012578;-4,742431640625E-09;0,10015869140625;9;678;6,6472627222538E-08;-6,13757967948914E-08;100 nA
0,050048828125;346,759348124517;-4,034423828125E-09;0,050079345703125;9;679;6,6472627222538E-08;-6,13757967948914E-08;100 nA
0;347,259836123253;-3,973388671875E-09;0,0001373291015625;9;680;6,6472627222538E-08;-6,13757967948914E-08;100 nA
-0,050048828125;347,76032412199;-3,985595703125E-09;-0,049774169921875;9;681;6,6472627222538E-08;-6,13757967948914E-08;100 nA
-0,10009765625;348,260812120726;-4,0191650390625E-09;-0,099639892578125;9;682;6,6472627222538E-08;-6,13757967948914E-08;100 nA
-0,150146484375;348,761300119462;-4,052734375E-09;-0,149566650390625;9;683;6,6472627222538E-08;-6,13757967948914E-08;100 nA
-0,2001953125;349,261788118199;-4,107666015625E-09;-0,199493408203125;9;684;6,6472627222538E-08;-6,13757967948914E-08;100 nA
-0,250244140625;349,762276116935;-4,1778564453125E-09;-0,24932861328125;9;685;6,6472627222538E-08;-6,13757967948914E-08;100 nA
-0,30029296875;350,262764115672;-4,3365478515625E-09;-0,29925537109375;9;686;6,6472627222538E-08;-6,13757967948914E-08;100 nA
-0,350341796875;350,763252114408;-4,55322265625E-09;-0,349212646484375;9;687;6,6472627222538E-08;-6,13757967948914E-08;100 nA
-0,400390625;351,263740113144;-4,5562744140625E-09;-0,399078369140625;9;688;6,6472627222538E-08;-6,13757967948914E-08;100 nA
-0,450439453125;351,764228111881;-4,1717529296875E-09;-0,448974609375;9;689;6,6472627222538E-08;-6,13757967948914E-08;100 nA
-0,50048828125;352,264716110617;-3,67431640625E-09;-0,49884033203125;9;690;6,6472627222538E-08;-6,13757967948914E-08;100 nA
-0,550537109375;352,765204109353;-3,40576171875E-09;-0,54876708984375;9;691;6,6472627222538E-08;-6,13757967948914E-08;100 nA
-0,6005859375;353,26569210809;-3,4820556640625E-09;-0,598663330078125;9;692;6,6472627222538E-08;-6,13757967948914E-08;100 nA
-0,650634765625;353,766180106826;-3,2928466796875E-09;-0,648590087890625;9;693;6,6472627222538E-08;-6,13757967948914E-08;100 nA
-0,70068359375;354,266668105563;-2,7923583984375E-09;-0,6986083984375;9;694;6,6472627222538E-08;-6,13757967948914E-08;100 nA
-0,750732421875;354,767156104299;-2,3681640625E-09;-0,7486572265625;9;695;6,6472627222538E-08;-6,13757967948914E-08;100 nA
-0,80078125;355,267644103035;-2,1942138671875E-09;-0,799560546875;9;696;6,6472627222538E-08;-6,13757967948914E-08;100 nA
-0,850830078125;355,768132101772;-2,1728515625E-09;-0,8489990234375;9;697;6,6472627222538E-08;-6,13757967948914E-08;100 nA
-0,90087890625;356,268620100508;-2,2857666015625E-09;-0,8990478515625;9;698;6,6472627222538E-08;-6,13757967948914E-08;100 nA
-0,950927734375;356,769108099245;-2,471923828125E-09;-0,94879150390625;9;699;6,6472627222538E-08;-6,13757967948914E-08;100 nA
-1,0009765625;357,269596097981;-2,7679443359375E-09;-0,99884033203125;9;700;6,6472627222538E-08;-6,13757967948914E-08;100 nA
-0,950927734375;357,770084096717;-1,3092041015625E-09;-0,94879150390625;9;701;6,6472627222538E-08;-6,13757967948914E-08;100 nA
-0,90087890625;358,270572095454;-6,77490234375E-10;-0,8990478515625;9;702;6,6472627222538E-08;-6,13757967948914E-08;100 nA
-0,850830078125;358,77106009419;-2,8076171875E-10;-0,84869384765625;9;703;6,6472627222538E-08;-6,13757967948914E-08;100 nA
-0,80078125;359,271548092927;-7,01904296875E-11;-0,79864501953125;9;704;6,6472627222538E-08;-6,13757967948914E-08;100 nA
-0,750732421875;359,772036091663;4,8828125E-11;-0,7486572265625;9;705;6,6472627222538E-08;-6,13757967948914E-08;100 nA
-0,70068359375;360,272524090399;1,8310546875E-10;-0,698699951171875;9;706;6,6472627222538E-08;-6,13757967948914E-08;100 nA
-0,650634765625;360,773012089136;4,913330078125E-10;-0,648651123046875;9;707;6,6472627222538E-08;-6,13757967948914E-08;100 nA
-0,6005859375;361,273500087872;9,613037109375E-10;-0,598724365234375;9;708;6,6472627222538E-08;-6,13757967948914E-08;100 nA
-0,550537109375;361,773988086608;1,3031005859375E-09;-0,548858642578125;9;709;6,6472627222538E-08;-6,13757967948914E-08;100 nA
-0,50048828125;362,274476085345;1,46484375E-09;-0,4989013671875;9;710;6,6472627222538E-08;-6,13757967948914E-08;100 nA
-0,450439453125;362,774964084081;1,715087890625E-09;-0,448974609375;9;711;6,6472627222538E-08;-6,13757967948914E-08;100 nA
-0,400390625;363,275452082818;2,08740234375E-09;-0,399078369140625;9;712;6,6472627222538E-08;-6,13757967948914E-08;100 nA
-0,350341796875;363,775940081554;2,63671875E-09;-0,34930419921875;9;713;6,6472627222538E-08;-6,13757967948914E-08;100 nA
-0,30029296875;364,27642808029;3,2440185546875E-09;-0,29925537109375;9;714;6,6472627222538E-08;-6,13757967948914E-08;100 nA
-0,250244140625;364,776916079027;3,52783203125E-09;-0,249359130859375;9;715;6,6472627222538E-08;-6,13757967948914E-08;100 nA
-0,2001953125;365,277404077763;3,82080078125E-09;-0,199462890625;9;716;6,6472627222538E-08;-6,13757967948914E-08;100 nA
-0,150146484375;365,7778920765;3,924560546875E-09;-0,149658203125;9;717;6,6472627222538E-08;-6,13757967948914E-08;100 nA
-0,10009765625;366,278380075236;3,8360595703125E-09;-0,09967041015625;9;718;6,6472627222538E-08;-6,13757967948914E-08;100 nA
-0,050048828125;366,778868073972;3,74755859375E-09;-0,0498046875;9;719;6,6472627222538E-08;-6,13757967948914E-08;100 nA
0;367,279356072709;3,753662109375E-09;0,000140380859374997;9;720;6,6472627222538E-08;-6,13757967948914E-08;100 nA
0,050048828125;367,779844071445;3,84521484375E-09;0,05010986328125;10;721;6,68300315737724E-08;-6,14292547106743E-08;100 nA
0,10009765625;368,280332070182;3,973388671875E-09;0,100128173828125;10;722;6,68300315737724E-08;-6,14292547106743E-08;100 nA
0,150146484375;368,780820068918;4,8248291015625E-09;0,15008544921875;10;723;6,68300315737724E-08;-6,14292547106743E-08;100 nA
0,2001953125;369,281308067654;4,8004150390625E-09;0,200103759765625;10;724;6,68300315737724E-08;-6,14292547106743E-08;100 nA
0,250244140625;369,781796066391;4,486083984375E-09;0,250091552734375;10;725;6,68300315737724E-08;-6,14292547106743E-08;100 nA
0,30029296875;370,282284065127;4,302978515625E-09;0,300079345703125;10;726;6,68300315737724E-08;-6,14292547106743E-08;100 nA
0,350341796875;370,782772063863;4,241943359375E-09;0,350128173828125;10;727;6,68300315737724E-08;-6,14292547106743E-08;100 nA
0,400390625;371,2832600626;4,0802001953125E-09;0,400146484375;10;728;6,68300315737724E-08;-6,14292547106743E-08;100 nA
0,450439453125;371,783748061336;3,985595703125E-09;0,45013427734375;10;729;6,68300315737724E-08;-6,14292547106743E-08;100 nA
0,50048828125;372,284236060073;3,973388671875E-09;0,500152587890625;10;730;6,68300315737724E-08;-6,14292547106743E-08;100 nA
0,550537109375;372,784724058809;4,022216796875E-09;0,5501708984375;10;731;6,68300315737724E-08;-6,14292547106743E-08;100 nA
0,6005859375;373,285212057545;4,150390625E-09;0,60015869140625;10;732;6,68300315737724E-08;-6,14292547106743E-08;100 nA
0,650634765625;373,785700056282;4,315185546875E-09;0,6500244140625;10;733;6,68300315737724E-08;-6,14292547106743E-08;100 nA
0,70068359375;374,286188055018;4,5166015625E-09;0,699981689453125;10;734;6,68300315737724E-08;-6,14292547106743E-08;100 nA
0,750732421875;374,786676053755;4,7760009765625E-09;0,7498779296875;10;735;6,68300315737724E-08;-6,14292547106743E-08;100 nA
0,80078125;375,287164052491;5,108642578125E-09;0,8001708984375;10;736;6,68300315737724E-08;-6,14292547106743E-08;100 nA
0,850830078125;375,787652051227;5,4779052734375E-09;0,8502197265625;10;737;6,68300315737724E-08;-6,14292547106743E-08;100 nA
0,90087890625;376,288140049964;5,8807373046875E-09;0,89996337890625;10;738;6,68300315737724E-08;-6,14292547106743E-08;100 nA
0,950927734375;376,7886280487;6,3262939453125E-09;0,94970703125;10;739;6,68300315737724E-08;-6,14292547106743E-08;100 nA
1,0009765625;377,289116047437;6,9061279296875E-09;1,00006103515625;10;740;6,68300315737724E-08;-6,14292547106743E-08;100 nA
0,950927734375;377,789604046173;2,0782470703125E-09;0,94970703125;10;741;6,68300315737724E-08;-6,14292547106743E-08;100 nA
0,90087890625;378,290092044909;9,1552734375E-11;0,899658203125;10;742;6,68300315737724E-08;-6,14292547106743E-08;100 nA
0,850830078125;378,790580043646;-9,70458984375E-10;0,84991455078125;10;743;6,68300315737724E-08;-6,14292547106743E-08;100 nA
0,80078125;379,291068042382;-1,5289306640625E-09;0,8001708984375;10;744;6,68300315737724E-08;-6,14292547106743E-08;100 nA
0,750732421875;379,791556041119;-1,873779296875E-09;0,7498779296875;10;745;6,68300315737724E-08;-6,14292547106743E-08;100 nA
0,70068359375;380,292044039855;-2,142333984375E-09;0,699951171875;10;746;6,68300315737724E-08;-6,14292547106743E-08;100 nA
0,650634765625;380,792532038591;-2,264404296875E-09;0,650115966796875;10;747;6,68300315737724E-08;-6,14292547106743E-08;100 nA
0,6005859375;381,293020037328;-2,3712158203125E-09;0,600128173828125;10;748;6,68300315737724E-08;-6,14292547106743E-08;100 nA
0,550537109375;381,793508036064;-2,392578125E-09;0,550140380859375;10;749;6,68300315737724E-08;-6,14292547106743E-08;100 nA
0,50048828125;382,2939960348;-2,410888671875E-09;0,500152587890625;10;750;6,68300315737724E-08;-6,14292547106743E-08;100 nA
0,450439453125;382,794484033537;-2,3681640625E-09;0,450164794921875;10;751;6,68300315737724E-08;-6,14292547106743E-08;100 nA
0,400390625;383,294972032273;-2,392578125E-09;0,400177001953125;10;752;6,68300315737724E-08;-6,14292547106743E-08;100 nA
0,350341796875;383,79546003101;-2,5390625E-09;0,35015869140625;10;753;6,68300315737724E-08;-6,14292547106743E-08;100 nA
0,30029296875;384,295948029746;-2,7801513671875E-09;0,300140380859375;10;754;6,68300315737724E-08;-6,14292547106743E-08;100 nA
0,250244140625;384,796436028482;-3,1158447265625E-09;0,25018310546875;10;755;6,68300315737724E-08;-6,14292547106743E-08;100 nA
0,2001953125;385,296924027219;-3,826904296875E-09;0,200164794921875;10;756;6,68300315737724E-08;-6,14292547106743E-08;100 nA
0,150146484375;385,797412025955;-5,6488037109375E-09;0,150115966796875;10;757;6,68300315737724E-08;-6,14292547106743E-08;100 nA
0,10009765625;386,297900024692;-4,65087890625E-09;0,100128173828125;10;758;6,68300315737724E-08;-6,14292547106743E-08;100 nA
0,050048828125;386,798388023428;-3,948974609375E-09;0,050140380859375;10;759;6,68300315737724E-08;-6,14292547106743E-08;100 nA
0;387,298876022164;-3,9215087890625E-09;0,000170898437499997;10;760;6,68300315737724E-08;-6,14292547106743E-08;100 nA
-0,050048828125;387,799364020901;-3,955078125E-09;-0,0497314453125;10;761;6,68300315737724E-08;-6,14292547106743E-08;100 nA
-0,10009765625;388,299852019637;-3,9398193359375E-09;-0,09967041015625;10;762;6,68300315737724E-08;-6,14292547106743E-08;100 nA
-0,150146484375;388,800340018374;-4,0374755859375E-09;-0,149566650390625;10;763;6,68300315737724E-08;-6,14292547106743E-08;100 nA
-0,2001953125;389,30082801711;-4,0191650390625E-09;-0,199462890625;10;764;6,68300315737724E-08;-6,14292547106743E-08;100 nA
-0,250244140625;389,801316015846;-4,1748046875E-09;-0,249298095703125;10;765;6,68300315737724E-08;-6,14292547106743E-08;100 nA
-0,30029296875;390,301804014583;-4,3304443359375E-09;-0,299285888671875;10;766;6,68300315737724E-08;-6,14292547106743E-08;100 nA
-0,350341796875;390,802292013319;-4,547119140625E-09;-0,349212646484375;10;767;6,68300315737724E-08;-6,14292547106743E-08;100 nA
-0,400390625;391,302780012055;-4,571533203125E-09;-0,399139404296875;10;768;6,68300315737724E-08;-6,14292547106743E-08;100 nA
-0,450439453125;391,803268010792;-4,21142578125E-09;-0,44891357421875;10;769;6,68300315737724E-08;-6,14292547106743E-08;100 nA
-0,50048828125;392,303756009528;-3,729248046875E-09;-0,498809814453125;10;770;6,68300315737724E-08;-6,14292547106743E-08;100 nA
-0,550537109375;392,804244008265;-3,4881591796875E-09;-0,548797607421875;10;771;6,68300315737724E-08;-6,14292547106743E-08;100 nA
-0,6005859375;393,304732007001;-3,558349609375E-09;-0,598663330078125;10;772;6,68300315737724E-08;-6,14292547106743E-08;100 nA
-0,650634765625;393,805220005737;-3,387451171875E-09;-0,648651123046875;10;773;6,68300315737724E-08;-6,14292547106743E-08;100 nA
-0,70068359375;394,305708004474;-2,838134765625E-09;-0,6986083984375;10;774;6,68300315737724E-08;-6,14292547106743E-08;100 nA
-0,750732421875;394,80619600321;-2,4383544921875E-09;-0,748626708984375;10;775;6,68300315737724E-08;-6,14292547106743E-08;100 nA
-0,80078125;395,306684001947;-2,2705078125E-09;-0,79833984375;10;776;6,68300315737724E-08;-6,14292547106743E-08;100 nA
-0,850830078125;395,807172000683;-2,2216796875E-09;-0,84869384765625;10;777;6,68300315737724E-08;-6,14292547106743E-08;100 nA
-0,90087890625;396,307659999419;-2,2979736328125E-09;-0,89874267578125;10;778;6,68300315737724E-08;-6,14292547106743E-08;100 nA
-0,950927734375;396,808147998156;-2,4810791015625E-09;-0,948486328125;10;779;6,68300315737724E-08;-6,14292547106743E-08;100 nA
-1,0009765625;397,308635996892;-2,8045654296875E-09;-0,99884033203125;10;780;6,68300315737724E-08;-6,14292547106743E-08;100 nA
-0,950927734375;397,809123995629;-1,30615234375E-09;-0,94879150390625;10;781;6,68300315737724E-08;-6,14292547106743E-08;100 nA
-0,90087890625;398,309611994365;-6,561279296875E-10;-0,8984375;10;782;6,68300315737724E-08;-6,14292547106743E-08;100 nA
-0,850830078125;398,810099993101;-2,716064453125E-10;-0,84869384765625;10;783;6,68300315737724E-08;-6,14292547106743E-08;100 nA
-0,80078125;399,310587991838;-5,4931640625E-11;-0,7989501953125;10;784;6,68300315737724E-08;-6,14292547106743E-08;100 nA
-0,750732421875;399,811075990574;1,190185546875E-10;-0,748626708984375;10;785;6,68300315737724E-08;-6,14292547106743E-08;100 nA
-0,70068359375;400,31156398931;2,5634765625E-10;-0,698638916015625;10;786;6,68300315737724E-08;-6,14292547106743E-08;100 nA
-0,650634765625;400,812051988047;5,401611328125E-10;-0,648651123046875;10;787;6,68300315737724E-08;-6,14292547106743E-08;100 nA
-0,6005859375;401,312539986783;1,03759765625E-09;-0,598663330078125;10;788;6,68300315737724E-08;-6,14292547106743E-08;100 nA
-0,550537109375;401,81302798552;1,373291015625E-09;-0,548797607421875;10;789;6,68300315737724E-08;-6,14292547106743E-08;100 nA
-0,50048828125;402,313515984256;1,5289306640625E-09;-0,498870849609375;10;790;6,68300315737724E-08;-6,14292547106743E-08;100 nA
-0,450439453125;402,814003982992;1,7578125E-09;-0,449005126953125;10;791;6,68300315737724E-08;-6,14292547106743E-08;100 nA
-0,400390625;403,314491981729;2,1331787109375E-09;-0,39910888671875;10;792;6,68300315737724E-08;-6,14292547106743E-08;100 nA
-0,350341796875;403,814979980465;2,7008056640625E-09;-0,3492431640625;10;793;6,68300315737724E-08;-6,14292547106743E-08;100 nA
-0,30029296875;404,315467979202;3,2745361328125E-09;-0,29925537109375;10;794;6,68300315737724E-08;-6,14292547106743E-08;100 nA
-0,250244140625;404,815955977938;3,5736083984375E-09;-0,249359130859375;10;795;6,68300315737724E-08;-6,14292547106743E-08;100 nA
-0,2001953125;405,316443976674;3,7750244140625E-09;-0,19952392578125;10;796;6,68300315737724E-08;-6,14292547106743E-08;100 nA
-0,150146484375;405,816931975411;3,961181640625E-09;-0,149627685546875;10;797;6,68300315737724E-08;-6,14292547106743E-08;100 nA
-0,10009765625;406,317419974147;3,8421630859375E-09;-0,0997314453125;10;798;6,68300315737724E-08;-6,14292547106743E-08;100 nA
-0,050048828125;406,817907972884;3,759765625E-09;-0,0498046875;10;799;6,68300315737724E-08;-6,14292547106743E-08;100 nA
0;407,31839597162;3,7322998046875E-09;0,000119018554687503;10;800;6,68300315737724E-08;-6,14292547106743E-08;100 nA
