Potential applied (V);Time (s);WE(1).Current (A);WE(1).Potential (V);Scan;Index;Q+;Q-;Current range
0,050048828125;8,63241097820526;1,1688232421875E-09;0,050079345703125;1;1;2,82975658774376E-08;-2,98600643873215E-08;100 nA
0,10009765625;9,13289897694165;2,3529052734375E-09;0,10009765625;1;2;2,82975658774376E-08;-2,98600643873215E-08;100 nA
0,150146484375;9,63338697567804;2,618408203125E-09;0,150115966796875;1;3;2,82975658774376E-08;-2,98600643873215E-08;100 nA
0,2001953125;10,1338749744144;1,849365234375E-09;0,2000732421875;1;4;2,82975658774376E-08;-2,98600643873215E-08;100 nA
0,250244140625;10,6343629731508;1,629638671875E-09;0,250091552734375;1;5;2,82975658774376E-08;-2,98600643873215E-08;100 nA
0,30029296875;11,1348509718872;1,5350341796875E-09;0,300079345703125;1;6;2,82975658774376E-08;-2,98600643873215E-08;100 nA
0,350341796875;11,6353389706236;1,46484375E-09;0,350067138671875;1;7;2,82975658774376E-08;-2,98600643873215E-08;100 nA
0,400390625;12,13582696936;1,397705078125E-09;0,400115966796875;1;8;2,82975658774376E-08;-2,98600643873215E-08;100 nA
0,450439453125;12,6363149680964;1,3671875E-09;0,45013427734375;1;9;2,82975658774376E-08;-2,98600643873215E-08;100 nA
0,50048828125;13,1368029668328;1,3824462890625E-09;0,5001220703125;1;10;2,82975658774376E-08;-2,98600643873215E-08;100 nA
0,550537109375;13,6372909655692;1,348876953125E-09;0,55010986328125;1;11;2,82975658774376E-08;-2,98600643873215E-08;100 nA
0,6005859375;14,1377789643055;1,2420654296875E-09;0,60015869140625;1;12;2,82975658774376E-08;-2,98600643873215E-08;100 nA
0,650634765625;14,6382669630419;1,1871337890625E-09;0,650054931640625;1;13;2,82975658774376E-08;-2,98600643873215E-08;100 nA
0,70068359375;15,1387549617783;1,123046875E-09;0,699951171875;1;14;2,82975658774376E-08;-2,98600643873215E-08;100 nA
0,750732421875;15,6392429605147;1,0589599609375E-09;0,749847412109375;1;15;2,82975658774376E-08;-2,98600643873215E-08;100 nA
0,80078125;16,1397309592511;9,70458984375E-10;0,79986572265625;1;16;2,82975658774376E-08;-2,98600643873215E-08;100 nA
0,850830078125;16,6402189579875;9,552001953125E-10;0,84930419921875;1;17;2,82975658774376E-08;-2,98600643873215E-08;100 nA
0,90087890625;17,1407069567239;1,03759765625E-09;0,89996337890625;1;18;2,82975658774376E-08;-2,98600643873215E-08;100 nA
0,950927734375;17,6411949554603;1,2176513671875E-09;0,94970703125;1;19;2,82975658774376E-08;-2,98600643873215E-08;100 nA
1,0009765625;18,1416829541967;1,5533447265625E-09;0,99945068359375;1;20;2,82975658774376E-08;-2,98600643873215E-08;100 nA
0,950927734375;18,642170952933;6,77490234375E-10;0,94940185546875;1;21;2,82975658774376E-08;-2,98600643873215E-08;100 nA
0,90087890625;19,1426589516694;3,11279296875E-10;0,89996337890625;1;22;2,82975658774376E-08;-2,98600643873215E-08;100 nA
0,850830078125;19,6431469504058;1,373291015625E-10;0,84991455078125;1;23;2,82975658774376E-08;-2,98600643873215E-08;100 nA
0,80078125;20,1436349491422;3,96728515625E-11;0,799560546875;1;24;2,82975658774376E-08;-2,98600643873215E-08;100 nA
0,750732421875;20,6441229478786;-4,57763671875E-11;0,749847412109375;1;25;2,82975658774376E-08;-2,98600643873215E-08;100 nA
0,70068359375;21,144610946615;-5,18798828125E-11;0,699920654296875;1;26;2,82975658774376E-08;-2,98600643873215E-08;100 nA
0,650634765625;21,6450989453514;-1,15966796875E-10;0,650054931640625;1;27;2,82975658774376E-08;-2,98600643873215E-08;100 nA
0,6005859375;22,1455869440878;-2,197265625E-10;0,60009765625;1;28;2,82975658774376E-08;-2,98600643873215E-08;100 nA
0,550537109375;22,6460749428242;-2,532958984375E-10;0,550048828125;1;29;2,82975658774376E-08;-2,98600643873215E-08;100 nA
0,50048828125;23,1465629415605;-2,838134765625E-10;0,500091552734375;1;30;2,82975658774376E-08;-2,98600643873215E-08;100 nA
0,450439453125;23,6470509402969;-2,8076171875E-10;0,450103759765625;1;31;2,82975658774376E-08;-2,98600643873215E-08;100 nA
0,400390625;24,1475389390333;-3,326416015625E-10;0,400054931640625;1;32;2,82975658774376E-08;-2,98600643873215E-08;100 nA
0,350341796875;24,6480269377697;-3,90625E-10;0,350128173828125;1;33;2,82975658774376E-08;-2,98600643873215E-08;100 nA
0,30029296875;25,1485149365061;-5,31005859375E-10;0,300018310546875;1;34;2,82975658774376E-08;-2,98600643873215E-08;100 nA
0,250244140625;25,6490029352425;-6,65283203125E-10;0,250091552734375;1;35;2,82975658774376E-08;-2,98600643873215E-08;100 nA
0,2001953125;26,1494909339789;-8,60595703125E-10;0,20013427734375;1;36;2,82975658774376E-08;-2,98600643873215E-08;100 nA
0,150146484375;26,6499789327153;-1,373291015625E-09;0,150054931640625;1;37;2,82975658774376E-08;-2,98600643873215E-08;100 nA
0,10009765625;27,1504669314517;-3,33251953125E-09;0,10009765625;1;38;2,82975658774376E-08;-2,98600643873215E-08;100 nA
0,050048828125;27,6509549301881;-5,169677734375E-09;0,050079345703125;1;39;2,82975658774376E-08;-2,98600643873215E-08;100 nA
0;28,1514429289244;-2,9510498046875E-09;0,0001373291015625;1;40;2,82975658774376E-08;-2,98600643873215E-08;100 nA
-0,050048828125;28,6519309276608;-2,3956298828125E-09;-0,0497161865234375;1;41;2,82975658774376E-08;-2,98600643873215E-08;100 nA
-0,10009765625;29,1524189263972;-2,276611328125E-09;-0,099639892578125;1;42;2,82975658774376E-08;-2,98600643873215E-08;100 nA
-0,150146484375;29,6529069251336;-2,2216796875E-09;-0,149566650390625;1;43;2,82975658774376E-08;-2,98600643873215E-08;100 nA
-0,2001953125;30,15339492387;-2,2125244140625E-09;-0,19940185546875;1;44;2,82975658774376E-08;-2,98600643873215E-08;100 nA
-0,250244140625;30,6538829226064;-2,288818359375E-09;-0,249267578125;1;45;2,82975658774376E-08;-2,98600643873215E-08;100 nA
-0,30029296875;31,1543709213428;-2,4627685546875E-09;-0,299224853515625;1;46;2,82975658774376E-08;-2,98600643873215E-08;100 nA
-0,350341796875;31,6548589200792;-2,57568359375E-09;-0,349151611328125;1;47;2,82975658774376E-08;-2,98600643873215E-08;100 nA
-0,400390625;32,1553469188156;-2,52685546875E-09;-0,39910888671875;1;48;2,82975658774376E-08;-2,98600643873215E-08;100 nA
-0,450439453125;32,6558349175519;-2,3651123046875E-09;-0,448974609375;1;49;2,82975658774376E-08;-2,98600643873215E-08;100 nA
-0,50048828125;33,1563229162883;-2,117919921875E-09;-0,498870849609375;1;50;2,82975658774376E-08;-2,98600643873215E-08;100 nA
-0,550537109375;33,6568109150247;-2,008056640625E-09;-0,548736572265625;1;51;2,82975658774376E-08;-2,98600643873215E-08;100 nA
-0,6005859375;34,1572989137611;-2,0660400390625E-09;-0,598602294921875;1;52;2,82975658774376E-08;-2,98600643873215E-08;100 nA
-0,650634765625;34,6577869124975;-2,1728515625E-09;-0,6485595703125;1;53;2,82975658774376E-08;-2,98600643873215E-08;100 nA
-0,70068359375;35,1582749112339;-2,1453857421875E-09;-0,69854736328125;1;54;2,82975658774376E-08;-2,98600643873215E-08;100 nA
-0,750732421875;35,6587629099703;-1,9317626953125E-09;-0,748626708984375;1;55;2,82975658774376E-08;-2,98600643873215E-08;100 nA
-0,80078125;36,1592509087067;-1,678466796875E-09;-0,79833984375;1;56;2,82975658774376E-08;-2,98600643873215E-08;100 nA
-0,850830078125;36,6597389074431;-1,4617919921875E-09;-0,8489990234375;1;57;2,82975658774376E-08;-2,98600643873215E-08;100 nA
-0,90087890625;37,1602269061794;-1,3641357421875E-09;-0,89874267578125;1;58;2,82975658774376E-08;-2,98600643873215E-08;100 nA
-0,950927734375;37,6607149049158;-1,4129638671875E-09;-0,9490966796875;1;59;2,82975658774376E-08;-2,98600643873215E-08;100 nA
-1,0009765625;38,1612029036522;-1,47705078125E-09;-0,9991455078125;1;60;2,82975658774376E-08;-2,98600643873215E-08;100 nA
-0,950927734375;38,6616909023886;-7,659912109375E-10;-0,94940185546875;1;61;2,82975658774376E-08;-2,98600643873215E-08;100 nA
-0,90087890625;39,162178901125;-4,57763671875E-10;-0,8990478515625;1;62;2,82975658774376E-08;-2,98600643873215E-08;100 nA
-0,850830078125;39,6626668998614;-3,662109375E-10;-0,84869384765625;1;63;2,82975658774376E-08;-2,98600643873215E-08;100 nA
-0,80078125;40,1631548985978;-5,18798828125E-11;-0,79864501953125;1;64;2,82975658774376E-08;-2,98600643873215E-08;100 nA
-0,750732421875;40,6636428973342;9,765625E-11;-0,748565673828125;1;65;2,82975658774376E-08;-2,98600643873215E-08;100 nA
-0,70068359375;41,1641308960706;3,662109375E-10;-0,698638916015625;1;66;2,82975658774376E-08;-2,98600643873215E-08;100 nA
-0,650634765625;41,6646188948069;7,537841796875E-10;-0,648590087890625;1;67;2,82975658774376E-08;-2,98600643873215E-08;100 nA
-0,6005859375;42,1651068935433;1,092529296875E-09;-0,5986328125;1;68;2,82975658774376E-08;-2,98600643873215E-08;100 nA
-0,550537109375;42,6655948922797;1,2786865234375E-09;-0,54876708984375;1;69;2,82975658774376E-08;-2,98600643873215E-08;100 nA
-0,50048828125;43,1660828910161;1,3580322265625E-09;-0,49884033203125;1;70;2,82975658774376E-08;-2,98600643873215E-08;100 nA
-0,450439453125;43,6665708897525;1,507568359375E-09;-0,44891357421875;1;71;2,82975658774376E-08;-2,98600643873215E-08;100 nA
-0,400390625;44,1670588884889;1,751708984375E-09;-0,3990478515625;1;72;2,82975658774376E-08;-2,98600643873215E-08;100 nA
-0,350341796875;44,6675468872253;1,971435546875E-09;-0,34918212890625;1;73;2,82975658774376E-08;-2,98600643873215E-08;100 nA
-0,30029296875;45,1680348859617;2,166748046875E-09;-0,299224853515625;1;74;2,82975658774376E-08;-2,98600643873215E-08;100 nA
-0,250244140625;45,6685228846981;2,294921875E-09;-0,249420166015625;1;75;2,82975658774376E-08;-2,98600643873215E-08;100 nA
-0,2001953125;46,1690108834345;2,3651123046875E-09;-0,199432373046875;1;76;2,82975658774376E-08;-2,98600643873215E-08;100 nA
-0,150146484375;46,6694988821708;2,4017333984375E-09;-0,1495361328125;1;77;2,82975658774376E-08;-2,98600643873215E-08;100 nA
-0,10009765625;47,1699868809072;2,459716796875E-09;-0,09967041015625;1;78;2,82975658774376E-08;-2,98600643873215E-08;100 nA
-0,050048828125;47,6704748796436;2,4658203125E-09;-0,04974365234375;1;79;2,82975658774376E-08;-2,98600643873215E-08;100 nA
0;48,17096287838;2,581787109375E-09;0,0001373291015625;1;80;2,82975658774376E-08;-2,98600643873215E-08;100 nA
0,050048828125;48,6714508771164;2,813720703125E-09;0,050079345703125;2;81;3,08757647871971E-08;-2,86427512764931E-08;100 nA
0,10009765625;49,1719388758528;3,3599853515625E-09;0,100067138671875;2;82;3,08757647871971E-08;-2,86427512764931E-08;100 nA
0,150146484375;49,6724268745892;3,2196044921875E-09;0,150115966796875;2;83;3,08757647871971E-08;-2,86427512764931E-08;100 nA
0,2001953125;50,1729148733256;2,4932861328125E-09;0,200103759765625;2;84;3,08757647871971E-08;-2,86427512764931E-08;100 nA
0,250244140625;50,673402872062;2,197265625E-09;0,2501220703125;2;85;3,08757647871971E-08;-2,86427512764931E-08;100 nA
0,30029296875;51,1738908707983;2,05078125E-09;0,300048828125;2;86;3,08757647871971E-08;-2,86427512764931E-08;100 nA
0,350341796875;51,6743788695347;1,9256591796875E-09;0,350128173828125;2;87;3,08757647871971E-08;-2,86427512764931E-08;100 nA
0,400390625;52,1748668682711;1,7730712890625E-09;0,400146484375;2;88;3,08757647871971E-08;-2,86427512764931E-08;100 nA
0,450439453125;52,6753548670075;1,62353515625E-09;0,4500732421875;2;89;3,08757647871971E-08;-2,86427512764931E-08;100 nA
0,50048828125;53,1758428657439;1,4923095703125E-09;0,500091552734375;2;90;3,08757647871971E-08;-2,86427512764931E-08;100 nA
0,550537109375;53,6763308644803;1,3763427734375E-09;0,55010986328125;2;91;3,08757647871971E-08;-2,86427512764931E-08;100 nA
0,6005859375;54,1768188632167;1,26953125E-09;0,60009765625;2;92;3,08757647871971E-08;-2,86427512764931E-08;100 nA
0,650634765625;54,6773068619531;1,190185546875E-09;0,6500244140625;2;93;3,08757647871971E-08;-2,86427512764931E-08;100 nA
0,70068359375;55,1777948606895;1,104736328125E-09;0,699920654296875;2;94;3,08757647871971E-08;-2,86427512764931E-08;100 nA
0,750732421875;55,6782828594258;1,0345458984375E-09;0,749847412109375;2;95;3,08757647871971E-08;-2,86427512764931E-08;100 nA
0,80078125;56,1787708581622;9,27734375E-10;0,79986572265625;2;96;3,08757647871971E-08;-2,86427512764931E-08;100 nA
0,850830078125;56,6792588568986;9,429931640625E-10;0,84991455078125;2;97;3,08757647871971E-08;-2,86427512764931E-08;100 nA
0,90087890625;57,179746855635;1,019287109375E-09;0,89996337890625;2;98;3,08757647871971E-08;-2,86427512764931E-08;100 nA
0,950927734375;57,6802348543714;1,171875E-09;0,95001220703125;2;99;3,08757647871971E-08;-2,86427512764931E-08;100 nA
1,0009765625;58,1807228531078;1,4984130859375E-09;1,00006103515625;2;100;3,08757647871971E-08;-2,86427512764931E-08;100 nA
0,950927734375;58,6812108518442;6,195068359375E-10;0,94970703125;2;101;3,08757647871971E-08;-2,86427512764931E-08;100 nA
0,90087890625;59,1816988505806;2,655029296875E-10;0,899658203125;2;102;3,08757647871971E-08;-2,86427512764931E-08;100 nA
0,850830078125;59,682186849317;1,03759765625E-10;0,8502197265625;2;103;3,08757647871971E-08;-2,86427512764931E-08;100 nA
0,80078125;60,1826748480534;2,13623046875E-11;0,799560546875;2;104;3,08757647871971E-08;-2,86427512764931E-08;100 nA
0,750732421875;60,6831628467897;2,13623046875E-11;0,749847412109375;2;105;3,08757647871971E-08;-2,86427512764931E-08;100 nA
0,70068359375;61,1836508455261;-5,4931640625E-11;0,699920654296875;2;106;3,08757647871971E-08;-2,86427512764931E-08;100 nA
0,650634765625;61,6841388442625;-1,434326171875E-10;0,650054931640625;2;107;3,08757647871971E-08;-2,86427512764931E-08;100 nA
0,6005859375;62,1846268429989;-1,373291015625E-10;0,60009765625;2;108;3,08757647871971E-08;-2,86427512764931E-08;100 nA
0,550537109375;62,6851148417353;-1,556396484375E-10;0,550079345703125;2;109;3,08757647871971E-08;-2,86427512764931E-08;100 nA
0,50048828125;63,1856028404717;-1,953125E-10;0,50006103515625;2;110;3,08757647871971E-08;-2,86427512764931E-08;100 nA
0,450439453125;63,6860908392081;-2,01416015625E-10;0,450103759765625;2;111;3,08757647871971E-08;-2,86427512764931E-08;100 nA
0,400390625;64,1865788379445;-2,532958984375E-10;0,400115966796875;2;112;3,08757647871971E-08;-2,86427512764931E-08;100 nA
0,350341796875;64,6870668366809;-3,448486328125E-10;0,350128173828125;2;113;3,08757647871971E-08;-2,86427512764931E-08;100 nA
0,30029296875;65,1875548354172;-4,852294921875E-10;0,30010986328125;2;114;3,08757647871971E-08;-2,86427512764931E-08;100 nA
0,250244140625;65,6880428341536;-6,28662109375E-10;0,250091552734375;2;115;3,08757647871971E-08;-2,86427512764931E-08;100 nA
0,2001953125;66,18853083289;-8,331298828125E-10;0,200103759765625;2;116;3,08757647871971E-08;-2,86427512764931E-08;100 nA
0,150146484375;66,6890188316264;-1,336669921875E-09;0,150115966796875;2;117;3,08757647871971E-08;-2,86427512764931E-08;100 nA
0,10009765625;67,1895068303628;-3,3538818359375E-09;0,10009765625;2;118;3,08757647871971E-08;-2,86427512764931E-08;100 nA
0,050048828125;67,6899948290992;-5,3924560546875E-09;0,050140380859375;2;119;3,08757647871971E-08;-2,86427512764931E-08;100 nA
0;68,1904828278356;-3,13720703125E-09;0,000149536132812503;2;120;3,08757647871971E-08;-2,86427512764931E-08;100 nA
-0,050048828125;68,690970826572;-2,5665283203125E-09;-0,049713134765625;2;121;3,08757647871971E-08;-2,86427512764931E-08;100 nA
-0,10009765625;69,1914588253084;-2,3956298828125E-09;-0,099639892578125;2;122;3,08757647871971E-08;-2,86427512764931E-08;100 nA
-0,150146484375;69,6919468240447;-2,2735595703125E-09;-0,149566650390625;2;123;3,08757647871971E-08;-2,86427512764931E-08;100 nA
-0,2001953125;70,1924348227811;-2,203369140625E-09;-0,19940185546875;2;124;3,08757647871971E-08;-2,86427512764931E-08;100 nA
-0,250244140625;70,6929228215175;-2,191162109375E-09;-0,249298095703125;2;125;3,08757647871971E-08;-2,86427512764931E-08;100 nA
-0,30029296875;71,1934108202539;-2,2796630859375E-09;-0,2991943359375;2;126;3,08757647871971E-08;-2,86427512764931E-08;100 nA
-0,350341796875;71,6938988189903;-2,3712158203125E-09;-0,349151611328125;2;127;3,08757647871971E-08;-2,86427512764931E-08;100 nA
-0,400390625;72,1943868177267;-2,337646484375E-09;-0,3990478515625;2;128;3,08757647871971E-08;-2,86427512764931E-08;100 nA
-0,450439453125;72,6948748164631;-2,1759033203125E-09;-0,44891357421875;2;129;3,08757647871971E-08;-2,86427512764931E-08;100 nA
-0,50048828125;73,1953628151995;-1,971435546875E-09;-0,49884033203125;2;130;3,08757647871971E-08;-2,86427512764931E-08;100 nA
-0,550537109375;73,6958508139359;-1,8798828125E-09;-0,548736572265625;2;131;3,08757647871971E-08;-2,86427512764931E-08;100 nA
-0,6005859375;74,1963388126723;-1,9622802734375E-09;-0,598663330078125;2;132;3,08757647871971E-08;-2,86427512764931E-08;100 nA
-0,650634765625;74,6968268114086;-2,0721435546875E-09;-0,64862060546875;2;133;3,08757647871971E-08;-2,86427512764931E-08;100 nA
-0,70068359375;75,197314810145;-2,0172119140625E-09;-0,698577880859375;2;134;3,08757647871971E-08;-2,86427512764931E-08;100 nA
-0,750732421875;75,6978028088814;-1,788330078125E-09;-0,748626708984375;2;135;3,08757647871971E-08;-2,86427512764931E-08;100 nA
-0,80078125;76,1982908076178;-1,568603515625E-09;-0,79803466796875;2;136;3,08757647871971E-08;-2,86427512764931E-08;100 nA
-0,850830078125;76,6987788063542;-1,324462890625E-09;-0,8489990234375;2;137;3,08757647871971E-08;-2,86427512764931E-08;100 nA
-0,90087890625;77,1992668050906;-1,214599609375E-09;-0,89874267578125;2;138;3,08757647871971E-08;-2,86427512764931E-08;100 nA
-0,950927734375;77,699754803827;-1,202392578125E-09;-0,94879150390625;2;139;3,08757647871971E-08;-2,86427512764931E-08;100 nA
-1,0009765625;78,2002428025634;-1,2847900390625E-09;-0,9991455078125;2;140;3,08757647871971E-08;-2,86427512764931E-08;100 nA
-0,950927734375;78,7007308012998;-6,8359375E-10;-0,94879150390625;2;141;3,08757647871971E-08;-2,86427512764931E-08;100 nA
-0,90087890625;79,2012188000361;-4,180908203125E-10;-0,8990478515625;2;142;3,08757647871971E-08;-2,86427512764931E-08;100 nA
-0,850830078125;79,7017067987725;-2,655029296875E-10;-0,84869384765625;2;143;3,08757647871971E-08;-2,86427512764931E-08;100 nA
-0,80078125;80,2021947975089;-1,28173828125E-10;-0,79833984375;2;144;3,08757647871971E-08;-2,86427512764931E-08;100 nA
-0,750732421875;80,7026827962453;2,74658203125E-11;-0,748565673828125;2;145;3,08757647871971E-08;-2,86427512764931E-08;100 nA
-0,70068359375;81,2031707949817;2,44140625E-10;-0,6986083984375;2;146;3,08757647871971E-08;-2,86427512764931E-08;100 nA
-0,650634765625;81,7036587937181;6,40869140625E-10;-0,648590087890625;2;147;3,08757647871971E-08;-2,86427512764931E-08;100 nA
-0,6005859375;82,2041467924545;9,3994140625E-10;-0,598663330078125;2;148;3,08757647871971E-08;-2,86427512764931E-08;100 nA
-0,550537109375;82,7046347911909;1,1749267578125E-09;-0,548736572265625;2;149;3,08757647871971E-08;-2,86427512764931E-08;100 nA
-0,50048828125;83,2051227899273;1,2786865234375E-09;-0,498809814453125;2;150;3,08757647871971E-08;-2,86427512764931E-08;100 nA
-0,450439453125;83,7056107886636;1,458740234375E-09;-0,448944091796875;2;151;3,08757647871971E-08;-2,86427512764931E-08;100 nA
-0,400390625;84,2060987874;1,6876220703125E-09;-0,399078369140625;2;152;3,08757647871971E-08;-2,86427512764931E-08;100 nA
-0,350341796875;84,7065867861364;1,9561767578125E-09;-0,34918212890625;2;153;3,08757647871971E-08;-2,86427512764931E-08;100 nA
-0,30029296875;85,2070747848728;2,16064453125E-09;-0,29925537109375;2;154;3,08757647871971E-08;-2,86427512764931E-08;100 nA
-0,250244140625;85,7075627836092;2,288818359375E-09;-0,24932861328125;2;155;3,08757647871971E-08;-2,86427512764931E-08;100 nA
-0,2001953125;86,2080507823456;2,325439453125E-09;-0,199371337890625;2;156;3,08757647871971E-08;-2,86427512764931E-08;100 nA
-0,150146484375;86,708538781082;2,3773193359375E-09;-0,14959716796875;2;157;3,08757647871971E-08;-2,86427512764931E-08;100 nA
-0,10009765625;87,2090267798184;2,4322509765625E-09;-0,09967041015625;2;158;3,08757647871971E-08;-2,86427512764931E-08;100 nA
-0,050048828125;87,7095147785548;2,5390625E-09;-0,049774169921875;2;159;3,08757647871971E-08;-2,86427512764931E-08;100 nA
0;88,2100027772912;2,642822265625E-09;0,000131225585937506;2;160;3,08757647871971E-08;-2,86427512764931E-08;100 nA
0,050048828125;88,7104907760275;2,8350830078125E-09;0,050079345703125;3;161;3,08253616094589E-08;-2,85220891237259E-08;100 nA
0,10009765625;89,2109787747639;3,40576171875E-09;0,100067138671875;3;162;3,08253616094589E-08;-2,85220891237259E-08;100 nA
0,150146484375;89,7114667735003;3,21044921875E-09;0,1500244140625;3;163;3,08253616094589E-08;-2,85220891237259E-08;100 nA
0,2001953125;90,2119547722367;2,5146484375E-09;0,200103759765625;3;164;3,08253616094589E-08;-2,85220891237259E-08;100 nA
0,250244140625;90,7124427709731;2,197265625E-09;0,25006103515625;3;165;3,08253616094589E-08;-2,85220891237259E-08;100 nA
0,30029296875;91,2129307697095;2,069091796875E-09;0,300079345703125;3;166;3,08253616094589E-08;-2,85220891237259E-08;100 nA
0,350341796875;91,7134187684459;1,922607421875E-09;0,350128173828125;3;167;3,08253616094589E-08;-2,85220891237259E-08;100 nA
0,400390625;92,2139067671823;1,7669677734375E-09;0,400115966796875;3;168;3,08253616094589E-08;-2,85220891237259E-08;100 nA
0,450439453125;92,7143947659187;1,617431640625E-09;0,4500732421875;3;169;3,08253616094589E-08;-2,85220891237259E-08;100 nA
0,50048828125;93,214882764655;1,4801025390625E-09;0,50006103515625;3;170;3,08253616094589E-08;-2,85220891237259E-08;100 nA
0,550537109375;93,7153707633914;1,336669921875E-09;0,550079345703125;3;171;3,08253616094589E-08;-2,85220891237259E-08;100 nA
0,6005859375;94,2158587621278;1,251220703125E-09;0,60003662109375;3;172;3,08253616094589E-08;-2,85220891237259E-08;100 nA
0,650634765625;94,7163467608642;1,1260986328125E-09;0,6500244140625;3;173;3,08253616094589E-08;-2,85220891237259E-08;100 nA
0,70068359375;95,2168347596006;1,01318359375E-09;0,699920654296875;3;174;3,08253616094589E-08;-2,85220891237259E-08;100 nA
0,750732421875;95,717322758337;9,796142578125E-10;0,749847412109375;3;175;3,08253616094589E-08;-2,85220891237259E-08;100 nA
0,80078125;96,2178107570734;9,58251953125E-10;0,8001708984375;3;176;3,08253616094589E-08;-2,85220891237259E-08;100 nA
0,850830078125;96,7182987558098;8,9111328125E-10;0,84991455078125;3;177;3,08253616094589E-08;-2,85220891237259E-08;100 nA
0,90087890625;97,2187867545462;1,0223388671875E-09;0,899658203125;3;178;3,08253616094589E-08;-2,85220891237259E-08;100 nA
0,950927734375;97,7192747532825;1,220703125E-09;0,94970703125;3;179;3,08253616094589E-08;-2,85220891237259E-08;100 nA
1,0009765625;98,2197627520189;1,6021728515625E-09;0,99945068359375;3;180;3,08253616094589E-08;-2,85220891237259E-08;100 nA
0,950927734375;98,7202507507553;7,50732421875E-10;0,95001220703125;3;181;3,08253616094589E-08;-2,85220891237259E-08;100 nA
0,90087890625;99,2207387494917;4,0283203125E-10;0,899658203125;3;182;3,08253616094589E-08;-2,85220891237259E-08;100 nA
0,850830078125;99,7212267482281;2,5634765625E-10;0,84930419921875;3;183;3,08253616094589E-08;-2,85220891237259E-08;100 nA
0,80078125;100,221714746964;1,46484375E-10;0,79986572265625;3;184;3,08253616094589E-08;-2,85220891237259E-08;100 nA
0,750732421875;100,722202745701;9,46044921875E-11;0,7498779296875;3;185;3,08253616094589E-08;-2,85220891237259E-08;100 nA
0,70068359375;101,222690744437;4,8828125E-11;0,699981689453125;3;186;3,08253616094589E-08;-2,85220891237259E-08;100 nA
0,650634765625;101,723178743174;1,8310546875E-11;0,650115966796875;3;187;3,08253616094589E-08;-2,85220891237259E-08;100 nA
0,6005859375;102,22366674191;9,1552734375E-12;0,60015869140625;3;188;3,08253616094589E-08;-2,85220891237259E-08;100 nA
0,550537109375;102,724154740646;-3,35693359375E-11;0,550140380859375;3;189;3,08253616094589E-08;-2,85220891237259E-08;100 nA
0,50048828125;103,224642739383;-1,251220703125E-10;0,5001220703125;3;190;3,08253616094589E-08;-2,85220891237259E-08;100 nA
0,450439453125;103,725130738119;-1,8310546875E-10;0,450164794921875;3;191;3,08253616094589E-08;-2,85220891237259E-08;100 nA
0,400390625;104,225618736856;-2,197265625E-10;0,400177001953125;3;192;3,08253616094589E-08;-2,85220891237259E-08;100 nA
0,350341796875;104,726106735592;-3,326416015625E-10;0,35009765625;3;193;3,08253616094589E-08;-2,85220891237259E-08;100 nA
0,30029296875;105,226594734328;-5,06591796875E-10;0,300018310546875;3;194;3,08253616094589E-08;-2,85220891237259E-08;100 nA
0,250244140625;105,727082733065;-7,354736328125E-10;0,250152587890625;3;195;3,08253616094589E-08;-2,85220891237259E-08;100 nA
0,2001953125;106,227570731801;-8,85009765625E-10;0,200103759765625;3;196;3,08253616094589E-08;-2,85220891237259E-08;100 nA
0,150146484375;106,728058730538;-1,40380859375E-09;0,1500244140625;3;197;3,08253616094589E-08;-2,85220891237259E-08;100 nA
0,10009765625;107,228546729274;-3,3660888671875E-09;0,10009765625;3;198;3,08253616094589E-08;-2,85220891237259E-08;100 nA
0,050048828125;107,72903472801;-5,55419921875E-09;0,050140380859375;3;199;3,08253616094589E-08;-2,85220891237259E-08;100 nA
0;108,229522726747;-3,271484375E-09;0,000131225585937506;3;200;3,08253616094589E-08;-2,85220891237259E-08;100 nA
-0,050048828125;108,730010725483;-2,6580810546875E-09;-0,049835205078125;3;201;3,08253616094589E-08;-2,85220891237259E-08;100 nA
-0,10009765625;109,23049872422;-2,47802734375E-09;-0,0997314453125;3;202;3,08253616094589E-08;-2,85220891237259E-08;100 nA
-0,150146484375;109,730986722956;-2,423095703125E-09;-0,149505615234375;3;203;3,08253616094589E-08;-2,85220891237259E-08;100 nA
-0,2001953125;110,231474721692;-2,4017333984375E-09;-0,199493408203125;3;204;3,08253616094589E-08;-2,85220891237259E-08;100 nA
-0,250244140625;110,731962720429;-2,3773193359375E-09;-0,249359130859375;3;205;3,08253616094589E-08;-2,85220891237259E-08;100 nA
-0,30029296875;111,232450719165;-2,4078369140625E-09;-0,299224853515625;3;206;3,08253616094589E-08;-2,85220891237259E-08;100 nA
-0,350341796875;111,732938717901;-2,508544921875E-09;-0,349151611328125;3;207;3,08253616094589E-08;-2,85220891237259E-08;100 nA
-0,400390625;112,233426716638;-2,3895263671875E-09;-0,399078369140625;3;208;3,08253616094589E-08;-2,85220891237259E-08;100 nA
-0,450439453125;112,733914715374;-2,2003173828125E-09;-0,448944091796875;3;209;3,08253616094589E-08;-2,85220891237259E-08;100 nA
-0,50048828125;113,234402714111;-1,9866943359375E-09;-0,498809814453125;3;210;3,08253616094589E-08;-2,85220891237259E-08;100 nA
-0,550537109375;113,734890712847;-1,9012451171875E-09;-0,548736572265625;3;211;3,08253616094589E-08;-2,85220891237259E-08;100 nA
-0,6005859375;114,235378711583;-1,91650390625E-09;-0,598663330078125;3;212;3,08253616094589E-08;-2,85220891237259E-08;100 nA
-0,650634765625;114,73586671032;-2,008056640625E-09;-0,648590087890625;3;213;3,08253616094589E-08;-2,85220891237259E-08;100 nA
-0,70068359375;115,236354709056;-1,9134521484375E-09;-0,698577880859375;3;214;3,08253616094589E-08;-2,85220891237259E-08;100 nA
-0,750732421875;115,736842707793;-1,6754150390625E-09;-0,748565673828125;3;215;3,08253616094589E-08;-2,85220891237259E-08;100 nA
-0,80078125;116,237330706529;-1,42822265625E-09;-0,79864501953125;3;216;3,08253616094589E-08;-2,85220891237259E-08;100 nA
-0,850830078125;116,737818705265;-1,1993408203125E-09;-0,84869384765625;3;217;3,08253616094589E-08;-2,85220891237259E-08;100 nA
-0,90087890625;117,238306704002;-1,043701171875E-09;-0,8984375;3;218;3,08253616094589E-08;-2,85220891237259E-08;100 nA
-0,950927734375;117,738794702738;-1,055908203125E-09;-0,94879150390625;3;219;3,08253616094589E-08;-2,85220891237259E-08;100 nA
-1,0009765625;118,239282701475;-1,1749267578125E-09;-0,99853515625;3;220;3,08253616094589E-08;-2,85220891237259E-08;100 nA
-0,950927734375;118,739770700211;-5,92041015625E-10;-0,9490966796875;3;221;3,08253616094589E-08;-2,85220891237259E-08;100 nA
-0,90087890625;119,240258698947;-3,692626953125E-10;-0,89874267578125;3;222;3,08253616094589E-08;-2,85220891237259E-08;100 nA
-0,850830078125;119,740746697684;-2,227783203125E-10;-0,848388671875;3;223;3,08253616094589E-08;-2,85220891237259E-08;100 nA
-0,80078125;120,24123469642;-3,96728515625E-11;-0,79803466796875;3;224;3,08253616094589E-08;-2,85220891237259E-08;100 nA
-0,750732421875;120,741722695156;8,544921875E-11;-0,748626708984375;3;225;3,08253616094589E-08;-2,85220891237259E-08;100 nA
-0,70068359375;121,242210693893;2,86865234375E-10;-0,6986083984375;3;226;3,08253616094589E-08;-2,85220891237259E-08;100 nA
-0,650634765625;121,742698692629;6,40869140625E-10;-0,648590087890625;3;227;3,08253616094589E-08;-2,85220891237259E-08;100 nA
-0,6005859375;122,243186691366;9,94873046875E-10;-0,598663330078125;3;228;3,08253616094589E-08;-2,85220891237259E-08;100 nA
-0,550537109375;122,743674690102;1,15966796875E-09;-0,548736572265625;3;229;3,08253616094589E-08;-2,85220891237259E-08;100 nA
-0,50048828125;123,244162688838;1,251220703125E-09;-0,498870849609375;3;230;3,08253616094589E-08;-2,85220891237259E-08;100 nA
-0,450439453125;123,744650687575;1,385498046875E-09;-0,449005126953125;3;231;3,08253616094589E-08;-2,85220891237259E-08;100 nA
-0,400390625;124,245138686311;1,568603515625E-09;-0,399078369140625;3;232;3,08253616094589E-08;-2,85220891237259E-08;100 nA
-0,350341796875;124,745626685048;1,81884765625E-09;-0,349151611328125;3;233;3,08253616094589E-08;-2,85220891237259E-08;100 nA
-0,30029296875;125,246114683784;2,0172119140625E-09;-0,29931640625;3;234;3,08253616094589E-08;-2,85220891237259E-08;100 nA
-0,250244140625;125,74660268252;2,18505859375E-09;-0,249359130859375;3;235;3,08253616094589E-08;-2,85220891237259E-08;100 nA
-0,2001953125;126,247090681257;2,239990234375E-09;-0,199462890625;3;236;3,08253616094589E-08;-2,85220891237259E-08;100 nA
-0,150146484375;126,747578679993;2,349853515625E-09;-0,14959716796875;3;237;3,08253616094589E-08;-2,85220891237259E-08;100 nA
-0,10009765625;127,24806667873;2,3712158203125E-09;-0,099700927734375;3;238;3,08253616094589E-08;-2,85220891237259E-08;100 nA
-0,050048828125;127,748554677466;2,4658203125E-09;-0,049774169921875;3;239;3,08253616094589E-08;-2,85220891237259E-08;100 nA
0;128,249042676202;2,6214599609375E-09;0,000143432617187494;3;240;3,08253616094589E-08;-2,85220891237259E-08;100 nA
0,050048828125;128,749530674939;2,84423828125E-09;0,050079345703125;4;241;3,10605764389038E-08;-2,84197553992271E-08;100 nA
0,10009765625;129,250018673675;3,4576416015625E-09;0,10009765625;4;242;3,10605764389038E-08;-2,84197553992271E-08;100 nA
0,150146484375;129,750506672411;3,253173828125E-09;0,150146484375;4;243;3,10605764389038E-08;-2,84197553992271E-08;100 nA
0,2001953125;130,250994671148;2,5054931640625E-09;0,20013427734375;4;244;3,10605764389038E-08;-2,84197553992271E-08;100 nA
0,250244140625;130,751482669884;2,2125244140625E-09;0,250091552734375;4;245;3,10605764389038E-08;-2,84197553992271E-08;100 nA
0,30029296875;131,251970668621;2,0965576171875E-09;0,300079345703125;4;246;3,10605764389038E-08;-2,84197553992271E-08;100 nA
0,350341796875;131,752458667357;2,0233154296875E-09;0,35015869140625;4;247;3,10605764389038E-08;-2,84197553992271E-08;100 nA
0,400390625;132,252946666093;1,849365234375E-09;0,400146484375;4;248;3,10605764389038E-08;-2,84197553992271E-08;100 nA
0,450439453125;132,75343466483;1,64794921875E-09;0,45013427734375;4;249;3,10605764389038E-08;-2,84197553992271E-08;100 nA
0,50048828125;133,253922663566;1,519775390625E-09;0,5001220703125;4;250;3,10605764389038E-08;-2,84197553992271E-08;100 nA
0,550537109375;133,754410662303;1,3824462890625E-09;0,550140380859375;4;251;3,10605764389038E-08;-2,84197553992271E-08;100 nA
0,6005859375;134,254898661039;1,2786865234375E-09;0,60009765625;4;252;3,10605764389038E-08;-2,84197553992271E-08;100 nA
0,650634765625;134,755386659775;1,1871337890625E-09;0,650054931640625;4;253;3,10605764389038E-08;-2,84197553992271E-08;100 nA
0,70068359375;135,255874658512;1,0894775390625E-09;0,699951171875;4;254;3,10605764389038E-08;-2,84197553992271E-08;100 nA
0,750732421875;135,756362657248;1,0162353515625E-09;0,74981689453125;4;255;3,10605764389038E-08;-2,84197553992271E-08;100 nA
0,80078125;136,256850655985;9,735107421875E-10;0,79925537109375;4;256;3,10605764389038E-08;-2,84197553992271E-08;100 nA
0,850830078125;136,757338654721;9,521484375E-10;0,8502197265625;4;257;3,10605764389038E-08;-2,84197553992271E-08;100 nA
0,90087890625;137,257826653457;1,0284423828125E-09;0,9002685546875;4;258;3,10605764389038E-08;-2,84197553992271E-08;100 nA
0,950927734375;137,758314652194;1,202392578125E-09;0,94970703125;4;259;3,10605764389038E-08;-2,84197553992271E-08;100 nA
1,0009765625;138,25880265093;1,5380859375E-09;0,99945068359375;4;260;3,10605764389038E-08;-2,84197553992271E-08;100 nA
0,950927734375;138,759290649666;6,40869140625E-10;0,9503173828125;4;261;3,10605764389038E-08;-2,84197553992271E-08;100 nA
0,90087890625;139,259778648403;2,9296875E-10;0,899658203125;4;262;3,10605764389038E-08;-2,84197553992271E-08;100 nA
0,850830078125;139,760266647139;1,15966796875E-10;0,8502197265625;4;263;3,10605764389038E-08;-2,84197553992271E-08;100 nA
0,80078125;140,260754645876;4,2724609375E-11;0,799560546875;4;264;3,10605764389038E-08;-2,84197553992271E-08;100 nA
0,750732421875;140,761242644612;2,13623046875E-11;0,74981689453125;4;265;3,10605764389038E-08;-2,84197553992271E-08;100 nA
0,70068359375;141,261730643348;1,8310546875E-11;0,699981689453125;4;266;3,10605764389038E-08;-2,84197553992271E-08;100 nA
0,650634765625;141,762218642085;-2,44140625E-11;0,650054931640625;4;267;3,10605764389038E-08;-2,84197553992271E-08;100 nA
0,6005859375;142,262706640821;-7,32421875E-11;0,60009765625;4;268;3,10605764389038E-08;-2,84197553992271E-08;100 nA
0,550537109375;142,763194639558;-8,544921875E-11;0,5501708984375;4;269;3,10605764389038E-08;-2,84197553992271E-08;100 nA
0,50048828125;143,263682638294;-1,03759765625E-10;0,500152587890625;4;270;3,10605764389038E-08;-2,84197553992271E-08;100 nA
0,450439453125;143,76417063703;-1,373291015625E-10;0,450103759765625;4;271;3,10605764389038E-08;-2,84197553992271E-08;100 nA
0,400390625;144,264658635767;-2,105712890625E-10;0,400115966796875;4;272;3,10605764389038E-08;-2,84197553992271E-08;100 nA
0,350341796875;144,765146634503;-3,173828125E-10;0,35009765625;4;273;3,10605764389038E-08;-2,84197553992271E-08;100 nA
0,30029296875;145,26563463324;-4,21142578125E-10;0,300079345703125;4;274;3,10605764389038E-08;-2,84197553992271E-08;100 nA
0,250244140625;145,766122631976;-5,889892578125E-10;0,2501220703125;4;275;3,10605764389038E-08;-2,84197553992271E-08;100 nA
0,2001953125;146,266610630712;-8,331298828125E-10;0,2000732421875;4;276;3,10605764389038E-08;-2,84197553992271E-08;100 nA
0,150146484375;146,767098629449;-1,3427734375E-09;0,150054931640625;4;277;3,10605764389038E-08;-2,84197553992271E-08;100 nA
0,10009765625;147,267586628185;-3,2318115234375E-09;0,100128173828125;4;278;3,10605764389038E-08;-2,84197553992271E-08;100 nA
0,050048828125;147,768074626921;-5,5572509765625E-09;0,05010986328125;4;279;3,10605764389038E-08;-2,84197553992271E-08;100 nA
0;148,268562625658;-3,277587890625E-09;0,000146484375000006;4;280;3,10605764389038E-08;-2,84197553992271E-08;100 nA
-0,050048828125;148,769050624394;-2,63671875E-09;-0,0498046875;4;281;3,10605764389038E-08;-2,84197553992271E-08;100 nA
-0,10009765625;149,269538623131;-2,50244140625E-09;-0,099700927734375;4;282;3,10605764389038E-08;-2,84197553992271E-08;100 nA
-0,150146484375;149,770026621867;-2,38037109375E-09;-0,149566650390625;4;283;3,10605764389038E-08;-2,84197553992271E-08;100 nA
-0,2001953125;150,270514620603;-2,3284912109375E-09;-0,199432373046875;4;284;3,10605764389038E-08;-2,84197553992271E-08;100 nA
-0,250244140625;150,77100261934;-2,3345947265625E-09;-0,249298095703125;4;285;3,10605764389038E-08;-2,84197553992271E-08;100 nA
-0,30029296875;151,271490618076;-2,398681640625E-09;-0,29925537109375;4;286;3,10605764389038E-08;-2,84197553992271E-08;100 nA
-0,350341796875;151,771978616813;-2,45361328125E-09;-0,349151611328125;4;287;3,10605764389038E-08;-2,84197553992271E-08;100 nA
-0,400390625;152,272466615549;-2,3834228515625E-09;-0,399078369140625;4;288;3,10605764389038E-08;-2,84197553992271E-08;100 nA
-0,450439453125;152,772954614285;-2,2552490234375E-09;-0,448883056640625;4;289;3,10605764389038E-08;-2,84197553992271E-08;100 nA
-0,50048828125;153,273442613022;-2,093505859375E-09;-0,498870849609375;4;290;3,10605764389038E-08;-2,84197553992271E-08;100 nA
-0,550537109375;153,773930611758;-1,983642578125E-09;-0,548797607421875;4;291;3,10605764389038E-08;-2,84197553992271E-08;100 nA
-0,6005859375;154,274418610495;-2,056884765625E-09;-0,598602294921875;4;292;3,10605764389038E-08;-2,84197553992271E-08;100 nA
-0,650634765625;154,774906609231;-2,081298828125E-09;-0,648590087890625;4;293;3,10605764389038E-08;-2,84197553992271E-08;100 nA
-0,70068359375;155,275394607967;-1,9866943359375E-09;-0,6986083984375;4;294;3,10605764389038E-08;-2,84197553992271E-08;100 nA
-0,750732421875;155,775882606704;-1,715087890625E-09;-0,74853515625;4;295;3,10605764389038E-08;-2,84197553992271E-08;100 nA
-0,80078125;156,27637060544;-1,4190673828125E-09;-0,79864501953125;4;296;3,10605764389038E-08;-2,84197553992271E-08;100 nA
-0,850830078125;156,776858604176;-1,220703125E-09;-0,84869384765625;4;297;3,10605764389038E-08;-2,84197553992271E-08;100 nA
-0,90087890625;157,277346602913;-1,11083984375E-09;-0,8984375;4;298;3,10605764389038E-08;-2,84197553992271E-08;100 nA
-0,950927734375;157,777834601649;-1,068115234375E-09;-0,94879150390625;4;299;3,10605764389038E-08;-2,84197553992271E-08;100 nA
-1,0009765625;158,278322600386;-1,104736328125E-09;-0,99853515625;4;300;3,10605764389038E-08;-2,84197553992271E-08;100 nA
-0,950927734375;158,778810599122;-5,55419921875E-10;-0,94818115234375;4;301;3,10605764389038E-08;-2,84197553992271E-08;100 nA
-0,90087890625;159,279298597858;-3,23486328125E-10;-0,8990478515625;4;302;3,10605764389038E-08;-2,84197553992271E-08;100 nA
-0,850830078125;159,779786596595;-1,861572265625E-10;-0,84808349609375;4;303;3,10605764389038E-08;-2,84197553992271E-08;100 nA
-0,80078125;160,280274595331;3,662109375E-11;-0,79833984375;4;304;3,10605764389038E-08;-2,84197553992271E-08;100 nA
-0,750732421875;160,780762594068;1,953125E-10;-0,74859619140625;4;305;3,10605764389038E-08;-2,84197553992271E-08;100 nA
-0,70068359375;161,281250592804;3,72314453125E-10;-0,698577880859375;4;306;3,10605764389038E-08;-2,84197553992271E-08;100 nA
-0,650634765625;161,78173859154;6,65283203125E-10;-0,648590087890625;4;307;3,10605764389038E-08;-2,84197553992271E-08;100 nA
-0,6005859375;162,282226590277;1,0345458984375E-09;-0,598602294921875;4;308;3,10605764389038E-08;-2,84197553992271E-08;100 nA
-0,550537109375;162,782714589013;1,1688232421875E-09;-0,548736572265625;4;309;3,10605764389038E-08;-2,84197553992271E-08;100 nA
-0,50048828125;163,28320258775;1,2969970703125E-09;-0,498809814453125;4;310;3,10605764389038E-08;-2,84197553992271E-08;100 nA
-0,450439453125;163,783690586486;1,4312744140625E-09;-0,449005126953125;4;311;3,10605764389038E-08;-2,84197553992271E-08;100 nA
-0,400390625;164,284178585222;1,6510009765625E-09;-0,399078369140625;4;312;3,10605764389038E-08;-2,84197553992271E-08;100 nA
-0,350341796875;164,784666583959;1,8768310546875E-09;-0,3492431640625;4;313;3,10605764389038E-08;-2,84197553992271E-08;100 nA
-0,30029296875;165,285154582695;2,08740234375E-09;-0,2991943359375;4;314;3,10605764389038E-08;-2,84197553992271E-08;100 nA
-0,250244140625;165,785642581431;2,2216796875E-09;-0,249359130859375;4;315;3,10605764389038E-08;-2,84197553992271E-08;100 nA
-0,2001953125;166,286130580168;2,2674560546875E-09;-0,19940185546875;4;316;3,10605764389038E-08;-2,84197553992271E-08;100 nA
-0,150146484375;166,786618578904;2,3101806640625E-09;-0,149566650390625;4;317;3,10605764389038E-08;-2,84197553992271E-08;100 nA
-0,10009765625;167,287106577641;2,313232421875E-09;-0,099700927734375;4;318;3,10605764389038E-08;-2,84197553992271E-08;100 nA
-0,050048828125;167,787594576377;2,4169921875E-09;-0,049835205078125;4;319;3,10605764389038E-08;-2,84197553992271E-08;100 nA
0;168,288082575113;2,5238037109375E-09;0,0001373291015625;4;320;3,10605764389038E-08;-2,84197553992271E-08;100 nA
0,050048828125;168,78857057385;2,72216796875E-09;0,050079345703125;5;321;3,06924805045128E-08;-2,84212827682495E-08;100 nA
0,10009765625;169,289058572586;3,3203125E-09;0,100128173828125;5;322;3,06924805045128E-08;-2,84212827682495E-08;100 nA
0,150146484375;169,789546571323;3,1036376953125E-09;0,1500244140625;5;323;3,06924805045128E-08;-2,84212827682495E-08;100 nA
0,2001953125;170,290034570059;2,398681640625E-09;0,20001220703125;5;324;3,06924805045128E-08;-2,84212827682495E-08;100 nA
0,250244140625;170,790522568795;2,1270751953125E-09;0,25006103515625;5;325;3,06924805045128E-08;-2,84212827682495E-08;100 nA
0,30029296875;171,291010567532;1,9744873046875E-09;0,300079345703125;5;326;3,06924805045128E-08;-2,84212827682495E-08;100 nA
0,350341796875;171,791498566268;1,8890380859375E-09;0,35009765625;5;327;3,06924805045128E-08;-2,84212827682495E-08;100 nA
0,400390625;172,291986565005;1,7333984375E-09;0,400115966796875;5;328;3,06924805045128E-08;-2,84212827682495E-08;100 nA
0,450439453125;172,792474563741;1,617431640625E-09;0,4500732421875;5;329;3,06924805045128E-08;-2,84212827682495E-08;100 nA
0,50048828125;173,292962562477;1,4892578125E-09;0,5001220703125;5;330;3,06924805045128E-08;-2,84212827682495E-08;100 nA
0,550537109375;173,793450561214;1,3885498046875E-09;0,550079345703125;5;331;3,06924805045128E-08;-2,84212827682495E-08;100 nA
0,6005859375;174,29393855995;1,3031005859375E-09;0,600128173828125;5;332;3,06924805045128E-08;-2,84212827682495E-08;100 nA
0,650634765625;174,794426558687;1,2237548828125E-09;0,6500244140625;5;333;3,06924805045128E-08;-2,84212827682495E-08;100 nA
0,70068359375;175,294914557423;1,1444091796875E-09;0,699951171875;5;334;3,06924805045128E-08;-2,84212827682495E-08;100 nA
0,750732421875;175,795402556159;1,1016845703125E-09;0,749908447265625;5;335;3,06924805045128E-08;-2,84212827682495E-08;100 nA
0,80078125;176,295890554896;1,0223388671875E-09;0,79986572265625;5;336;3,06924805045128E-08;-2,84212827682495E-08;100 nA
0,850830078125;176,796378553632;9,94873046875E-10;0,8502197265625;5;337;3,06924805045128E-08;-2,84212827682495E-08;100 nA
0,90087890625;177,296866552368;1,0955810546875E-09;0,89996337890625;5;338;3,06924805045128E-08;-2,84212827682495E-08;100 nA
0,950927734375;177,797354551105;1,3427734375E-09;0,94940185546875;5;339;3,06924805045128E-08;-2,84212827682495E-08;100 nA
1,0009765625;178,297842549841;1,6937255859375E-09;0,99945068359375;5;340;3,06924805045128E-08;-2,84212827682495E-08;100 nA
0,950927734375;178,798330548578;7,8125E-10;0,95001220703125;5;341;3,06924805045128E-08;-2,84212827682495E-08;100 nA
0,90087890625;179,298818547314;3,96728515625E-10;0,899658203125;5;342;3,06924805045128E-08;-2,84212827682495E-08;100 nA
0,850830078125;179,79930654605;2,288818359375E-10;0,849609375;5;343;3,06924805045128E-08;-2,84212827682495E-08;100 nA
0,80078125;180,299794544787;1,068115234375E-10;0,799560546875;5;344;3,06924805045128E-08;-2,84212827682495E-08;100 nA
0,750732421875;180,800282543523;5,18798828125E-11;0,749847412109375;5;345;3,06924805045128E-08;-2,84212827682495E-08;100 nA
0,70068359375;181,30077054226;0;0,699981689453125;5;346;3,06924805045128E-08;-2,84212827682495E-08;100 nA
0,650634765625;181,801258540996;-4,2724609375E-11;0,6500244140625;5;347;3,06924805045128E-08;-2,84212827682495E-08;100 nA
0,6005859375;182,301746539732;-8,85009765625E-11;0,600128173828125;5;348;3,06924805045128E-08;-2,84212827682495E-08;100 nA
0,550537109375;182,802234538469;-1,40380859375E-10;0,550079345703125;5;349;3,06924805045128E-08;-2,84212827682495E-08;100 nA
0,50048828125;183,302722537205;-1,800537109375E-10;0,500152587890625;5;350;3,06924805045128E-08;-2,84212827682495E-08;100 nA
0,450439453125;183,803210535942;-2,227783203125E-10;0,45013427734375;5;351;3,06924805045128E-08;-2,84212827682495E-08;100 nA
0,400390625;184,303698534678;-2,777099609375E-10;0,400115966796875;5;352;3,06924805045128E-08;-2,84212827682495E-08;100 nA
0,350341796875;184,804186533414;-3,84521484375E-10;0,35015869140625;5;353;3,06924805045128E-08;-2,84212827682495E-08;100 nA
0,30029296875;185,304674532151;-5,37109375E-10;0,300079345703125;5;354;3,06924805045128E-08;-2,84212827682495E-08;100 nA
0,250244140625;185,805162530887;-7,50732421875E-10;0,2501220703125;5;355;3,06924805045128E-08;-2,84212827682495E-08;100 nA
0,2001953125;186,305650529623;-9,246826171875E-10;0,200042724609375;5;356;3,06924805045128E-08;-2,84212827682495E-08;100 nA
0,150146484375;186,80613852836;-1,4404296875E-09;0,150054931640625;5;357;3,06924805045128E-08;-2,84212827682495E-08;100 nA
0,10009765625;187,306626527096;-3,277587890625E-09;0,100128173828125;5;358;3,06924805045128E-08;-2,84212827682495E-08;100 nA
0,050048828125;187,807114525833;-5,7159423828125E-09;0,050079345703125;5;359;3,06924805045128E-08;-2,84212827682495E-08;100 nA
0;188,307602524569;-3,38134765625E-09;0,000128173828124994;5;360;3,06924805045128E-08;-2,84212827682495E-08;100 nA
-0,050048828125;188,808090523305;-2,7435302734375E-09;-0,049835205078125;5;361;3,06924805045128E-08;-2,84212827682495E-08;100 nA
-0,10009765625;189,308578522042;-2,4810791015625E-09;-0,09967041015625;5;362;3,06924805045128E-08;-2,84212827682495E-08;100 nA
-0,150146484375;189,809066520778;-2,35595703125E-09;-0,149566650390625;5;363;3,06924805045128E-08;-2,84212827682495E-08;100 nA
-0,2001953125;190,309554519515;-2,301025390625E-09;-0,199493408203125;5;364;3,06924805045128E-08;-2,84212827682495E-08;100 nA
-0,250244140625;190,810042518251;-2,301025390625E-09;-0,249359130859375;5;365;3,06924805045128E-08;-2,84212827682495E-08;100 nA
-0,30029296875;191,310530516987;-2,362060546875E-09;-0,299224853515625;5;366;3,06924805045128E-08;-2,84212827682495E-08;100 nA
-0,350341796875;191,811018515724;-2,3529052734375E-09;-0,349151611328125;5;367;3,06924805045128E-08;-2,84212827682495E-08;100 nA
-0,400390625;192,31150651446;-2,2796630859375E-09;-0,3990478515625;5;368;3,06924805045128E-08;-2,84212827682495E-08;100 nA
-0,450439453125;192,811994513197;-2,1087646484375E-09;-0,449005126953125;5;369;3,06924805045128E-08;-2,84212827682495E-08;100 nA
-0,50048828125;193,312482511933;-1,9073486328125E-09;-0,498809814453125;5;370;3,06924805045128E-08;-2,84212827682495E-08;100 nA
-0,550537109375;193,812970510669;-1,8524169921875E-09;-0,5487060546875;5;371;3,06924805045128E-08;-2,84212827682495E-08;100 nA
-0,6005859375;194,313458509406;-1,9500732421875E-09;-0,5986328125;5;372;3,06924805045128E-08;-2,84212827682495E-08;100 nA
-0,650634765625;194,813946508142;-1,9775390625E-09;-0,6485595703125;5;373;3,06924805045128E-08;-2,84212827682495E-08;100 nA
-0,70068359375;195,314434506878;-1,8341064453125E-09;-0,698516845703125;5;374;3,06924805045128E-08;-2,84212827682495E-08;100 nA
-0,750732421875;195,814922505615;-1,556396484375E-09;-0,748565673828125;5;375;3,06924805045128E-08;-2,84212827682495E-08;100 nA
-0,80078125;196,315410504351;-1,3702392578125E-09;-0,79833984375;5;376;3,06924805045128E-08;-2,84212827682495E-08;100 nA
-0,850830078125;196,815898503088;-1,18408203125E-09;-0,848388671875;5;377;3,06924805045128E-08;-2,84212827682495E-08;100 nA
-0,90087890625;197,316386501824;-1,06201171875E-09;-0,89874267578125;5;378;3,06924805045128E-08;-2,84212827682495E-08;100 nA
-0,950927734375;197,81687450056;-1,0528564453125E-09;-0,9490966796875;5;379;3,06924805045128E-08;-2,84212827682495E-08;100 nA
-1,0009765625;198,317362499297;-1,11083984375E-09;-0,9991455078125;5;380;3,06924805045128E-08;-2,84212827682495E-08;100 nA
-0,950927734375;198,817850498033;-6,134033203125E-10;-0,94879150390625;5;381;3,06924805045128E-08;-2,84212827682495E-08;100 nA
-0,90087890625;199,31833849677;-3,72314453125E-10;-0,8990478515625;5;382;3,06924805045128E-08;-2,84212827682495E-08;100 nA
-0,850830078125;199,818826495506;-2,349853515625E-10;-0,84869384765625;5;383;3,06924805045128E-08;-2,84212827682495E-08;100 nA
-0,80078125;200,319314494242;-5,79833984375E-11;-0,79864501953125;5;384;3,06924805045128E-08;-2,84212827682495E-08;100 nA
-0,750732421875;200,819802492979;7,32421875E-11;-0,748626708984375;5;385;3,06924805045128E-08;-2,84212827682495E-08;100 nA
-0,70068359375;201,320290491715;2,593994140625E-10;-0,698577880859375;5;386;3,06924805045128E-08;-2,84212827682495E-08;100 nA
-0,650634765625;201,820778490452;5,9814453125E-10;-0,64862060546875;5;387;3,06924805045128E-08;-2,84212827682495E-08;100 nA
-0,6005859375;202,321266489188;9,521484375E-10;-0,598663330078125;5;388;3,06924805045128E-08;-2,84212827682495E-08;100 nA
-0,550537109375;202,821754487924;1,1260986328125E-09;-0,54876708984375;5;389;3,06924805045128E-08;-2,84212827682495E-08;100 nA
-0,50048828125;203,322242486661;1,2481689453125E-09;-0,49884033203125;5;390;3,06924805045128E-08;-2,84212827682495E-08;100 nA
-0,450439453125;203,822730485397;1,3580322265625E-09;-0,448974609375;5;391;3,06924805045128E-08;-2,84212827682495E-08;100 nA
-0,400390625;204,323218484133;1,5411376953125E-09;-0,399139404296875;5;392;3,06924805045128E-08;-2,84212827682495E-08;100 nA
-0,350341796875;204,82370648287;1,8096923828125E-09;-0,349212646484375;5;393;3,06924805045128E-08;-2,84212827682495E-08;100 nA
-0,30029296875;205,324194481606;2,0050048828125E-09;-0,29925537109375;5;394;3,06924805045128E-08;-2,84212827682495E-08;100 nA
-0,250244140625;205,824682480343;2,1759033203125E-09;-0,24932861328125;5;395;3,06924805045128E-08;-2,84212827682495E-08;100 nA
-0,2001953125;206,325170479079;2,1942138671875E-09;-0,199462890625;5;396;3,06924805045128E-08;-2,84212827682495E-08;100 nA
-0,150146484375;206,825658477815;2,349853515625E-09;-0,149566650390625;5;397;3,06924805045128E-08;-2,84212827682495E-08;100 nA
-0,10009765625;207,326146476552;2,35595703125E-09;-0,0997314453125;5;398;3,06924805045128E-08;-2,84212827682495E-08;100 nA
-0,050048828125;207,826634475288;2,435302734375E-09;-0,049835205078125;5;399;3,06924805045128E-08;-2,84212827682495E-08;100 nA
0;208,327122474025;2,5909423828125E-09;0,000140380859374997;5;400;3,06924805045128E-08;-2,84212827682495E-08;100 nA
0,050048828125;208,827610472761;2,850341796875E-09;0,050140380859375;6;401;3,12453880906105E-08;-2,84548848867416E-08;100 nA
0,10009765625;209,328098471497;3,466796875E-09;0,100128173828125;6;402;3,12453880906105E-08;-2,84548848867416E-08;100 nA
0,150146484375;209,828586470234;3,21044921875E-09;0,150146484375;6;403;3,12453880906105E-08;-2,84548848867416E-08;100 nA
0,2001953125;210,32907446897;2,4871826171875E-09;0,200164794921875;6;404;3,12453880906105E-08;-2,84548848867416E-08;100 nA
0,250244140625;210,829562467707;2,2125244140625E-09;0,250152587890625;6;405;3,12453880906105E-08;-2,84548848867416E-08;100 nA
0,30029296875;211,330050466443;2,0599365234375E-09;0,300079345703125;6;406;3,12453880906105E-08;-2,84548848867416E-08;100 nA
0,350341796875;211,830538465179;1,934814453125E-09;0,35015869140625;6;407;3,12453880906105E-08;-2,84548848867416E-08;100 nA
0,400390625;212,331026463916;1,8310546875E-09;0,400146484375;6;408;3,12453880906105E-08;-2,84548848867416E-08;100 nA
0,450439453125;212,831514462652;1,6754150390625E-09;0,45013427734375;6;409;3,12453880906105E-08;-2,84548848867416E-08;100 nA
0,50048828125;213,332002461388;1,4923095703125E-09;0,50018310546875;6;410;3,12453880906105E-08;-2,84548848867416E-08;100 nA
0,550537109375;213,832490460125;1,3763427734375E-09;0,550140380859375;6;411;3,12453880906105E-08;-2,84548848867416E-08;100 nA
0,6005859375;214,332978458861;1,287841796875E-09;0,600128173828125;6;412;3,12453880906105E-08;-2,84548848867416E-08;100 nA
0,650634765625;214,833466457598;1,165771484375E-09;0,650054931640625;6;413;3,12453880906105E-08;-2,84548848867416E-08;100 nA
0,70068359375;215,333954456334;1,080322265625E-09;0,699920654296875;6;414;3,12453880906105E-08;-2,84548848867416E-08;100 nA
0,750732421875;215,83444245507;1,0101318359375E-09;0,7498779296875;6;415;3,12453880906105E-08;-2,84548848867416E-08;100 nA
0,80078125;216,334930453807;9,552001953125E-10;0,8001708984375;6;416;3,12453880906105E-08;-2,84548848867416E-08;100 nA
0,850830078125;216,835418452543;9,3994140625E-10;0,84991455078125;6;417;3,12453880906105E-08;-2,84548848867416E-08;100 nA
0,90087890625;217,33590645128;1,0284423828125E-09;0,899658203125;6;418;3,12453880906105E-08;-2,84548848867416E-08;100 nA
0,950927734375;217,836394450016;1,2420654296875E-09;0,94970703125;6;419;3,12453880906105E-08;-2,84548848867416E-08;100 nA
1,0009765625;218,336882448752;1,580810546875E-09;0,99945068359375;6;420;3,12453880906105E-08;-2,84548848867416E-08;100 nA
0,950927734375;218,837370447489;7,080078125E-10;0,95001220703125;6;421;3,12453880906105E-08;-2,84548848867416E-08;100 nA
0,90087890625;219,337858446225;3,326416015625E-10;0,9002685546875;6;422;3,12453880906105E-08;-2,84548848867416E-08;100 nA
0,850830078125;219,838346444962;1,15966796875E-10;0,849609375;6;423;3,12453880906105E-08;-2,84548848867416E-08;100 nA
0,80078125;220,338834443698;1,220703125E-11;0,8001708984375;6;424;3,12453880906105E-08;-2,84548848867416E-08;100 nA
0,750732421875;220,839322442434;-1,220703125E-11;0,749786376953125;6;425;3,12453880906105E-08;-2,84548848867416E-08;100 nA
0,70068359375;221,339810441171;-2,74658203125E-11;0,69989013671875;6;426;3,12453880906105E-08;-2,84548848867416E-08;100 nA
0,650634765625;221,840298439907;-1,28173828125E-10;0,6500244140625;6;427;3,12453880906105E-08;-2,84548848867416E-08;100 nA
0,6005859375;222,340786438643;-1,129150390625E-10;0,600128173828125;6;428;3,12453880906105E-08;-2,84548848867416E-08;100 nA
0,550537109375;222,84127443738;-1,495361328125E-10;0,55010986328125;6;429;3,12453880906105E-08;-2,84548848867416E-08;100 nA
0,50048828125;223,341762436116;-1,495361328125E-10;0,500091552734375;6;430;3,12453880906105E-08;-2,84548848867416E-08;100 nA
0,450439453125;223,842250434853;-1,89208984375E-10;0,450103759765625;6;431;3,12453880906105E-08;-2,84548848867416E-08;100 nA
0,400390625;224,342738433589;-2,197265625E-10;0,400115966796875;6;432;3,12453880906105E-08;-2,84548848867416E-08;100 nA
0,350341796875;224,843226432325;-2,99072265625E-10;0,35015869140625;6;433;3,12453880906105E-08;-2,84548848867416E-08;100 nA
0,30029296875;225,343714431062;-4,241943359375E-10;0,30010986328125;6;434;3,12453880906105E-08;-2,84548848867416E-08;100 nA
0,250244140625;225,844202429798;-6,04248046875E-10;0,2501220703125;6;435;3,12453880906105E-08;-2,84548848867416E-08;100 nA
0,2001953125;226,344690428535;-8,026123046875E-10;0,200103759765625;6;436;3,12453880906105E-08;-2,84548848867416E-08;100 nA
0,150146484375;226,845178427271;-1,2908935546875E-09;0,1500244140625;6;437;3,12453880906105E-08;-2,84548848867416E-08;100 nA
0,10009765625;227,345666426007;-3,0975341796875E-09;0,100128173828125;6;438;3,12453880906105E-08;-2,84548848867416E-08;100 nA
0,050048828125;227,846154424744;-5,548095703125E-09;0,050140380859375;6;439;3,12453880906105E-08;-2,84548848867416E-08;100 nA
0;228,34664242348;-3,2745361328125E-09;0,000134277343750003;6;440;3,12453880906105E-08;-2,84548848867416E-08;100 nA
-0,050048828125;228,847130422217;-2,6336669921875E-09;-0,0497100830078125;6;441;3,12453880906105E-08;-2,84548848867416E-08;100 nA
-0,10009765625;229,347618420953;-2,47802734375E-09;-0,09967041015625;6;442;3,12453880906105E-08;-2,84548848867416E-08;100 nA
-0,150146484375;229,848106419689;-2,325439453125E-09;-0,149566650390625;6;443;3,12453880906105E-08;-2,84548848867416E-08;100 nA
-0,2001953125;230,348594418426;-2,2857666015625E-09;-0,19940185546875;6;444;3,12453880906105E-08;-2,84548848867416E-08;100 nA
-0,250244140625;230,849082417162;-2,2979736328125E-09;-0,24932861328125;6;445;3,12453880906105E-08;-2,84548848867416E-08;100 nA
-0,30029296875;231,349570415898;-2,3681640625E-09;-0,299224853515625;6;446;3,12453880906105E-08;-2,84548848867416E-08;100 nA
-0,350341796875;231,850058414635;-2,4261474609375E-09;-0,34912109375;6;447;3,12453880906105E-08;-2,84548848867416E-08;100 nA
-0,400390625;232,350546413371;-2,3590087890625E-09;-0,399078369140625;6;448;3,12453880906105E-08;-2,84548848867416E-08;100 nA
-0,450439453125;232,851034412108;-2,178955078125E-09;-0,44891357421875;6;449;3,12453880906105E-08;-2,84548848867416E-08;100 nA
-0,50048828125;233,351522410844;-1,995849609375E-09;-0,498809814453125;6;450;3,12453880906105E-08;-2,84548848867416E-08;100 nA
-0,550537109375;233,85201040958;-1,9195556640625E-09;-0,548736572265625;6;451;3,12453880906105E-08;-2,84548848867416E-08;100 nA
-0,6005859375;234,352498408317;-2,008056640625E-09;-0,59869384765625;6;452;3,12453880906105E-08;-2,84548848867416E-08;100 nA
-0,650634765625;234,852986407053;-2,0599365234375E-09;-0,648590087890625;6;453;3,12453880906105E-08;-2,84548848867416E-08;100 nA
-0,70068359375;235,35347440579;-1,9683837890625E-09;-0,698638916015625;6;454;3,12453880906105E-08;-2,84548848867416E-08;100 nA
-0,750732421875;235,853962404526;-1,751708984375E-09;-0,748626708984375;6;455;3,12453880906105E-08;-2,84548848867416E-08;100 nA
-0,80078125;236,354450403262;-1,46484375E-09;-0,79864501953125;6;456;3,12453880906105E-08;-2,84548848867416E-08;100 nA
-0,850830078125;236,854938401999;-1,2969970703125E-09;-0,848388671875;6;457;3,12453880906105E-08;-2,84548848867416E-08;100 nA
-0,90087890625;237,355426400735;-1,1444091796875E-09;-0,89874267578125;6;458;3,12453880906105E-08;-2,84548848867416E-08;100 nA
-0,950927734375;237,855914399472;-1,1688232421875E-09;-0,948486328125;6;459;3,12453880906105E-08;-2,84548848867416E-08;100 nA
-1,0009765625;238,356402398208;-1,1627197265625E-09;-0,9991455078125;6;460;3,12453880906105E-08;-2,84548848867416E-08;100 nA
-0,950927734375;238,856890396944;-6,2255859375E-10;-0,9490966796875;6;461;3,12453880906105E-08;-2,84548848867416E-08;100 nA
-0,90087890625;239,357378395681;-3,692626953125E-10;-0,8990478515625;6;462;3,12453880906105E-08;-2,84548848867416E-08;100 nA
-0,850830078125;239,857866394417;-2,13623046875E-10;-0,848388671875;6;463;3,12453880906105E-08;-2,84548848867416E-08;100 nA
-0,80078125;240,358354393153;-2,44140625E-11;-0,79833984375;6;464;3,12453880906105E-08;-2,84548848867416E-08;100 nA
-0,750732421875;240,85884239189;1,190185546875E-10;-0,748626708984375;6;465;3,12453880906105E-08;-2,84548848867416E-08;100 nA
-0,70068359375;241,359330390626;3,173828125E-10;-0,6986083984375;6;466;3,12453880906105E-08;-2,84548848867416E-08;100 nA
-0,650634765625;241,859818389363;6,7138671875E-10;-0,6485595703125;6;467;3,12453880906105E-08;-2,84548848867416E-08;100 nA
-0,6005859375;242,360306388099;1,0162353515625E-09;-0,598663330078125;6;468;3,12453880906105E-08;-2,84548848867416E-08;100 nA
-0,550537109375;242,860794386835;1,2420654296875E-09;-0,548736572265625;6;469;3,12453880906105E-08;-2,84548848867416E-08;100 nA
-0,50048828125;243,361282385572;1,318359375E-09;-0,498809814453125;6;470;3,12453880906105E-08;-2,84548848867416E-08;100 nA
-0,450439453125;243,861770384308;1,446533203125E-09;-0,448944091796875;6;471;3,12453880906105E-08;-2,84548848867416E-08;100 nA
-0,400390625;244,362258383045;1,6845703125E-09;-0,3990478515625;6;472;3,12453880906105E-08;-2,84548848867416E-08;100 nA
-0,350341796875;244,862746381781;1,971435546875E-09;-0,34918212890625;6;473;3,12453880906105E-08;-2,84548848867416E-08;100 nA
-0,30029296875;245,363234380517;2,197265625E-09;-0,299163818359375;6;474;3,12453880906105E-08;-2,84548848867416E-08;100 nA
-0,250244140625;245,863722379254;2,2796630859375E-09;-0,24932861328125;6;475;3,12453880906105E-08;-2,84548848867416E-08;100 nA
-0,2001953125;246,36421037799;2,3101806640625E-09;-0,19940185546875;6;476;3,12453880906105E-08;-2,84548848867416E-08;100 nA
-0,150146484375;246,864698376727;2,35595703125E-09;-0,149658203125;6;477;3,12453880906105E-08;-2,84548848867416E-08;100 nA
-0,10009765625;247,365186375463;2,4169921875E-09;-0,0997314453125;6;478;3,12453880906105E-08;-2,84548848867416E-08;100 nA
-0,050048828125;247,865674374199;2,447509765625E-09;-0,0498046875;6;479;3,12453880906105E-08;-2,84548848867416E-08;100 nA
0;248,366162372936;2,5787353515625E-09;0,000140380859374997;6;480;3,12453880906105E-08;-2,84548848867416E-08;100 nA
0,050048828125;248,866650371672;2,813720703125E-09;0,05010986328125;7;481;3,08925658464432E-08;-2,82563269138336E-08;100 nA
0,10009765625;249,367138370409;3,4393310546875E-09;0,100128173828125;7;482;3,08925658464432E-08;-2,82563269138336E-08;100 nA
0,150146484375;249,867626369145;3,13720703125E-09;0,150054931640625;7;483;3,08925658464432E-08;-2,82563269138336E-08;100 nA
0,2001953125;250,368114367881;2,435302734375E-09;0,2000732421875;7;484;3,08925658464432E-08;-2,82563269138336E-08;100 nA
0,250244140625;250,868602366618;2,130126953125E-09;0,250030517578125;7;485;3,08925658464432E-08;-2,82563269138336E-08;100 nA
0,30029296875;251,369090365354;1,9989013671875E-09;0,300079345703125;7;486;3,08925658464432E-08;-2,82563269138336E-08;100 nA
0,350341796875;251,86957836409;1,8585205078125E-09;0,350128173828125;7;487;3,08925658464432E-08;-2,82563269138336E-08;100 nA
0,400390625;252,370066362827;1,666259765625E-09;0,400115966796875;7;488;3,08925658464432E-08;-2,82563269138336E-08;100 nA
0,450439453125;252,870554361563;1,531982421875E-09;0,450103759765625;7;489;3,08925658464432E-08;-2,82563269138336E-08;100 nA
0,50048828125;253,3710423603;1,4068603515625E-09;0,500152587890625;7;490;3,08925658464432E-08;-2,82563269138336E-08;100 nA
0,550537109375;253,871530359036;1,26953125E-09;0,550079345703125;7;491;3,08925658464432E-08;-2,82563269138336E-08;100 nA
0,6005859375;254,372018357772;1,13525390625E-09;0,60009765625;7;492;3,08925658464432E-08;-2,82563269138336E-08;100 nA
0,650634765625;254,872506356509;1,055908203125E-09;0,6500244140625;7;493;3,08925658464432E-08;-2,82563269138336E-08;100 nA
0,70068359375;255,372994355245;9,94873046875E-10;0,699920654296875;7;494;3,08925658464432E-08;-2,82563269138336E-08;100 nA
0,750732421875;255,873482353982;9,552001953125E-10;0,749847412109375;7;495;3,08925658464432E-08;-2,82563269138336E-08;100 nA
0,80078125;256,373970352718;8,941650390625E-10;0,79986572265625;7;496;3,08925658464432E-08;-2,82563269138336E-08;100 nA
0,850830078125;256,874458351454;9,002685546875E-10;0,84930419921875;7;497;3,08925658464432E-08;-2,82563269138336E-08;100 nA
0,90087890625;257,374946350191;1,0162353515625E-09;0,89996337890625;7;498;3,08925658464432E-08;-2,82563269138336E-08;100 nA
0,950927734375;257,875434348927;1,23291015625E-09;0,94940185546875;7;499;3,08925658464432E-08;-2,82563269138336E-08;100 nA
1,0009765625;258,375922347664;1,6357421875E-09;0,9991455078125;7;500;3,08925658464432E-08;-2,82563269138336E-08;100 nA
0,950927734375;258,8764103464;7,62939453125E-10;0,9490966796875;7;501;3,08925658464432E-08;-2,82563269138336E-08;100 nA
0,90087890625;259,376898345136;3,936767578125E-10;0,9002685546875;7;502;3,08925658464432E-08;-2,82563269138336E-08;100 nA
0,850830078125;259,877386343873;2,593994140625E-10;0,8502197265625;7;503;3,08925658464432E-08;-2,82563269138336E-08;100 nA
0,80078125;260,377874342609;1,40380859375E-10;0,799560546875;7;504;3,08925658464432E-08;-2,82563269138336E-08;100 nA
0,750732421875;260,878362341345;1,0986328125E-10;0,749847412109375;7;505;3,08925658464432E-08;-2,82563269138336E-08;100 nA
0,70068359375;261,378850340082;5,4931640625E-11;0,699981689453125;7;506;3,08925658464432E-08;-2,82563269138336E-08;100 nA
0,650634765625;261,879338338818;3,96728515625E-11;0,6500244140625;7;507;3,08925658464432E-08;-2,82563269138336E-08;100 nA
0,6005859375;262,379826337555;-2,13623046875E-11;0,600128173828125;7;508;3,08925658464432E-08;-2,82563269138336E-08;100 nA
0,550537109375;262,880314336291;-8,85009765625E-11;0,5501708984375;7;509;3,08925658464432E-08;-2,82563269138336E-08;100 nA
0,50048828125;263,380802335027;-1,190185546875E-10;0,5001220703125;7;510;3,08925658464432E-08;-2,82563269138336E-08;100 nA
0,450439453125;263,881290333764;-1,373291015625E-10;0,450103759765625;7;511;3,08925658464432E-08;-2,82563269138336E-08;100 nA
0,400390625;264,3817783325;-1,556396484375E-10;0,400115966796875;7;512;3,08925658464432E-08;-2,82563269138336E-08;100 nA
0,350341796875;264,882266331237;-2,227783203125E-10;0,35015869140625;7;513;3,08925658464432E-08;-2,82563269138336E-08;100 nA
0,30029296875;265,382754329973;-3,875732421875E-10;0,30010986328125;7;514;3,08925658464432E-08;-2,82563269138336E-08;100 nA
0,250244140625;265,883242328709;-6,16455078125E-10;0,250091552734375;7;515;3,08925658464432E-08;-2,82563269138336E-08;100 nA
0,2001953125;266,383730327446;-8,087158203125E-10;0,200042724609375;7;516;3,08925658464432E-08;-2,82563269138336E-08;100 nA
0,150146484375;266,884218326182;-1,2664794921875E-09;0,150115966796875;7;517;3,08925658464432E-08;-2,82563269138336E-08;100 nA
0,10009765625;267,384706324919;-3,0731201171875E-09;0,10009765625;7;518;3,08925658464432E-08;-2,82563269138336E-08;100 nA
0,050048828125;267,885194323655;-5,6304931640625E-09;0,050079345703125;7;519;3,08925658464432E-08;-2,82563269138336E-08;100 nA
0;268,385682322391;-3,38134765625E-09;0,0001220703125;7;520;3,08925658464432E-08;-2,82563269138336E-08;100 nA
-0,050048828125;268,886170321128;-2,64892578125E-09;-0,0497314453125;7;521;3,08925658464432E-08;-2,82563269138336E-08;100 nA
-0,10009765625;269,386658319864;-2,4322509765625E-09;-0,099639892578125;7;522;3,08925658464432E-08;-2,82563269138336E-08;100 nA
-0,150146484375;269,8871463186;-2,3468017578125E-09;-0,1495361328125;7;523;3,08925658464432E-08;-2,82563269138336E-08;100 nA
-0,2001953125;270,387634317337;-2,3223876953125E-09;-0,199493408203125;7;524;3,08925658464432E-08;-2,82563269138336E-08;100 nA
-0,250244140625;270,888122316073;-2,33154296875E-09;-0,249298095703125;7;525;3,08925658464432E-08;-2,82563269138336E-08;100 nA
-0,30029296875;271,38861031481;-2,386474609375E-09;-0,299285888671875;7;526;3,08925658464432E-08;-2,82563269138336E-08;100 nA
-0,350341796875;271,889098313546;-2,4139404296875E-09;-0,349212646484375;7;527;3,08925658464432E-08;-2,82563269138336E-08;100 nA
-0,400390625;272,389586312282;-2,3529052734375E-09;-0,39910888671875;7;528;3,08925658464432E-08;-2,82563269138336E-08;100 nA
-0,450439453125;272,890074311019;-2,1820068359375E-09;-0,448974609375;7;529;3,08925658464432E-08;-2,82563269138336E-08;100 nA
-0,50048828125;273,390562309755;-1,98974609375E-09;-0,498809814453125;7;530;3,08925658464432E-08;-2,82563269138336E-08;100 nA
-0,550537109375;273,891050308492;-1,922607421875E-09;-0,548736572265625;7;531;3,08925658464432E-08;-2,82563269138336E-08;100 nA
-0,6005859375;274,391538307228;-2,0294189453125E-09;-0,59869384765625;7;532;3,08925658464432E-08;-2,82563269138336E-08;100 nA
-0,650634765625;274,892026305964;-2,0538330078125E-09;-0,648651123046875;7;533;3,08925658464432E-08;-2,82563269138336E-08;100 nA
-0,70068359375;275,392514304701;-1,9256591796875E-09;-0,6986083984375;7;534;3,08925658464432E-08;-2,82563269138336E-08;100 nA
-0,750732421875;275,893002303437;-1,67236328125E-09;-0,74859619140625;7;535;3,08925658464432E-08;-2,82563269138336E-08;100 nA
-0,80078125;276,393490302174;-1,4739990234375E-09;-0,7989501953125;7;536;3,08925658464432E-08;-2,82563269138336E-08;100 nA
-0,850830078125;276,89397830091;-1,2725830078125E-09;-0,8489990234375;7;537;3,08925658464432E-08;-2,82563269138336E-08;100 nA
-0,90087890625;277,394466299646;-1,1505126953125E-09;-0,89874267578125;7;538;3,08925658464432E-08;-2,82563269138336E-08;100 nA
-0,950927734375;277,894954298383;-1,1199951171875E-09;-0,94879150390625;7;539;3,08925658464432E-08;-2,82563269138336E-08;100 nA
-1,0009765625;278,395442297119;-1,153564453125E-09;-0,9991455078125;7;540;3,08925658464432E-08;-2,82563269138336E-08;100 nA
-0,950927734375;278,895930295855;-6,65283203125E-10;-0,94879150390625;7;541;3,08925658464432E-08;-2,82563269138336E-08;100 nA
-0,90087890625;279,396418294592;-4,08935546875E-10;-0,89874267578125;7;542;3,08925658464432E-08;-2,82563269138336E-08;100 nA
-0,850830078125;279,896906293328;-2,593994140625E-10;-0,84930419921875;7;543;3,08925658464432E-08;-2,82563269138336E-08;100 nA
-0,80078125;280,397394292065;-3,35693359375E-11;-0,79864501953125;7;544;3,08925658464432E-08;-2,82563269138336E-08;100 nA
-0,750732421875;280,897882290801;9,46044921875E-11;-0,748565673828125;7;545;3,08925658464432E-08;-2,82563269138336E-08;100 nA
-0,70068359375;281,398370289537;2,777099609375E-10;-0,698577880859375;7;546;3,08925658464432E-08;-2,82563269138336E-08;100 nA
-0,650634765625;281,898858288274;6,103515625E-10;-0,64862060546875;7;547;3,08925658464432E-08;-2,82563269138336E-08;100 nA
-0,6005859375;282,39934628701;1,0009765625E-09;-0,598602294921875;7;548;3,08925658464432E-08;-2,82563269138336E-08;100 nA
-0,550537109375;282,899834285747;1,202392578125E-09;-0,54876708984375;7;549;3,08925658464432E-08;-2,82563269138336E-08;100 nA
-0,50048828125;283,400322284483;1,312255859375E-09;-0,498809814453125;7;550;3,08925658464432E-08;-2,82563269138336E-08;100 nA
-0,450439453125;283,900810283219;1,470947265625E-09;-0,449005126953125;7;551;3,08925658464432E-08;-2,82563269138336E-08;100 nA
-0,400390625;284,401298281956;1,6815185546875E-09;-0,3990478515625;7;552;3,08925658464432E-08;-2,82563269138336E-08;100 nA
-0,350341796875;284,901786280692;1,9500732421875E-09;-0,349151611328125;7;553;3,08925658464432E-08;-2,82563269138336E-08;100 nA
-0,30029296875;285,402274279429;2,154541015625E-09;-0,29925537109375;7;554;3,08925658464432E-08;-2,82563269138336E-08;100 nA
-0,250244140625;285,902762278165;2,2857666015625E-09;-0,249359130859375;7;555;3,08925658464432E-08;-2,82563269138336E-08;100 nA
-0,2001953125;286,403250276901;2,3162841796875E-09;-0,199432373046875;7;556;3,08925658464432E-08;-2,82563269138336E-08;100 nA
-0,150146484375;286,903738275638;2,410888671875E-09;-0,149566650390625;7;557;3,08925658464432E-08;-2,82563269138336E-08;100 nA
-0,10009765625;287,404226274374;2,4566650390625E-09;-0,09967041015625;7;558;3,08925658464432E-08;-2,82563269138336E-08;100 nA
-0,050048828125;287,90471427311;2,5604248046875E-09;-0,049713134765625;7;559;3,08925658464432E-08;-2,82563269138336E-08;100 nA
0;288,405202271847;2,6702880859375E-09;0,000140380859374997;7;560;3,08925658464432E-08;-2,82563269138336E-08;100 nA
0,050048828125;288,905690270583;2,8656005859375E-09;0,05010986328125;8;561;3,04053351283073E-08;-2,8175376355648E-08;100 nA
0,10009765625;289,40617826932;3,4759521484375E-09;0,10009765625;8;562;3,04053351283073E-08;-2,8175376355648E-08;100 nA
0,150146484375;289,906666268056;3,16162109375E-09;0,1500244140625;8;563;3,04053351283073E-08;-2,8175376355648E-08;100 nA
0,2001953125;290,407154266792;2,447509765625E-09;0,200042724609375;8;564;3,04053351283073E-08;-2,8175376355648E-08;100 nA
0,250244140625;290,907642265529;2,142333984375E-09;0,2501220703125;8;565;3,04053351283073E-08;-2,8175376355648E-08;100 nA
0,30029296875;291,408130264265;2,0111083984375E-09;0,300140380859375;8;566;3,04053351283073E-08;-2,8175376355648E-08;100 nA
0,350341796875;291,908618263002;1,873779296875E-09;0,35009765625;8;567;3,04053351283073E-08;-2,8175376355648E-08;100 nA
0,400390625;292,409106261738;1,702880859375E-09;0,400115966796875;8;568;3,04053351283073E-08;-2,8175376355648E-08;100 nA
0,450439453125;292,909594260474;1,556396484375E-09;0,45013427734375;8;569;3,04053351283073E-08;-2,8175376355648E-08;100 nA
0,50048828125;293,410082259211;1,4251708984375E-09;0,500091552734375;8;570;3,04053351283073E-08;-2,8175376355648E-08;100 nA
0,550537109375;293,910570257947;1,2969970703125E-09;0,55010986328125;8;571;3,04053351283073E-08;-2,8175376355648E-08;100 nA
0,6005859375;294,411058256684;1,20849609375E-09;0,60009765625;8;572;3,04053351283073E-08;-2,8175376355648E-08;100 nA
0,650634765625;294,91154625542;1,123046875E-09;0,649993896484375;8;573;3,04053351283073E-08;-2,8175376355648E-08;100 nA
0,70068359375;295,412034254156;1,0498046875E-09;0,699981689453125;8;574;3,04053351283073E-08;-2,8175376355648E-08;100 nA
0,750732421875;295,912522252893;9,82666015625E-10;0,749847412109375;8;575;3,04053351283073E-08;-2,8175376355648E-08;100 nA
0,80078125;296,413010251629;9,3994140625E-10;0,8001708984375;8;576;3,04053351283073E-08;-2,8175376355648E-08;100 nA
0,850830078125;296,913498250365;8,85009765625E-10;0,8502197265625;8;577;3,04053351283073E-08;-2,8175376355648E-08;100 nA
0,90087890625;297,413986249102;1,01318359375E-09;0,9002685546875;8;578;3,04053351283073E-08;-2,8175376355648E-08;100 nA
0,950927734375;297,914474247838;1,2115478515625E-09;0,95001220703125;8;579;3,04053351283073E-08;-2,8175376355648E-08;100 nA
1,0009765625;298,414962246575;1,568603515625E-09;0,999755859375;8;580;3,04053351283073E-08;-2,8175376355648E-08;100 nA
0,950927734375;298,915450245311;6,53076171875E-10;0,94940185546875;8;581;3,04053351283073E-08;-2,8175376355648E-08;100 nA
0,90087890625;299,415938244047;2,593994140625E-10;0,899658203125;8;582;3,04053351283073E-08;-2,8175376355648E-08;100 nA
0,850830078125;299,916426242784;1,129150390625E-10;0,84991455078125;8;583;3,04053351283073E-08;-2,8175376355648E-08;100 nA
0,80078125;300,41691424152;2,13623046875E-11;0,79986572265625;8;584;3,04053351283073E-08;-2,8175376355648E-08;100 nA
0,750732421875;300,917402240257;3,0517578125E-12;0,74981689453125;8;585;3,04053351283073E-08;-2,8175376355648E-08;100 nA
0,70068359375;301,417890238993;-4,8828125E-11;0,699859619140625;8;586;3,04053351283073E-08;-2,8175376355648E-08;100 nA
0,650634765625;301,918378237729;-1,007080078125E-10;0,6500244140625;8;587;3,04053351283073E-08;-2,8175376355648E-08;100 nA
0,6005859375;302,418866236466;-1,800537109375E-10;0,600128173828125;8;588;3,04053351283073E-08;-2,8175376355648E-08;100 nA
0,550537109375;302,919354235202;-1,617431640625E-10;0,550048828125;8;589;3,04053351283073E-08;-2,8175376355648E-08;100 nA
0,50048828125;303,419842233939;-1,312255859375E-10;0,500091552734375;8;590;3,04053351283073E-08;-2,8175376355648E-08;100 nA
0,450439453125;303,920330232675;-2,0751953125E-10;0,45001220703125;8;591;3,04053351283073E-08;-2,8175376355648E-08;100 nA
0,400390625;304,420818231411;-2,25830078125E-10;0,400115966796875;8;592;3,04053351283073E-08;-2,8175376355648E-08;100 nA
0,350341796875;304,921306230148;-2,899169921875E-10;0,35015869140625;8;593;3,04053351283073E-08;-2,8175376355648E-08;100 nA
0,30029296875;305,421794228884;-4,302978515625E-10;0,30010986328125;8;594;3,04053351283073E-08;-2,8175376355648E-08;100 nA
0,250244140625;305,92228222762;-6,011962890625E-10;0,250091552734375;8;595;3,04053351283073E-08;-2,8175376355648E-08;100 nA
0,2001953125;306,422770226357;-7,87353515625E-10;0,200103759765625;8;596;3,04053351283073E-08;-2,8175376355648E-08;100 nA
0,150146484375;306,923258225093;-1,2298583984375E-09;0,15008544921875;8;597;3,04053351283073E-08;-2,8175376355648E-08;100 nA
0,10009765625;307,42374622383;-2,99072265625E-09;0,100128173828125;8;598;3,04053351283073E-08;-2,8175376355648E-08;100 nA
0,050048828125;307,924234222566;-5,657958984375E-09;0,050140380859375;8;599;3,04053351283073E-08;-2,8175376355648E-08;100 nA
0;308,424722221302;-3,363037109375E-09;0,000128173828124994;8;600;3,04053351283073E-08;-2,8175376355648E-08;100 nA
-0,050048828125;308,925210220039;-2,581787109375E-09;-0,049725341796875;8;601;3,04053351283073E-08;-2,8175376355648E-08;100 nA
-0,10009765625;309,425698218775;-2,3590087890625E-09;-0,09967041015625;8;602;3,04053351283073E-08;-2,8175376355648E-08;100 nA
-0,150146484375;309,926186217512;-2,2705078125E-09;-0,1495361328125;8;603;3,04053351283073E-08;-2,8175376355648E-08;100 nA
-0,2001953125;310,426674216248;-2,252197265625E-09;-0,199462890625;8;604;3,04053351283073E-08;-2,8175376355648E-08;100 nA
-0,250244140625;310,927162214984;-2,288818359375E-09;-0,249298095703125;8;605;3,04053351283073E-08;-2,8175376355648E-08;100 nA
-0,30029296875;311,427650213721;-2,337646484375E-09;-0,299224853515625;8;606;3,04053351283073E-08;-2,8175376355648E-08;100 nA
-0,350341796875;311,928138212457;-2,374267578125E-09;-0,34918212890625;8;607;3,04053351283073E-08;-2,8175376355648E-08;100 nA
-0,400390625;312,428626211194;-2,301025390625E-09;-0,399139404296875;8;608;3,04053351283073E-08;-2,8175376355648E-08;100 nA
-0,450439453125;312,92911420993;-2,1331787109375E-09;-0,448944091796875;8;609;3,04053351283073E-08;-2,8175376355648E-08;100 nA
-0,50048828125;313,429602208666;-1,983642578125E-09;-0,49884033203125;8;610;3,04053351283073E-08;-2,8175376355648E-08;100 nA
-0,550537109375;313,930090207403;-1,9195556640625E-09;-0,54876708984375;8;611;3,04053351283073E-08;-2,8175376355648E-08;100 nA
-0,6005859375;314,430578206139;-2,001953125E-09;-0,598663330078125;8;612;3,04053351283073E-08;-2,8175376355648E-08;100 nA
-0,650634765625;314,931066204875;-2,0416259765625E-09;-0,64862060546875;8;613;3,04053351283073E-08;-2,8175376355648E-08;100 nA
-0,70068359375;315,431554203612;-1,898193359375E-09;-0,6986083984375;8;614;3,04053351283073E-08;-2,8175376355648E-08;100 nA
-0,750732421875;315,932042202348;-1,62353515625E-09;-0,74859619140625;8;615;3,04053351283073E-08;-2,8175376355648E-08;100 nA
-0,80078125;316,432530201085;-1,3824462890625E-09;-0,79864501953125;8;616;3,04053351283073E-08;-2,8175376355648E-08;100 nA
-0,850830078125;316,933018199821;-1,220703125E-09;-0,84869384765625;8;617;3,04053351283073E-08;-2,8175376355648E-08;100 nA
-0,90087890625;317,433506198557;-1,11083984375E-09;-0,8990478515625;8;618;3,04053351283073E-08;-2,8175376355648E-08;100 nA
-0,950927734375;317,933994197294;-1,0833740234375E-09;-0,94879150390625;8;619;3,04053351283073E-08;-2,8175376355648E-08;100 nA
-1,0009765625;318,43448219603;-1,1474609375E-09;-0,99884033203125;8;620;3,04053351283073E-08;-2,8175376355648E-08;100 nA
-0,950927734375;318,934970194767;-6,805419921875E-10;-0,948486328125;8;621;3,04053351283073E-08;-2,8175376355648E-08;100 nA
-0,90087890625;319,435458193503;-4,669189453125E-10;-0,8990478515625;8;622;3,04053351283073E-08;-2,8175376355648E-08;100 nA
-0,850830078125;319,935946192239;-2,99072265625E-10;-0,8489990234375;8;623;3,04053351283073E-08;-2,8175376355648E-08;100 nA
-0,80078125;320,436434190976;-1,312255859375E-10;-0,79833984375;8;624;3,04053351283073E-08;-2,8175376355648E-08;100 nA
-0,750732421875;320,936922189712;2,13623046875E-11;-0,748626708984375;8;625;3,04053351283073E-08;-2,8175376355648E-08;100 nA
-0,70068359375;321,437410188449;1,617431640625E-10;-0,6986083984375;8;626;3,04053351283073E-08;-2,8175376355648E-08;100 nA
-0,650634765625;321,937898187185;5,31005859375E-10;-0,648651123046875;8;627;3,04053351283073E-08;-2,8175376355648E-08;100 nA
-0,6005859375;322,438386185921;9,09423828125E-10;-0,598663330078125;8;628;3,04053351283073E-08;-2,8175376355648E-08;100 nA
-0,550537109375;322,938874184658;1,13525390625E-09;-0,5487060546875;8;629;3,04053351283073E-08;-2,8175376355648E-08;100 nA
-0,50048828125;323,439362183394;1,312255859375E-09;-0,49884033203125;8;630;3,04053351283073E-08;-2,8175376355648E-08;100 nA
-0,450439453125;323,939850182131;1,42822265625E-09;-0,448944091796875;8;631;3,04053351283073E-08;-2,8175376355648E-08;100 nA
-0,400390625;324,440338180867;1,64794921875E-09;-0,3990478515625;8;632;3,04053351283073E-08;-2,8175376355648E-08;100 nA
-0,350341796875;324,940826179603;1,9256591796875E-09;-0,34918212890625;8;633;3,04053351283073E-08;-2,8175376355648E-08;100 nA
-0,30029296875;325,44131417834;2,1240234375E-09;-0,299224853515625;8;634;3,04053351283073E-08;-2,8175376355648E-08;100 nA
-0,250244140625;325,941802177076;2,2857666015625E-09;-0,249298095703125;8;635;3,04053351283073E-08;-2,8175376355648E-08;100 nA
-0,2001953125;326,442290175812;2,3345947265625E-09;-0,199432373046875;8;636;3,04053351283073E-08;-2,8175376355648E-08;100 nA
-0,150146484375;326,942778174549;2,3834228515625E-09;-0,1495361328125;8;637;3,04053351283073E-08;-2,8175376355648E-08;100 nA
-0,10009765625;327,443266173285;2,4322509765625E-09;-0,099700927734375;8;638;3,04053351283073E-08;-2,8175376355648E-08;100 nA
-0,050048828125;327,943754172022;2,490234375E-09;-0,0497161865234375;8;639;3,04053351283073E-08;-2,8175376355648E-08;100 nA
0;328,444242170758;2,63671875E-09;0,000134277343750003;8;640;3,04053351283073E-08;-2,8175376355648E-08;100 nA
0,050048828125;328,944730169494;2,880859375E-09;0,05010986328125;9;641;3,02556529641151E-08;-2,7848519384861E-08;100 nA
0,10009765625;329,445218168231;3,521728515625E-09;0,100128173828125;9;642;3,02556529641151E-08;-2,7848519384861E-08;100 nA
0,150146484375;329,945706166967;3,216552734375E-09;0,150054931640625;9;643;3,02556529641151E-08;-2,7848519384861E-08;100 nA
0,2001953125;330,446194165704;2,5482177734375E-09;0,200103759765625;9;644;3,02556529641151E-08;-2,7848519384861E-08;100 nA
0,250244140625;330,94668216444;2,2186279296875E-09;0,250152587890625;9;645;3,02556529641151E-08;-2,7848519384861E-08;100 nA
0,30029296875;331,447170163176;2,03857421875E-09;0,300140380859375;9;646;3,02556529641151E-08;-2,7848519384861E-08;100 nA
0,350341796875;331,947658161913;1,9012451171875E-09;0,350128173828125;9;647;3,02556529641151E-08;-2,7848519384861E-08;100 nA
0,400390625;332,448146160649;1,727294921875E-09;0,400146484375;9;648;3,02556529641151E-08;-2,7848519384861E-08;100 nA
0,450439453125;332,948634159386;1,5655517578125E-09;0,450164794921875;9;649;3,02556529641151E-08;-2,7848519384861E-08;100 nA
0,50048828125;333,449122158122;1,4617919921875E-09;0,500152587890625;9;650;3,02556529641151E-08;-2,7848519384861E-08;100 nA
0,550537109375;333,949610156858;1,3153076171875E-09;0,55010986328125;9;651;3,02556529641151E-08;-2,7848519384861E-08;100 nA
0,6005859375;334,450098155595;1,2237548828125E-09;0,600128173828125;9;652;3,02556529641151E-08;-2,7848519384861E-08;100 nA
0,650634765625;334,950586154331;1,1322021484375E-09;0,6500244140625;9;653;3,02556529641151E-08;-2,7848519384861E-08;100 nA
0,70068359375;335,451074153067;1,0589599609375E-09;0,699981689453125;9;654;3,02556529641151E-08;-2,7848519384861E-08;100 nA
0,750732421875;335,951562151804;9,918212890625E-10;0,749847412109375;9;655;3,02556529641151E-08;-2,7848519384861E-08;100 nA
0,80078125;336,45205015054;9,46044921875E-10;0,79986572265625;9;656;3,02556529641151E-08;-2,7848519384861E-08;100 nA
0,850830078125;336,952538149277;9,368896484375E-10;0,84991455078125;9;657;3,02556529641151E-08;-2,7848519384861E-08;100 nA
0,90087890625;337,453026148013;1,0162353515625E-09;0,89996337890625;9;658;3,02556529641151E-08;-2,7848519384861E-08;100 nA
0,950927734375;337,953514146749;1,2420654296875E-09;0,94940185546875;9;659;3,02556529641151E-08;-2,7848519384861E-08;100 nA
1,0009765625;338,454002145486;1,6143798828125E-09;0,99945068359375;9;660;3,02556529641151E-08;-2,7848519384861E-08;100 nA
0,950927734375;338,954490144222;6,89697265625E-10;0,94970703125;9;661;3,02556529641151E-08;-2,7848519384861E-08;100 nA
0,90087890625;339,454978142959;3,875732421875E-10;0,89996337890625;9;662;3,02556529641151E-08;-2,7848519384861E-08;100 nA
0,850830078125;339,955466141695;1,617431640625E-10;0,849609375;9;663;3,02556529641151E-08;-2,7848519384861E-08;100 nA
0,80078125;340,455954140431;2,44140625E-11;0,799560546875;9;664;3,02556529641151E-08;-2,7848519384861E-08;100 nA
0,750732421875;340,956442139168;-6,103515625E-12;0,749847412109375;9;665;3,02556529641151E-08;-2,7848519384861E-08;100 nA
0,70068359375;341,456930137904;-2,74658203125E-11;0,69989013671875;9;666;3,02556529641151E-08;-2,7848519384861E-08;100 nA
0,650634765625;341,957418136641;-9,46044921875E-11;0,65008544921875;9;667;3,02556529641151E-08;-2,7848519384861E-08;100 nA
0,6005859375;342,457906135377;-1,556396484375E-10;0,600067138671875;9;668;3,02556529641151E-08;-2,7848519384861E-08;100 nA
0,550537109375;342,958394134113;-2,25830078125E-10;0,55010986328125;9;669;3,02556529641151E-08;-2,7848519384861E-08;100 nA
0,50048828125;343,45888213285;-2,38037109375E-10;0,50006103515625;9;670;3,02556529641151E-08;-2,7848519384861E-08;100 nA
0,450439453125;343,959370131586;-2,685546875E-10;0,450042724609375;9;671;3,02556529641151E-08;-2,7848519384861E-08;100 nA
0,400390625;344,459858130322;-3,35693359375E-10;0,40008544921875;9;672;3,02556529641151E-08;-2,7848519384861E-08;100 nA
0,350341796875;344,960346129059;-3,84521484375E-10;0,35015869140625;9;673;3,02556529641151E-08;-2,7848519384861E-08;100 nA
0,30029296875;345,460834127795;-5,706787109375E-10;0,300018310546875;9;674;3,02556529641151E-08;-2,7848519384861E-08;100 nA
0,250244140625;345,961322126532;-7,049560546875E-10;0,25006103515625;9;675;3,02556529641151E-08;-2,7848519384861E-08;100 nA
0,2001953125;346,461810125268;-8,6669921875E-10;0,2000732421875;9;676;3,02556529641151E-08;-2,7848519384861E-08;100 nA
0,150146484375;346,962298124004;-1,2786865234375E-09;0,15008544921875;9;677;3,02556529641151E-08;-2,7848519384861E-08;100 nA
0,10009765625;347,462786122741;-3,009033203125E-09;0,10009765625;9;678;3,02556529641151E-08;-2,7848519384861E-08;100 nA
0,050048828125;347,963274121477;-5,7220458984375E-09;0,050140380859375;9;679;3,02556529641151E-08;-2,7848519384861E-08;100 nA
0;348,463762120214;-3,4210205078125E-09;0,000131225585937506;9;680;3,02556529641151E-08;-2,7848519384861E-08;100 nA
-0,050048828125;348,96425011895;-2,6275634765625E-09;-0,049774169921875;9;681;3,02556529641151E-08;-2,7848519384861E-08;100 nA
-0,10009765625;349,464738117686;-2,4200439453125E-09;-0,099639892578125;9;682;3,02556529641151E-08;-2,7848519384861E-08;100 nA
-0,150146484375;349,965226116423;-2,2857666015625E-09;-0,149505615234375;9;683;3,02556529641151E-08;-2,7848519384861E-08;100 nA
-0,2001953125;350,465714115159;-2,25830078125E-09;-0,199432373046875;9;684;3,02556529641151E-08;-2,7848519384861E-08;100 nA
-0,250244140625;350,966202113896;-2,239990234375E-09;-0,249298095703125;9;685;3,02556529641151E-08;-2,7848519384861E-08;100 nA
-0,30029296875;351,466690112632;-2,294921875E-09;-0,29925537109375;9;686;3,02556529641151E-08;-2,7848519384861E-08;100 nA
-0,350341796875;351,967178111368;-2,3406982421875E-09;-0,349151611328125;9;687;3,02556529641151E-08;-2,7848519384861E-08;100 nA
-0,400390625;352,467666110105;-2,197265625E-09;-0,3990478515625;9;688;3,02556529641151E-08;-2,7848519384861E-08;100 nA
-0,450439453125;352,968154108841;-2,0965576171875E-09;-0,448944091796875;9;689;3,02556529641151E-08;-2,7848519384861E-08;100 nA
-0,50048828125;353,468642107577;-1,8768310546875E-09;-0,49884033203125;9;690;3,02556529641151E-08;-2,7848519384861E-08;100 nA
-0,550537109375;353,969130106314;-1,812744140625E-09;-0,548736572265625;9;691;3,02556529641151E-08;-2,7848519384861E-08;100 nA
-0,6005859375;354,46961810505;-1,8829345703125E-09;-0,598602294921875;9;692;3,02556529641151E-08;-2,7848519384861E-08;100 nA
-0,650634765625;354,970106103787;-1,9317626953125E-09;-0,648590087890625;9;693;3,02556529641151E-08;-2,7848519384861E-08;100 nA
-0,70068359375;355,470594102523;-1,806640625E-09;-0,69854736328125;9;694;3,02556529641151E-08;-2,7848519384861E-08;100 nA
-0,750732421875;355,971082101259;-1,5594482421875E-09;-0,748565673828125;9;695;3,02556529641151E-08;-2,7848519384861E-08;100 nA
-0,80078125;356,471570099996;-1,2451171875E-09;-0,79864501953125;9;696;3,02556529641151E-08;-2,7848519384861E-08;100 nA
-0,850830078125;356,972058098732;-1,13525390625E-09;-0,84869384765625;9;697;3,02556529641151E-08;-2,7848519384861E-08;100 nA
-0,90087890625;357,472546097469;-1,043701171875E-09;-0,8990478515625;9;698;3,02556529641151E-08;-2,7848519384861E-08;100 nA
-0,950927734375;357,973034096205;-1,01318359375E-09;-0,94879150390625;9;699;3,02556529641151E-08;-2,7848519384861E-08;100 nA
-1,0009765625;358,473522094941;-1,068115234375E-09;-0,99884033203125;9;700;3,02556529641151E-08;-2,7848519384861E-08;100 nA
-0,950927734375;358,974010093678;-5,79833984375E-10;-0,94818115234375;9;701;3,02556529641151E-08;-2,7848519384861E-08;100 nA
-0,90087890625;359,474498092414;-3,72314453125E-10;-0,89874267578125;9;702;3,02556529641151E-08;-2,7848519384861E-08;100 nA
-0,850830078125;359,974986091151;-1,8310546875E-10;-0,84869384765625;9;703;3,02556529641151E-08;-2,7848519384861E-08;100 nA
-0,80078125;360,475474089887;-6,103515625E-11;-0,7989501953125;9;704;3,02556529641151E-08;-2,7848519384861E-08;100 nA
-0,750732421875;360,975962088623;5,79833984375E-11;-0,74859619140625;9;705;3,02556529641151E-08;-2,7848519384861E-08;100 nA
-0,70068359375;361,47645008736;2,288818359375E-10;-0,6986083984375;9;706;3,02556529641151E-08;-2,7848519384861E-08;100 nA
-0,650634765625;361,976938086096;5,4931640625E-10;-0,64862060546875;9;707;3,02556529641151E-08;-2,7848519384861E-08;100 nA
-0,6005859375;362,477426084832;9,124755859375E-10;-0,598663330078125;9;708;3,02556529641151E-08;-2,7848519384861E-08;100 nA
-0,550537109375;362,977914083569;1,129150390625E-09;-0,54876708984375;9;709;3,02556529641151E-08;-2,7848519384861E-08;100 nA
-0,50048828125;363,478402082305;1,239013671875E-09;-0,49884033203125;9;710;3,02556529641151E-08;-2,7848519384861E-08;100 nA
-0,450439453125;363,978890081042;1,361083984375E-09;-0,448974609375;9;711;3,02556529641151E-08;-2,7848519384861E-08;100 nA
-0,400390625;364,479378079778;1,568603515625E-09;-0,39910888671875;9;712;3,02556529641151E-08;-2,7848519384861E-08;100 nA
-0,350341796875;364,979866078514;1,84326171875E-09;-0,349151611328125;9;713;3,02556529641151E-08;-2,7848519384861E-08;100 nA
-0,30029296875;365,480354077251;2,03857421875E-09;-0,299224853515625;9;714;3,02556529641151E-08;-2,7848519384861E-08;100 nA
-0,250244140625;365,980842075987;2,142333984375E-09;-0,2493896484375;9;715;3,02556529641151E-08;-2,7848519384861E-08;100 nA
-0,2001953125;366,481330074724;2,166748046875E-09;-0,199462890625;9;716;3,02556529641151E-08;-2,7848519384861E-08;100 nA
-0,150146484375;366,98181807346;2,2247314453125E-09;-0,14959716796875;9;717;3,02556529641151E-08;-2,7848519384861E-08;100 nA
-0,10009765625;367,482306072196;2,3040771484375E-09;-0,099639892578125;9;718;3,02556529641151E-08;-2,7848519384861E-08;100 nA
-0,050048828125;367,982794070933;2,3406982421875E-09;-0,049835205078125;9;719;3,02556529641151E-08;-2,7848519384861E-08;100 nA
0;368,483282069669;2,5238037109375E-09;0,000143432617187494;9;720;3,02556529641151E-08;-2,7848519384861E-08;100 nA
0,050048828125;368,983770068406;2,74658203125E-09;0,050018310546875;10;721;3,03732603788376E-08;-2,80073657631874E-08;100 nA
0,10009765625;369,484258067142;3,3935546875E-09;0,100067138671875;10;722;3,03732603788376E-08;-2,80073657631874E-08;100 nA
0,150146484375;369,984746065878;3,0792236328125E-09;0,150054931640625;10;723;3,03732603788376E-08;-2,80073657631874E-08;100 nA
0,2001953125;370,485234064615;2,3284912109375E-09;0,200042724609375;10;724;3,03732603788376E-08;-2,80073657631874E-08;100 nA
0,250244140625;370,985722063351;2,1026611328125E-09;0,250091552734375;10;725;3,03732603788376E-08;-2,80073657631874E-08;100 nA
0,30029296875;371,486210062087;1,96533203125E-09;0,300018310546875;10;726;3,03732603788376E-08;-2,80073657631874E-08;100 nA
0,350341796875;371,986698060824;1,85546875E-09;0,350067138671875;10;727;3,03732603788376E-08;-2,80073657631874E-08;100 nA
0,400390625;372,48718605956;1,7059326171875E-09;0,400115966796875;10;728;3,03732603788376E-08;-2,80073657631874E-08;100 nA
0,450439453125;372,987674058297;1,5716552734375E-09;0,450103759765625;10;729;3,03732603788376E-08;-2,80073657631874E-08;100 nA
0,50048828125;373,488162057033;1,45263671875E-09;0,500091552734375;10;730;3,03732603788376E-08;-2,80073657631874E-08;100 nA
0,550537109375;373,988650055769;1,3336181640625E-09;0,55010986328125;10;731;3,03732603788376E-08;-2,80073657631874E-08;100 nA
0,6005859375;374,489138054506;1,2786865234375E-09;0,60009765625;10;732;3,03732603788376E-08;-2,80073657631874E-08;100 nA
0,650634765625;374,989626053242;1,171875E-09;0,6500244140625;10;733;3,03732603788376E-08;-2,80073657631874E-08;100 nA
0,70068359375;375,490114051979;1,092529296875E-09;0,699951171875;10;734;3,03732603788376E-08;-2,80073657631874E-08;100 nA
0,750732421875;375,990602050715;1,043701171875E-09;0,7498779296875;10;735;3,03732603788376E-08;-2,80073657631874E-08;100 nA
0,80078125;376,491090049451;9,796142578125E-10;0,79986572265625;10;736;3,03732603788376E-08;-2,80073657631874E-08;100 nA
0,850830078125;376,991578048188;1,0009765625E-09;0,84991455078125;10;737;3,03732603788376E-08;-2,80073657631874E-08;100 nA
0,90087890625;377,492066046924;1,1199951171875E-09;0,9002685546875;10;738;3,03732603788376E-08;-2,80073657631874E-08;100 nA
0,950927734375;377,992554045661;1,373291015625E-09;0,95001220703125;10;739;3,03732603788376E-08;-2,80073657631874E-08;100 nA
1,0009765625;378,493042044397;1,72119140625E-09;1,00006103515625;10;740;3,03732603788376E-08;-2,80073657631874E-08;100 nA
0,950927734375;378,993530043133;7,87353515625E-10;0,94970703125;10;741;3,03732603788376E-08;-2,80073657631874E-08;100 nA
0,90087890625;379,49401804187;3,997802734375E-10;0,89996337890625;10;742;3,03732603788376E-08;-2,80073657631874E-08;100 nA
0,850830078125;379,994506040606;2,166748046875E-10;0,849609375;10;743;3,03732603788376E-08;-2,80073657631874E-08;100 nA
0,80078125;380,494994039342;1,3427734375E-10;0,8001708984375;10;744;3,03732603788376E-08;-2,80073657631874E-08;100 nA
0,750732421875;380,995482038079;6,40869140625E-11;0,7498779296875;10;745;3,03732603788376E-08;-2,80073657631874E-08;100 nA
0,70068359375;381,495970036815;-3,0517578125E-12;0,699981689453125;10;746;3,03732603788376E-08;-2,80073657631874E-08;100 nA
0,650634765625;381,996458035552;-4,8828125E-11;0,6500244140625;10;747;3,03732603788376E-08;-2,80073657631874E-08;100 nA
0,6005859375;382,496946034288;-1,40380859375E-10;0,60009765625;10;748;3,03732603788376E-08;-2,80073657631874E-08;100 nA
0,550537109375;382,997434033024;-1,251220703125E-10;0,550140380859375;10;749;3,03732603788376E-08;-2,80073657631874E-08;100 nA
0,50048828125;383,497922031761;-1,64794921875E-10;0,500091552734375;10;750;3,03732603788376E-08;-2,80073657631874E-08;100 nA
0,450439453125;383,998410030497;-2,13623046875E-10;0,4500732421875;10;751;3,03732603788376E-08;-2,80073657631874E-08;100 nA
0,400390625;384,498898029234;-2,593994140625E-10;0,40008544921875;10;752;3,03732603788376E-08;-2,80073657631874E-08;100 nA
0,350341796875;384,99938602797;-3,448486328125E-10;0,350128173828125;10;753;3,03732603788376E-08;-2,80073657631874E-08;100 nA
0,30029296875;385,499874026706;-4,913330078125E-10;0,300048828125;10;754;3,03732603788376E-08;-2,80073657631874E-08;100 nA
0,250244140625;386,000362025443;-6,77490234375E-10;0,25006103515625;10;755;3,03732603788376E-08;-2,80073657631874E-08;100 nA
0,2001953125;386,500850024179;-8,758544921875E-10;0,2000732421875;10;756;3,03732603788376E-08;-2,80073657631874E-08;100 nA
0,150146484375;387,001338022916;-1,28173828125E-09;0,15008544921875;10;757;3,03732603788376E-08;-2,80073657631874E-08;100 nA
0,10009765625;387,501826021652;-3,0303955078125E-09;0,10009765625;10;758;3,03732603788376E-08;-2,80073657631874E-08;100 nA
0,050048828125;388,002314020388;-5,82275390625E-09;0,050079345703125;10;759;3,03732603788376E-08;-2,80073657631874E-08;100 nA
0;388,502802019125;-3,558349609375E-09;0,000125122070312497;10;760;3,03732603788376E-08;-2,80073657631874E-08;100 nA
-0,050048828125;389,003290017861;-2,7618408203125E-09;-0,049774169921875;10;761;3,03732603788376E-08;-2,80073657631874E-08;100 nA
-0,10009765625;389,503778016597;-2,5482177734375E-09;-0,099761962890625;10;762;3,03732603788376E-08;-2,80073657631874E-08;100 nA
-0,150146484375;390,004266015334;-2,3895263671875E-09;-0,149627685546875;10;763;3,03732603788376E-08;-2,80073657631874E-08;100 nA
-0,2001953125;390,50475401407;-2,3590087890625E-09;-0,199462890625;10;764;3,03732603788376E-08;-2,80073657631874E-08;100 nA
-0,250244140625;391,005242012807;-2,3284912109375E-09;-0,249359130859375;10;765;3,03732603788376E-08;-2,80073657631874E-08;100 nA
-0,30029296875;391,505730011543;-2,374267578125E-09;-0,29925537109375;10;766;3,03732603788376E-08;-2,80073657631874E-08;100 nA
-0,350341796875;392,006218010279;-2,4017333984375E-09;-0,349212646484375;10;767;3,03732603788376E-08;-2,80073657631874E-08;100 nA
-0,400390625;392,506706009016;-2,30712890625E-09;-0,39910888671875;10;768;3,03732603788376E-08;-2,80073657631874E-08;100 nA
-0,450439453125;393,007194007752;-2,0751953125E-09;-0,448944091796875;10;769;3,03732603788376E-08;-2,80073657631874E-08;100 nA
-0,50048828125;393,507682006489;-1,9195556640625E-09;-0,498870849609375;10;770;3,03732603788376E-08;-2,80073657631874E-08;100 nA
-0,550537109375;394,008170005225;-1,837158203125E-09;-0,54876708984375;10;771;3,03732603788376E-08;-2,80073657631874E-08;100 nA
-0,6005859375;394,508658003961;-1,9073486328125E-09;-0,598602294921875;10;772;3,03732603788376E-08;-2,80073657631874E-08;100 nA
-0,650634765625;395,009146002698;-1,947021484375E-09;-0,6485595703125;10;773;3,03732603788376E-08;-2,80073657631874E-08;100 nA
-0,70068359375;395,509634001434;-1,8157958984375E-09;-0,698577880859375;10;774;3,03732603788376E-08;-2,80073657631874E-08;100 nA
-0,750732421875;396,010122000171;-1,5289306640625E-09;-0,74859619140625;10;775;3,03732603788376E-08;-2,80073657631874E-08;100 nA
-0,80078125;396,510609998907;-1,2542724609375E-09;-0,7989501953125;10;776;3,03732603788376E-08;-2,80073657631874E-08;100 nA
-0,850830078125;397,011097997643;-1,055908203125E-09;-0,84869384765625;10;777;3,03732603788376E-08;-2,80073657631874E-08;100 nA
-0,90087890625;397,51158599638;-9,6435546875E-10;-0,8984375;10;778;3,03732603788376E-08;-2,80073657631874E-08;100 nA
-0,950927734375;398,012073995116;-9,796142578125E-10;-0,9490966796875;10;779;3,03732603788376E-08;-2,80073657631874E-08;100 nA
-1,0009765625;398,512561993853;-1,043701171875E-09;-0,99853515625;10;780;3,03732603788376E-08;-2,80073657631874E-08;100 nA
-0,950927734375;399,013049992589;-5,37109375E-10;-0,9490966796875;10;781;3,03732603788376E-08;-2,80073657631874E-08;100 nA
-0,90087890625;399,513537991325;-3,35693359375E-10;-0,8990478515625;10;782;3,03732603788376E-08;-2,80073657631874E-08;100 nA
-0,850830078125;400,014025990062;-2,01416015625E-10;-0,848388671875;10;783;3,03732603788376E-08;-2,80073657631874E-08;100 nA
-0,80078125;400,514513988798;-4,8828125E-11;-0,7989501953125;10;784;3,03732603788376E-08;-2,80073657631874E-08;100 nA
-0,750732421875;401,015001987534;6,7138671875E-11;-0,748565673828125;10;785;3,03732603788376E-08;-2,80073657631874E-08;100 nA
-0,70068359375;401,515489986271;2,410888671875E-10;-0,6986083984375;10;786;3,03732603788376E-08;-2,80073657631874E-08;100 nA
-0,650634765625;402,015977985007;5,523681640625E-10;-0,648590087890625;10;787;3,03732603788376E-08;-2,80073657631874E-08;100 nA
-0,6005859375;402,516465983744;9,063720703125E-10;-0,5986328125;10;788;3,03732603788376E-08;-2,80073657631874E-08;100 nA
-0,550537109375;403,01695398248;1,129150390625E-09;-0,548797607421875;10;789;3,03732603788376E-08;-2,80073657631874E-08;100 nA
-0,50048828125;403,517441981216;1,2939453125E-09;-0,4989013671875;10;790;3,03732603788376E-08;-2,80073657631874E-08;100 nA
-0,450439453125;404,017929979953;1,3824462890625E-09;-0,448974609375;10;791;3,03732603788376E-08;-2,80073657631874E-08;100 nA
-0,400390625;404,518417978689;1,57470703125E-09;-0,3990478515625;10;792;3,03732603788376E-08;-2,80073657631874E-08;100 nA
-0,350341796875;405,018905977426;1,8402099609375E-09;-0,349212646484375;10;793;3,03732603788376E-08;-2,80073657631874E-08;100 nA
-0,30029296875;405,519393976162;2,0355224609375E-09;-0,29925537109375;10;794;3,03732603788376E-08;-2,80073657631874E-08;100 nA
-0,250244140625;406,019881974898;2,1575927734375E-09;-0,249298095703125;10;795;3,03732603788376E-08;-2,80073657631874E-08;100 nA
-0,2001953125;406,520369973635;2,1728515625E-09;-0,199493408203125;10;796;3,03732603788376E-08;-2,80073657631874E-08;100 nA
-0,150146484375;407,020857972371;2,24609375E-09;-0,149566650390625;10;797;3,03732603788376E-08;-2,80073657631874E-08;100 nA
-0,10009765625;407,521345971108;2,294921875E-09;-0,09967041015625;10;798;3,03732603788376E-08;-2,80073657631874E-08;100 nA
-0,050048828125;408,021833969844;2,386474609375E-09;-0,049896240234375;10;799;3,03732603788376E-08;-2,80073657631874E-08;100 nA
0;408,52232196858;2,4871826171875E-09;0,000119018554687503;10;800;3,03732603788376E-08;-2,80073657631874E-08;100 nA
