Potential applied (V);Time (s);WE(1).Current (A);WE(1).Potential (V);Scan;Index;Q+;Q-;Current range
0,050048828125;8,92283997747199;2,99072265625E-09;0,050140380859375;1;1;2,52385511994362E-07;-2,54954546689987E-07;100 nA
0,10009765625;9,42332797620838;4,6905517578125E-09;0,100128173828125;1;2;2,52385511994362E-07;-2,54954546689987E-07;100 nA
0,150146484375;9,92381597494477;5,4779052734375E-09;0,150146484375;1;3;2,52385511994362E-07;-2,54954546689987E-07;100 nA
0,2001953125;10,4243039736812;6,3873291015625E-09;0,2000732421875;1;4;2,52385511994362E-07;-2,54954546689987E-07;100 nA
0,250244140625;10,9247919724176;7,4981689453125E-09;0,250091552734375;1;5;2,52385511994362E-07;-2,54954546689987E-07;100 nA
0,30029296875;11,4252799711539;8,63037109375E-09;0,300079345703125;1;6;2,52385511994362E-07;-2,54954546689987E-07;100 nA
0,350341796875;11,9257679698903;9,7412109375E-09;0,35009765625;1;7;2,52385511994362E-07;-2,54954546689987E-07;100 nA
0,400390625;12,4262559686267;1,07879638671875E-08;0,400146484375;1;8;2,52385511994362E-07;-2,54954546689987E-07;100 nA
0,450439453125;12,9267439673631;1,18133544921875E-08;0,45013427734375;1;9;2,52385511994362E-07;-2,54954546689987E-07;100 nA
0,50048828125;13,4272319660995;1,29669189453125E-08;0,500152587890625;1;10;2,52385511994362E-07;-2,54954546689987E-07;100 nA
0,550537109375;13,9277199648359;1,4117431640625E-08;0,550140380859375;1;11;2,52385511994362E-07;-2,54954546689987E-07;100 nA
0,6005859375;14,4282079635723;1,52862548828125E-08;0,60009765625;1;12;2,52385511994362E-07;-2,54954546689987E-07;100 nA
0,650634765625;14,9286959623087;1,651611328125E-08;0,650054931640625;1;13;2,52385511994362E-07;-2,54954546689987E-07;100 nA
0,70068359375;15,4291839610451;1,77520751953125E-08;0,699981689453125;1;14;2,52385511994362E-07;-2,54954546689987E-07;100 nA
0,750732421875;15,9296719597814;1,8975830078125E-08;0,74981689453125;1;15;2,52385511994362E-07;-2,54954546689987E-07;100 nA
0,80078125;16,4301599585178;2,01751708984375E-08;0,8001708984375;1;16;2,52385511994362E-07;-2,54954546689987E-07;100 nA
0,850830078125;16,9306479572542;2,142333984375E-08;0,849609375;1;17;2,52385511994362E-07;-2,54954546689987E-07;100 nA
0,90087890625;17,4311359559906;2,274169921875E-08;0,899658203125;1;18;2,52385511994362E-07;-2,54954546689987E-07;100 nA
0,950927734375;17,931623954727;2,4139404296875E-08;0,95001220703125;1;19;2,52385511994362E-07;-2,54954546689987E-07;100 nA
1,0009765625;18,4321119534634;2,5787353515625E-08;0,99945068359375;1;20;2,52385511994362E-07;-2,54954546689987E-07;100 nA
0,950927734375;18,9325999521998;2,3590087890625E-08;0,94970703125;1;21;2,52385511994362E-07;-2,54954546689987E-07;100 nA
0,90087890625;19,4330879509362;2,1942138671875E-08;0,899658203125;1;22;2,52385511994362E-07;-2,54954546689987E-07;100 nA
0,850830078125;19,9335759496726;2,06329345703125E-08;0,84991455078125;1;23;2,52385511994362E-07;-2,54954546689987E-07;100 nA
0,80078125;20,4340639484089;1,93267822265625E-08;0,8001708984375;1;24;2,52385511994362E-07;-2,54954546689987E-07;100 nA
0,750732421875;20,9345519471453;1,80328369140625E-08;0,749786376953125;1;25;2,52385511994362E-07;-2,54954546689987E-07;100 nA
0,70068359375;21,4350399458817;1,6729736328125E-08;0,699951171875;1;26;2,52385511994362E-07;-2,54954546689987E-07;100 nA
0,650634765625;21,9355279446181;1,5472412109375E-08;0,649993896484375;1;27;2,52385511994362E-07;-2,54954546689987E-07;100 nA
0,6005859375;22,4360159433545;1,42059326171875E-08;0,600006103515625;1;28;2,52385511994362E-07;-2,54954546689987E-07;100 nA
0,550537109375;22,9365039420909;1,304931640625E-08;0,550079345703125;1;29;2,52385511994362E-07;-2,54954546689987E-07;100 nA
0,50048828125;23,4369919408273;1,17340087890625E-08;0,5;1;30;2,52385511994362E-07;-2,54954546689987E-07;100 nA
0,450439453125;23,9374799395637;1,05682373046875E-08;0,4500732421875;1;31;2,52385511994362E-07;-2,54954546689987E-07;100 nA
0,400390625;24,4379679383001;9,1949462890625E-09;0,400054931640625;1;32;2,52385511994362E-07;-2,54954546689987E-07;100 nA
0,350341796875;24,9384559370365;8,0230712890625E-09;0,350067138671875;1;33;2,52385511994362E-07;-2,54954546689987E-07;100 nA
0,30029296875;25,4389439357728;6,695556640625E-09;0,300018310546875;1;34;2,52385511994362E-07;-2,54954546689987E-07;100 nA
0,250244140625;25,9394319345092;5,3955078125E-09;0,25006103515625;1;35;2,52385511994362E-07;-2,54954546689987E-07;100 nA
0,2001953125;26,4399199332456;3,9825439453125E-09;0,2000732421875;1;36;2,52385511994362E-07;-2,54954546689987E-07;100 nA
0,150146484375;26,940407931982;2,6031494140625E-09;0,15008544921875;1;37;2,52385511994362E-07;-2,54954546689987E-07;100 nA
0,10009765625;27,4408959307184;1,1566162109375E-09;0,10009765625;1;38;2,52385511994362E-07;-2,54954546689987E-07;100 nA
0,050048828125;27,9413839294548;-1,2359619140625E-09;0,05010986328125;1;39;2,52385511994362E-07;-2,54954546689987E-07;100 nA
0;28,4418719281912;-4,9591064453125E-09;0,000161743164062506;1;40;2,52385511994362E-07;-2,54954546689987E-07;100 nA
-0,050048828125;28,9423599269276;-4,58984375E-09;-0,0497039794921875;1;41;2,52385511994362E-07;-2,54954546689987E-07;100 nA
-0,10009765625;29,442847925664;-4,89501953125E-09;-0,099639892578125;1;42;2,52385511994362E-07;-2,54954546689987E-07;100 nA
-0,150146484375;29,9433359244003;-6,0272216796875E-09;-0,149566650390625;1;43;2,52385511994362E-07;-2,54954546689987E-07;100 nA
-0,2001953125;30,4438239231367;-7,2967529296875E-09;-0,19940185546875;1;44;2,52385511994362E-07;-2,54954546689987E-07;100 nA
-0,250244140625;30,9443119218731;-8,3984375E-09;-0,24932861328125;1;45;2,52385511994362E-07;-2,54954546689987E-07;100 nA
-0,30029296875;31,4447999206095;-9,3414306640625E-09;-0,2991943359375;1;46;2,52385511994362E-07;-2,54954546689987E-07;100 nA
-0,350341796875;31,9452879193459;-1,0382080078125E-08;-0,34906005859375;1;47;2,52385511994362E-07;-2,54954546689987E-07;100 nA
-0,400390625;32,4457759180823;-1,15814208984375E-08;-0,399017333984375;1;48;2,52385511994362E-07;-2,54954546689987E-07;100 nA
-0,450439453125;32,9462639168187;-1,29913330078125E-08;-0,448883056640625;1;49;2,52385511994362E-07;-2,54954546689987E-07;100 nA
-0,50048828125;33,4467519155551;-1,43707275390625E-08;-0,498809814453125;1;50;2,52385511994362E-07;-2,54954546689987E-07;100 nA
-0,550537109375;33,9472399142915;-1,55548095703125E-08;-0,548736572265625;1;51;2,52385511994362E-07;-2,54954546689987E-07;100 nA
-0,6005859375;34,4477279130278;-1,67327880859375E-08;-0,598602294921875;1;52;2,52385511994362E-07;-2,54954546689987E-07;100 nA
-0,650634765625;34,9482159117642;-1,76239013671875E-08;-0,64849853515625;1;53;2,52385511994362E-07;-2,54954546689987E-07;100 nA
-0,70068359375;35,4487039105006;-1,82891845703125E-08;-0,698516845703125;1;54;2,52385511994362E-07;-2,54954546689987E-07;100 nA
-0,750732421875;35,949191909237;-1,9305419921875E-08;-0,748504638671875;1;55;2,52385511994362E-07;-2,54954546689987E-07;100 nA
-0,80078125;36,4496799079734;-2,037353515625E-08;-0,79833984375;1;56;2,52385511994362E-07;-2,54954546689987E-07;100 nA
-0,850830078125;36,9501679067098;-2,152099609375E-08;-0,84869384765625;1;57;2,52385511994362E-07;-2,54954546689987E-07;100 nA
-0,90087890625;37,4506559054462;-2,2698974609375E-08;-0,8984375;1;58;2,52385511994362E-07;-2,54954546689987E-07;100 nA
-0,950927734375;37,9511439041826;-2,3956298828125E-08;-0,9490966796875;1;59;2,52385511994362E-07;-2,54954546689987E-07;100 nA
-1,0009765625;38,451631902919;-2,5177001953125E-08;-0,99853515625;1;60;2,52385511994362E-07;-2,54954546689987E-07;100 nA
-0,950927734375;38,9521199016554;-2,3468017578125E-08;-0,94879150390625;1;61;2,52385511994362E-07;-2,54954546689987E-07;100 nA
-0,90087890625;39,4526079003917;-2,21038818359375E-08;-0,8984375;1;62;2,52385511994362E-07;-2,54954546689987E-07;100 nA
-0,850830078125;39,9530958991281;-2,07550048828125E-08;-0,84869384765625;1;63;2,52385511994362E-07;-2,54954546689987E-07;100 nA
-0,80078125;40,4535838978645;-1,93756103515625E-08;-0,79925537109375;1;64;2,52385511994362E-07;-2,54954546689987E-07;100 nA
-0,750732421875;40,9540718966009;-1,80328369140625E-08;-0,748565673828125;1;65;2,52385511994362E-07;-2,54954546689987E-07;100 nA
-0,70068359375;41,4545598953373;-1,67144775390625E-08;-0,69854736328125;1;66;2,52385511994362E-07;-2,54954546689987E-07;100 nA
-0,650634765625;41,9550478940737;-1,5350341796875E-08;-0,6485595703125;1;67;2,52385511994362E-07;-2,54954546689987E-07;100 nA
-0,6005859375;42,4555358928101;-1,40228271484375E-08;-0,598602294921875;1;68;2,52385511994362E-07;-2,54954546689987E-07;100 nA
-0,550537109375;42,9560238915465;-1,25518798828125E-08;-0,548736572265625;1;69;2,52385511994362E-07;-2,54954546689987E-07;100 nA
-0,50048828125;43,4565118902829;-1,09405517578125E-08;-0,498870849609375;1;70;2,52385511994362E-07;-2,54954546689987E-07;100 nA
-0,450439453125;43,9569998890192;-9,527587890625E-09;-0,449005126953125;1;71;2,52385511994362E-07;-2,54954546689987E-07;100 nA
-0,400390625;44,4574878877556;-8,1878662109375E-09;-0,399169921875;1;72;2,52385511994362E-07;-2,54954546689987E-07;100 nA
-0,350341796875;44,957975886492;-6,9000244140625E-09;-0,349212646484375;1;73;2,52385511994362E-07;-2,54954546689987E-07;100 nA
-0,30029296875;45,4584638852284;-5,6182861328125E-09;-0,29925537109375;1;74;2,52385511994362E-07;-2,54954546689987E-07;100 nA
-0,250244140625;45,9589518839648;-4,248046875E-09;-0,249359130859375;1;75;2,52385511994362E-07;-2,54954546689987E-07;100 nA
-0,2001953125;46,4594398827012;-2,81982421875E-09;-0,199493408203125;1;76;2,52385511994362E-07;-2,54954546689987E-07;100 nA
-0,150146484375;46,9599278814376;-1,4678955078125E-09;-0,14959716796875;1;77;2,52385511994362E-07;-2,54954546689987E-07;100 nA
-0,10009765625;47,460415880174;-2,44140625E-11;-0,0997314453125;1;78;2,52385511994362E-07;-2,54954546689987E-07;100 nA
-0,050048828125;47,9609038789104;1,3702392578125E-09;-0,0498046875;1;79;2,52385511994362E-07;-2,54954546689987E-07;100 nA
0;48,4613918776467;2,67333984375E-09;0,000152587890625;1;80;2,52385511994362E-07;-2,54954546689987E-07;100 nA
0,050048828125;48,9618798763831;4,302978515625E-09;0,050140380859375;2;81;2,54152677953243E-07;-2,53871642053127E-07;100 nA
0,10009765625;49,4623678751195;5,352783203125E-09;0,10009765625;2;82;2,54152677953243E-07;-2,53871642053127E-07;100 nA
0,150146484375;49,9628558738559;5,7403564453125E-09;0,150054931640625;2;83;2,54152677953243E-07;-2,53871642053127E-07;100 nA
0,2001953125;50,4633438725923;6,6131591796875E-09;0,20013427734375;2;84;2,54152677953243E-07;-2,53871642053127E-07;100 nA
0,250244140625;50,9638318713287;7,659912109375E-09;0,25006103515625;2;85;2,54152677953243E-07;-2,53871642053127E-07;100 nA
0,30029296875;51,4643198700651;8,69140625E-09;0,30010986328125;2;86;2,54152677953243E-07;-2,53871642053127E-07;100 nA
0,350341796875;51,9648078688015;9,7320556640625E-09;0,35009765625;2;87;2,54152677953243E-07;-2,53871642053127E-07;100 nA
0,400390625;52,4652958675379;1,0791015625E-08;0,40008544921875;2;88;2,54152677953243E-07;-2,53871642053127E-07;100 nA
0,450439453125;52,9657838662743;1,190185546875E-08;0,45013427734375;2;89;2,54152677953243E-07;-2,53871642053127E-07;100 nA
0,50048828125;53,4662718650106;1,2982177734375E-08;0,5001220703125;2;90;2,54152677953243E-07;-2,53871642053127E-07;100 nA
0,550537109375;53,966759863747;1,40960693359375E-08;0,550079345703125;2;91;2,54152677953243E-07;-2,53871642053127E-07;100 nA
0,6005859375;54,4672478624834;1,533203125E-08;0,60009765625;2;92;2,54152677953243E-07;-2,53871642053127E-07;100 nA
0,650634765625;54,9677358612198;1,654052734375E-08;0,650115966796875;2;93;2,54152677953243E-07;-2,53871642053127E-07;100 nA
0,70068359375;55,4682238599562;1,78009033203125E-08;0,699920654296875;2;94;2,54152677953243E-07;-2,53871642053127E-07;100 nA
0,750732421875;55,9687118586926;1,898193359375E-08;0,7498779296875;2;95;2,54152677953243E-07;-2,53871642053127E-07;100 nA
0,80078125;56,469199857429;2,0135498046875E-08;0,8001708984375;2;96;2,54152677953243E-07;-2,53871642053127E-07;100 nA
0,850830078125;56,9696878561654;2,13531494140625E-08;0,8502197265625;2;97;2,54152677953243E-07;-2,53871642053127E-07;100 nA
0,90087890625;57,4701758549018;2,2833251953125E-08;0,90057373046875;2;98;2,54152677953243E-07;-2,53871642053127E-07;100 nA
0,950927734375;57,9706638536381;2,4200439453125E-08;0,94940185546875;2;99;2,54152677953243E-07;-2,53871642053127E-07;100 nA
1,0009765625;58,4711518523745;2,57568359375E-08;0,999755859375;2;100;2,54152677953243E-07;-2,53871642053127E-07;100 nA
0,950927734375;58,9716398511109;2,374267578125E-08;0,95001220703125;2;101;2,54152677953243E-07;-2,53871642053127E-07;100 nA
0,90087890625;59,4721278498473;2,20947265625E-08;0,89996337890625;2;102;2,54152677953243E-07;-2,53871642053127E-07;100 nA
0,850830078125;59,9726158485837;2,0758056640625E-08;0,84991455078125;2;103;2,54152677953243E-07;-2,53871642053127E-07;100 nA
0,80078125;60,4731038473201;1,94366455078125E-08;0,79986572265625;2;104;2,54152677953243E-07;-2,53871642053127E-07;100 nA
0,750732421875;60,9735918460565;1,802978515625E-08;0,74981689453125;2;105;2,54152677953243E-07;-2,53871642053127E-07;100 nA
0,70068359375;61,4740798447929;1,68212890625E-08;0,699859619140625;2;106;2,54152677953243E-07;-2,53871642053127E-07;100 nA
0,650634765625;61,9745678435293;1,55303955078125E-08;0,650054931640625;2;107;2,54152677953243E-07;-2,53871642053127E-07;100 nA
0,6005859375;62,4750558422656;1,4215087890625E-08;0,600067138671875;2;108;2,54152677953243E-07;-2,53871642053127E-07;100 nA
0,550537109375;62,975543841002;1,30706787109375E-08;0,550079345703125;2;109;2,54152677953243E-07;-2,53871642053127E-07;100 nA
0,50048828125;63,4760318397384;1,1859130859375E-08;0,50006103515625;2;110;2,54152677953243E-07;-2,53871642053127E-07;100 nA
0,450439453125;63,9765198384748;1,05255126953125E-08;0,4500732421875;2;111;2,54152677953243E-07;-2,53871642053127E-07;100 nA
0,400390625;64,4770078372112;9,3231201171875E-09;0,400054931640625;2;112;2,54152677953243E-07;-2,53871642053127E-07;100 nA
0,350341796875;64,9774958359476;8,013916015625E-09;0,350067138671875;2;113;2,54152677953243E-07;-2,53871642053127E-07;100 nA
0,30029296875;65,477983834684;6,689453125E-09;0,300079345703125;2;114;2,54152677953243E-07;-2,53871642053127E-07;100 nA
0,250244140625;65,9784718334204;5,2825927734375E-09;0,25;2;115;2,54152677953243E-07;-2,53871642053127E-07;100 nA
0,2001953125;66,4789598321568;3,9093017578125E-09;0,199981689453125;2;116;2,54152677953243E-07;-2,53871642053127E-07;100 nA
0,150146484375;66,9794478308932;2,5390625E-09;0,1500244140625;2;117;2,54152677953243E-07;-2,53871642053127E-07;100 nA
0,10009765625;67,4799358296295;1,068115234375E-09;0,100067138671875;2;118;2,54152677953243E-07;-2,53871642053127E-07;100 nA
0,050048828125;67,9804238283659;-1,4617919921875E-09;0,050018310546875;2;119;2,54152677953243E-07;-2,53871642053127E-07;100 nA
0;68,4809118271023;-5,3436279296875E-09;0,0001373291015625;2;120;2,54152677953243E-07;-2,53871642053127E-07;100 nA
-0,050048828125;68,9813998258387;-4,8980712890625E-09;-0,049774169921875;2;121;2,54152677953243E-07;-2,53871642053127E-07;100 nA
-0,10009765625;69,4818878245751;-5,0872802734375E-09;-0,09967041015625;2;122;2,54152677953243E-07;-2,53871642053127E-07;100 nA
-0,150146484375;69,9823758233115;-6,1676025390625E-09;-0,149566650390625;2;123;2,54152677953243E-07;-2,53871642053127E-07;100 nA
-0,2001953125;70,4828638220479;-7,3333740234375E-09;-0,199432373046875;2;124;2,54152677953243E-07;-2,53871642053127E-07;100 nA
-0,250244140625;70,9833518207843;-8,3038330078125E-09;-0,249298095703125;2;125;2,54152677953243E-07;-2,53871642053127E-07;100 nA
-0,30029296875;71,4838398195207;-9,2620849609375E-09;-0,299224853515625;2;126;2,54152677953243E-07;-2,53871642053127E-07;100 nA
-0,350341796875;71,984327818257;-1,02813720703125E-08;-0,349151611328125;2;127;2,54152677953243E-07;-2,53871642053127E-07;100 nA
-0,400390625;72,4848158169934;-1,16302490234375E-08;-0,3990478515625;2;128;2,54152677953243E-07;-2,53871642053127E-07;100 nA
-0,450439453125;72,9853038157298;-1,297607421875E-08;-0,448944091796875;2;129;2,54152677953243E-07;-2,53871642053127E-07;100 nA
-0,50048828125;73,4857918144662;-1,43035888671875E-08;-0,498870849609375;2;130;2,54152677953243E-07;-2,53871642053127E-07;100 nA
-0,550537109375;73,9862798132026;-1,54327392578125E-08;-0,548675537109375;2;131;2,54152677953243E-07;-2,53871642053127E-07;100 nA
-0,6005859375;74,486767811939;-1,6595458984375E-08;-0,598602294921875;2;132;2,54152677953243E-07;-2,53871642053127E-07;100 nA
-0,650634765625;74,9872558106754;-1,7474365234375E-08;-0,64862060546875;2;133;2,54152677953243E-07;-2,53871642053127E-07;100 nA
-0,70068359375;75,4877438094118;-1,83013916015625E-08;-0,69854736328125;2;134;2,54152677953243E-07;-2,53871642053127E-07;100 nA
-0,750732421875;75,9882318081482;-1,9207763671875E-08;-0,74853515625;2;135;2,54152677953243E-07;-2,53871642053127E-07;100 nA
-0,80078125;76,4887198068845;-2,02056884765625E-08;-0,79833984375;2;136;2,54152677953243E-07;-2,53871642053127E-07;100 nA
-0,850830078125;76,9892078056209;-2,1270751953125E-08;-0,84869384765625;2;137;2,54152677953243E-07;-2,53871642053127E-07;100 nA
-0,90087890625;77,4896958043573;-2,23968505859375E-08;-0,89874267578125;2;138;2,54152677953243E-07;-2,53871642053127E-07;100 nA
-0,950927734375;77,9901838030937;-2,3712158203125E-08;-0,9490966796875;2;139;2,54152677953243E-07;-2,53871642053127E-07;100 nA
-1,0009765625;78,4906718018301;-2,5054931640625E-08;-0,9991455078125;2;140;2,54152677953243E-07;-2,53871642053127E-07;100 nA
-0,950927734375;78,9911598005665;-2,3406982421875E-08;-0,9490966796875;2;141;2,54152677953243E-07;-2,53871642053127E-07;100 nA
-0,90087890625;79,4916477993029;-2,1923828125E-08;-0,8984375;2;142;2,54152677953243E-07;-2,53871642053127E-07;100 nA
-0,850830078125;79,9921357980393;-2,06451416015625E-08;-0,84869384765625;2;143;2,54152677953243E-07;-2,53871642053127E-07;100 nA
-0,80078125;80,4926237967757;-1,92626953125E-08;-0,79833984375;2;144;2,54152677953243E-07;-2,53871642053127E-07;100 nA
-0,750732421875;80,9931117955121;-1,79901123046875E-08;-0,74853515625;2;145;2,54152677953243E-07;-2,53871642053127E-07;100 nA
-0,70068359375;81,4935997942484;-1,6680908203125E-08;-0,69854736328125;2;146;2,54152677953243E-07;-2,53871642053127E-07;100 nA
-0,650634765625;81,9940877929848;-1,53228759765625E-08;-0,648590087890625;2;147;2,54152677953243E-07;-2,53871642053127E-07;100 nA
-0,6005859375;82,4945757917212;-1,3934326171875E-08;-0,5986328125;2;148;2,54152677953243E-07;-2,53871642053127E-07;100 nA
-0,550537109375;82,9950637904576;-1,24298095703125E-08;-0,54876708984375;2;149;2,54152677953243E-07;-2,53871642053127E-07;100 nA
-0,50048828125;83,495551789194;-1,08184814453125E-08;-0,49884033203125;2;150;2,54152677953243E-07;-2,53871642053127E-07;100 nA
-0,450439453125;83,9960397879304;-9,3353271484375E-09;-0,44891357421875;2;151;2,54152677953243E-07;-2,53871642053127E-07;100 nA
-0,400390625;84,4965277866668;-8,0047607421875E-09;-0,3990478515625;2;152;2,54152677953243E-07;-2,53871642053127E-07;100 nA
-0,350341796875;84,9970157854032;-6,82373046875E-09;-0,349151611328125;2;153;2,54152677953243E-07;-2,53871642053127E-07;100 nA
-0,30029296875;85,4975037841396;-5,5755615234375E-09;-0,299224853515625;2;154;2,54152677953243E-07;-2,53871642053127E-07;100 nA
-0,250244140625;85,9979917828759;-4,217529296875E-09;-0,249359130859375;2;155;2,54152677953243E-07;-2,53871642053127E-07;100 nA
-0,2001953125;86,4984797816123;-2,8076171875E-09;-0,199493408203125;2;156;2,54152677953243E-07;-2,53871642053127E-07;100 nA
-0,150146484375;86,9989677803487;-1,3580322265625E-09;-0,149566650390625;2;157;2,54152677953243E-07;-2,53871642053127E-07;100 nA
-0,10009765625;87,4994557790851;-9,1552734375E-12;-0,09967041015625;2;158;2,54152677953243E-07;-2,53871642053127E-07;100 nA
-0,050048828125;87,9999437778215;1,385498046875E-09;-0,0498046875;2;159;2,54152677953243E-07;-2,53871642053127E-07;100 nA
0;88,5004317765579;2,716064453125E-09;0,0001373291015625;2;160;2,54152677953243E-07;-2,53871642053127E-07;100 nA
0,050048828125;89,0009197752943;4,351806640625E-09;0,050079345703125;3;161;2,53500491380692E-07;-2,54962183535099E-07;100 nA
0,10009765625;89,5014077740307;5,3558349609375E-09;0,10009765625;3;162;2,53500491380692E-07;-2,54962183535099E-07;100 nA
0,150146484375;90,0018957727671;5,6610107421875E-09;0,15008544921875;3;163;2,53500491380692E-07;-2,54962183535099E-07;100 nA
0,2001953125;90,5023837715034;6,4697265625E-09;0,199981689453125;3;164;2,53500491380692E-07;-2,54962183535099E-07;100 nA
0,250244140625;91,0028717702398;7,5103759765625E-09;0,25;3;165;2,53500491380692E-07;-2,54962183535099E-07;100 nA
0,30029296875;91,5033597689762;8,5540771484375E-09;0,300079345703125;3;166;2,53500491380692E-07;-2,54962183535099E-07;100 nA
0,350341796875;92,0038477677126;9,60693359375E-09;0,350128173828125;3;167;2,53500491380692E-07;-2,54962183535099E-07;100 nA
0,400390625;92,504335766449;1,058349609375E-08;0,40008544921875;3;168;2,53500491380692E-07;-2,54962183535099E-07;100 nA
0,450439453125;93,0048237651854;1,15997314453125E-08;0,450042724609375;3;169;2,53500491380692E-07;-2,54962183535099E-07;100 nA
0,50048828125;93,5053117639218;1,27532958984375E-08;0,500091552734375;3;170;2,53500491380692E-07;-2,54962183535099E-07;100 nA
0,550537109375;94,0057997626582;1,3916015625E-08;0,55010986328125;3;171;2,53500491380692E-07;-2,54962183535099E-07;100 nA
0,6005859375;94,5062877613946;1,5081787109375E-08;0,60009765625;3;172;2,53500491380692E-07;-2,54962183535099E-07;100 nA
0,650634765625;95,0067757601309;1,6253662109375E-08;0,649993896484375;3;173;2,53500491380692E-07;-2,54962183535099E-07;100 nA
0,70068359375;95,5072637588673;1,74957275390625E-08;0,699920654296875;3;174;2,53500491380692E-07;-2,54962183535099E-07;100 nA
0,750732421875;96,0077517576037;1,87957763671875E-08;0,749847412109375;3;175;2,53500491380692E-07;-2,54962183535099E-07;100 nA
0,80078125;96,5082397563401;1,98333740234375E-08;0,79986572265625;3;176;2,53500491380692E-07;-2,54962183535099E-07;100 nA
0,850830078125;97,0087277550765;2,1148681640625E-08;0,84991455078125;3;177;2,53500491380692E-07;-2,54962183535099E-07;100 nA
0,90087890625;97,5092157538129;2,252197265625E-08;0,899658203125;3;178;2,53500491380692E-07;-2,54962183535099E-07;100 nA
0,950927734375;98,0097037525493;2,40478515625E-08;0,94940185546875;3;179;2,53500491380692E-07;-2,54962183535099E-07;100 nA
1,0009765625;98,5101917512857;2,5604248046875E-08;0,999755859375;3;180;2,53500491380692E-07;-2,54962183535099E-07;100 nA
0,950927734375;99,0106797500221;2,3681640625E-08;0,94970703125;3;181;2,53500491380692E-07;-2,54962183535099E-07;100 nA
0,90087890625;99,5111677487585;2,203369140625E-08;0,89935302734375;3;182;2,53500491380692E-07;-2,54962183535099E-07;100 nA
0,850830078125;100,011655747495;2,08160400390625E-08;0,849609375;3;183;2,53500491380692E-07;-2,54962183535099E-07;100 nA
0,80078125;100,512143746231;1,94305419921875E-08;0,79986572265625;3;184;2,53500491380692E-07;-2,54962183535099E-07;100 nA
0,750732421875;101,012631744968;1,80938720703125E-08;0,749755859375;3;185;2,53500491380692E-07;-2,54962183535099E-07;100 nA
0,70068359375;101,513119743704;1,68060302734375E-08;0,69989013671875;3;186;2,53500491380692E-07;-2,54962183535099E-07;100 nA
0,650634765625;102,01360774244;1,5582275390625E-08;0,6500244140625;3;187;2,53500491380692E-07;-2,54962183535099E-07;100 nA
0,6005859375;102,514095741177;1,439208984375E-08;0,60009765625;3;188;2,53500491380692E-07;-2,54962183535099E-07;100 nA
0,550537109375;103,014583739913;1,31011962890625E-08;0,55010986328125;3;189;2,53500491380692E-07;-2,54962183535099E-07;100 nA
0,50048828125;103,51507173865;1,1981201171875E-08;0,500030517578125;3;190;2,53500491380692E-07;-2,54962183535099E-07;100 nA
0,450439453125;104,015559737386;1,07391357421875E-08;0,450103759765625;3;191;2,53500491380692E-07;-2,54962183535099E-07;100 nA
0,400390625;104,516047736122;9,4329833984375E-09;0,40020751953125;3;192;2,53500491380692E-07;-2,54962183535099E-07;100 nA
0,350341796875;105,016535734859;8,16650390625E-09;0,35009765625;3;193;2,53500491380692E-07;-2,54962183535099E-07;100 nA
0,30029296875;105,517023733595;6,8634033203125E-09;0,300079345703125;3;194;2,53500491380692E-07;-2,54962183535099E-07;100 nA
0,250244140625;106,017511732332;5,5084228515625E-09;0,250152587890625;3;195;2,53500491380692E-07;-2,54962183535099E-07;100 nA
0,2001953125;106,517999731068;4,132080078125E-09;0,2000732421875;3;196;2,53500491380692E-07;-2,54962183535099E-07;100 nA
0,150146484375;107,018487729804;2,83203125E-09;0,150115966796875;3;197;2,53500491380692E-07;-2,54962183535099E-07;100 nA
0,10009765625;107,518975728541;1,2603759765625E-09;0,100128173828125;3;198;2,53500491380692E-07;-2,54962183535099E-07;100 nA
0,050048828125;108,019463727277;-1,275634765625E-09;0,050140380859375;3;199;2,53500491380692E-07;-2,54962183535099E-07;100 nA
0;108,519951726013;-5,2459716796875E-09;0,000149536132812503;3;200;2,53500491380692E-07;-2,54962183535099E-07;100 nA
-0,050048828125;109,02043972475;-4,888916015625E-09;-0,04971923828125;3;201;2,53500491380692E-07;-2,54962183535099E-07;100 nA
-0,10009765625;109,520927723486;-5,072021484375E-09;-0,099700927734375;3;202;2,53500491380692E-07;-2,54962183535099E-07;100 nA
-0,150146484375;110,021415722223;-6,15234375E-09;-0,149566650390625;3;203;2,53500491380692E-07;-2,54962183535099E-07;100 nA
-0,2001953125;110,521903720959;-7,3028564453125E-09;-0,199432373046875;3;204;2,53500491380692E-07;-2,54962183535099E-07;100 nA
-0,250244140625;111,022391719695;-8,30078125E-09;-0,2493896484375;3;205;2,53500491380692E-07;-2,54962183535099E-07;100 nA
-0,30029296875;111,522879718432;-9,2742919921875E-09;-0,299224853515625;3;206;2,53500491380692E-07;-2,54962183535099E-07;100 nA
-0,350341796875;112,023367717168;-1,0394287109375E-08;-0,349151611328125;3;207;2,53500491380692E-07;-2,54962183535099E-07;100 nA
-0,400390625;112,523855715905;-1,17462158203125E-08;-0,39910888671875;3;208;2,53500491380692E-07;-2,54962183535099E-07;100 nA
-0,450439453125;113,024343714641;-1,307373046875E-08;-0,448974609375;3;209;2,53500491380692E-07;-2,54962183535099E-07;100 nA
-0,50048828125;113,524831713377;-1,44256591796875E-08;-0,498870849609375;3;210;2,53500491380692E-07;-2,54962183535099E-07;100 nA
-0,550537109375;114,025319712114;-1,56005859375E-08;-0,548797607421875;3;211;2,53500491380692E-07;-2,54962183535099E-07;100 nA
-0,6005859375;114,52580771085;-1,6754150390625E-08;-0,598602294921875;3;212;2,53500491380692E-07;-2,54962183535099E-07;100 nA
-0,650634765625;115,026295709587;-1,7584228515625E-08;-0,648590087890625;3;213;2,53500491380692E-07;-2,54962183535099E-07;100 nA
-0,70068359375;115,526783708323;-1,84661865234375E-08;-0,698577880859375;3;214;2,53500491380692E-07;-2,54962183535099E-07;100 nA
-0,750732421875;116,027271707059;-1,942138671875E-08;-0,74859619140625;3;215;2,53500491380692E-07;-2,54962183535099E-07;100 nA
-0,80078125;116,527759705796;-2,05169677734375E-08;-0,79864501953125;3;216;2,53500491380692E-07;-2,54962183535099E-07;100 nA
-0,850830078125;117,028247704532;-2,1624755859375E-08;-0,84869384765625;3;217;2,53500491380692E-07;-2,54962183535099E-07;100 nA
-0,90087890625;117,528735703268;-2,2760009765625E-08;-0,8984375;3;218;2,53500491380692E-07;-2,54962183535099E-07;100 nA
-0,950927734375;118,029223702005;-2,3895263671875E-08;-0,9490966796875;3;219;2,53500491380692E-07;-2,54962183535099E-07;100 nA
-1,0009765625;118,529711700741;-2,5238037109375E-08;-0,99884033203125;3;220;2,53500491380692E-07;-2,54962183535099E-07;100 nA
-0,950927734375;119,030199699478;-2,349853515625E-08;-0,948486328125;3;221;2,53500491380692E-07;-2,54962183535099E-07;100 nA
-0,90087890625;119,530687698214;-2,20458984375E-08;-0,89874267578125;3;222;2,53500491380692E-07;-2,54962183535099E-07;100 nA
-0,850830078125;120,03117569695;-2,07122802734375E-08;-0,84930419921875;3;223;2,53500491380692E-07;-2,54962183535099E-07;100 nA
-0,80078125;120,531663695687;-1,937255859375E-08;-0,7989501953125;3;224;2,53500491380692E-07;-2,54962183535099E-07;100 nA
-0,750732421875;121,032151694423;-1,8109130859375E-08;-0,748565673828125;3;225;2,53500491380692E-07;-2,54962183535099E-07;100 nA
-0,70068359375;121,53263969316;-1,6754150390625E-08;-0,6986083984375;3;226;2,53500491380692E-07;-2,54962183535099E-07;100 nA
-0,650634765625;122,033127691896;-1,5380859375E-08;-0,648590087890625;3;227;2,53500491380692E-07;-2,54962183535099E-07;100 nA
-0,6005859375;122,533615690632;-1,39556884765625E-08;-0,5986328125;3;228;2,53500491380692E-07;-2,54962183535099E-07;100 nA
-0,550537109375;123,034103689369;-1,240234375E-08;-0,5487060546875;3;229;2,53500491380692E-07;-2,54962183535099E-07;100 nA
-0,50048828125;123,534591688105;-1,0791015625E-08;-0,498779296875;3;230;2,53500491380692E-07;-2,54962183535099E-07;100 nA
-0,450439453125;124,035079686842;-9,26513671875E-09;-0,448883056640625;3;231;2,53500491380692E-07;-2,54962183535099E-07;100 nA
-0,400390625;124,535567685578;-7,8826904296875E-09;-0,3990478515625;3;232;2,53500491380692E-07;-2,54962183535099E-07;100 nA
-0,350341796875;125,036055684314;-6,7138671875E-09;-0,349090576171875;3;233;2,53500491380692E-07;-2,54962183535099E-07;100 nA
-0,30029296875;125,536543683051;-5,419921875E-09;-0,299285888671875;3;234;2,53500491380692E-07;-2,54962183535099E-07;100 nA
-0,250244140625;126,037031681787;-4,095458984375E-09;-0,249298095703125;3;235;2,53500491380692E-07;-2,54962183535099E-07;100 nA
-0,2001953125;126,537519680523;-2,6885986328125E-09;-0,199432373046875;3;236;2,53500491380692E-07;-2,54962183535099E-07;100 nA
-0,150146484375;127,03800767926;-1,324462890625E-09;-0,1495361328125;3;237;2,53500491380692E-07;-2,54962183535099E-07;100 nA
-0,10009765625;127,538495677996;1,190185546875E-10;-0,099639892578125;3;238;2,53500491380692E-07;-2,54962183535099E-07;100 nA
-0,050048828125;128,038983676733;1,52587890625E-09;-0,049774169921875;3;239;2,53500491380692E-07;-2,54962183535099E-07;100 nA
0;128,539471675469;2,862548828125E-09;0,000140380859374997;3;240;2,53500491380692E-07;-2,54962183535099E-07;100 nA
0,050048828125;129,039959674205;4,5654296875E-09;0,050079345703125;4;241;2,54348181188107E-07;-2,54348181188107E-07;100 nA
0,10009765625;129,540447672942;5,5419921875E-09;0,100128173828125;4;242;2,54348181188107E-07;-2,54348181188107E-07;100 nA
0,150146484375;130,040935671678;5,8685302734375E-09;0,150115966796875;4;243;2,54348181188107E-07;-2,54348181188107E-07;100 nA
0,2001953125;130,541423670415;6,6680908203125E-09;0,200164794921875;4;244;2,54348181188107E-07;-2,54348181188107E-07;100 nA
0,250244140625;131,041911669151;7,60498046875E-09;0,25018310546875;4;245;2,54348181188107E-07;-2,54348181188107E-07;100 nA
0,30029296875;131,542399667887;8,6212158203125E-09;0,300048828125;4;246;2,54348181188107E-07;-2,54348181188107E-07;100 nA
0,350341796875;132,042887666624;9,661865234375E-09;0,350128173828125;4;247;2,54348181188107E-07;-2,54348181188107E-07;100 nA
0,400390625;132,54337566536;1,07025146484375E-08;0,40008544921875;4;248;2,54348181188107E-07;-2,54348181188107E-07;100 nA
0,450439453125;133,043863664097;1,17523193359375E-08;0,450103759765625;4;249;2,54348181188107E-07;-2,54348181188107E-07;100 nA
0,50048828125;133,544351662833;1,28692626953125E-08;0,500091552734375;4;250;2,54348181188107E-07;-2,54348181188107E-07;100 nA
0,550537109375;134,044839661569;1,40655517578125E-08;0,550079345703125;4;251;2,54348181188107E-07;-2,54348181188107E-07;100 nA
0,6005859375;134,545327660306;1,5277099609375E-08;0,60009765625;4;252;2,54348181188107E-07;-2,54348181188107E-07;100 nA
0,650634765625;135,045815659042;1,64337158203125E-08;0,6500244140625;4;253;2,54348181188107E-07;-2,54348181188107E-07;100 nA
0,70068359375;135,546303657778;1,7645263671875E-08;0,699920654296875;4;254;2,54348181188107E-07;-2,54348181188107E-07;100 nA
0,750732421875;136,046791656515;1,88140869140625E-08;0,7498779296875;4;255;2,54348181188107E-07;-2,54348181188107E-07;100 nA
0,80078125;136,547279655251;2,01690673828125E-08;0,80047607421875;4;256;2,54348181188107E-07;-2,54348181188107E-07;100 nA
0,850830078125;137,047767653988;2,14599609375E-08;0,8502197265625;4;257;2,54348181188107E-07;-2,54348181188107E-07;100 nA
0,90087890625;137,548255652724;2,2674560546875E-08;0,899658203125;4;258;2,54348181188107E-07;-2,54348181188107E-07;100 nA
0,950927734375;138,04874365146;2,4200439453125E-08;0,9503173828125;4;259;2,54348181188107E-07;-2,54348181188107E-07;100 nA
1,0009765625;138,549231650197;2,581787109375E-08;0,999755859375;4;260;2,54348181188107E-07;-2,54348181188107E-07;100 nA
0,950927734375;139,049719648933;2,374267578125E-08;0,9503173828125;4;261;2,54348181188107E-07;-2,54348181188107E-07;100 nA
0,90087890625;139,55020764767;2,2064208984375E-08;0,89996337890625;4;262;2,54348181188107E-07;-2,54348181188107E-07;100 nA
0,850830078125;140,050695646406;2,0831298828125E-08;0,849609375;4;263;2,54348181188107E-07;-2,54348181188107E-07;100 nA
0,80078125;140,551183645142;1,9451904296875E-08;0,8001708984375;4;264;2,54348181188107E-07;-2,54348181188107E-07;100 nA
0,750732421875;141,051671643879;1,8096923828125E-08;0,7498779296875;4;265;2,54348181188107E-07;-2,54348181188107E-07;100 nA
0,70068359375;141,552159642615;1,68914794921875E-08;0,69989013671875;4;266;2,54348181188107E-07;-2,54348181188107E-07;100 nA
0,650634765625;142,052647641352;1,55059814453125E-08;0,64996337890625;4;267;2,54348181188107E-07;-2,54348181188107E-07;100 nA
0,6005859375;142,553135640088;1,42852783203125E-08;0,60009765625;4;268;2,54348181188107E-07;-2,54348181188107E-07;100 nA
0,550537109375;143,053623638824;1,3055419921875E-08;0,550048828125;4;269;2,54348181188107E-07;-2,54348181188107E-07;100 nA
0,50048828125;143,554111637561;1,18133544921875E-08;0,500030517578125;4;270;2,54348181188107E-07;-2,54348181188107E-07;100 nA
0,450439453125;144,054599636297;1,055908203125E-08;0,450042724609375;4;271;2,54348181188107E-07;-2,54348181188107E-07;100 nA
0,400390625;144,555087635033;9,320068359375E-09;0,400115966796875;4;272;2,54348181188107E-07;-2,54348181188107E-07;100 nA
0,350341796875;145,05557563377;8,06884765625E-09;0,35003662109375;4;273;2,54348181188107E-07;-2,54348181188107E-07;100 nA
0,30029296875;145,556063632506;6,79931640625E-09;0,300079345703125;4;274;2,54348181188107E-07;-2,54348181188107E-07;100 nA
0,250244140625;146,056551631243;5,3863525390625E-09;0,25006103515625;4;275;2,54348181188107E-07;-2,54348181188107E-07;100 nA
0,2001953125;146,557039629979;3,997802734375E-09;0,200042724609375;4;276;2,54348181188107E-07;-2,54348181188107E-07;100 nA
0,150146484375;147,057527628715;2,5634765625E-09;0,150054931640625;4;277;2,54348181188107E-07;-2,54348181188107E-07;100 nA
0,10009765625;147,558015627452;1,01318359375E-09;0,100067138671875;4;278;2,54348181188107E-07;-2,54348181188107E-07;100 nA
0,050048828125;148,058503626188;-1,4495849609375E-09;0,050048828125;4;279;2,54348181188107E-07;-2,54348181188107E-07;100 nA
0;148,558991624925;-5,389404296875E-09;0,000125122070312497;4;280;2,54348181188107E-07;-2,54348181188107E-07;100 nA
-0,050048828125;149,059479623661;-5,06591796875E-09;-0,0498046875;4;281;2,54348181188107E-07;-2,54348181188107E-07;100 nA
-0,10009765625;149,559967622397;-5,2337646484375E-09;-0,0997314453125;4;282;2,54348181188107E-07;-2,54348181188107E-07;100 nA
-0,150146484375;150,060455621134;-6,243896484375E-09;-0,149566650390625;4;283;2,54348181188107E-07;-2,54348181188107E-07;100 nA
-0,2001953125;150,56094361987;-7,4615478515625E-09;-0,199493408203125;4;284;2,54348181188107E-07;-2,54348181188107E-07;100 nA
-0,250244140625;151,061431618607;-8,3465576171875E-09;-0,24932861328125;4;285;2,54348181188107E-07;-2,54348181188107E-07;100 nA
-0,30029296875;151,561919617343;-9,320068359375E-09;-0,299285888671875;4;286;2,54348181188107E-07;-2,54348181188107E-07;100 nA
-0,350341796875;152,062407616079;-1,0406494140625E-08;-0,34918212890625;4;287;2,54348181188107E-07;-2,54348181188107E-07;100 nA
-0,400390625;152,562895614816;-1,16912841796875E-08;-0,3990478515625;4;288;2,54348181188107E-07;-2,54348181188107E-07;100 nA
-0,450439453125;153,063383613552;-1,31134033203125E-08;-0,448883056640625;4;289;2,54348181188107E-07;-2,54348181188107E-07;100 nA
-0,50048828125;153,563871612288;-1,43829345703125E-08;-0,498779296875;4;290;2,54348181188107E-07;-2,54348181188107E-07;100 nA
-0,550537109375;154,064359611025;-1,5631103515625E-08;-0,5487060546875;4;291;2,54348181188107E-07;-2,54348181188107E-07;100 nA
-0,6005859375;154,564847609761;-1,66168212890625E-08;-0,598602294921875;4;292;2,54348181188107E-07;-2,54348181188107E-07;100 nA
-0,650634765625;155,065335608498;-1,746826171875E-08;-0,648590087890625;4;293;2,54348181188107E-07;-2,54348181188107E-07;100 nA
-0,70068359375;155,565823607234;-1,8255615234375E-08;-0,698577880859375;4;294;2,54348181188107E-07;-2,54348181188107E-07;100 nA
-0,750732421875;156,06631160597;-1,9293212890625E-08;-0,748504638671875;4;295;2,54348181188107E-07;-2,54348181188107E-07;100 nA
-0,80078125;156,566799604707;-2,0318603515625E-08;-0,79833984375;4;296;2,54348181188107E-07;-2,54348181188107E-07;100 nA
-0,850830078125;157,067287603443;-2,13958740234375E-08;-0,8489990234375;4;297;2,54348181188107E-07;-2,54348181188107E-07;100 nA
-0,90087890625;157,56777560218;-2,252197265625E-08;-0,8990478515625;4;298;2,54348181188107E-07;-2,54348181188107E-07;100 nA
-0,950927734375;158,068263600916;-2,3681640625E-08;-0,94940185546875;4;299;2,54348181188107E-07;-2,54348181188107E-07;100 nA
-1,0009765625;158,568751599652;-2,5146484375E-08;-0,9991455078125;4;300;2,54348181188107E-07;-2,54348181188107E-07;100 nA
-0,950927734375;159,069239598389;-2,3406982421875E-08;-0,948486328125;4;301;2,54348181188107E-07;-2,54348181188107E-07;100 nA
-0,90087890625;159,569727597125;-2,2015380859375E-08;-0,89874267578125;4;302;2,54348181188107E-07;-2,54348181188107E-07;100 nA
-0,850830078125;160,070215595862;-2,05841064453125E-08;-0,8489990234375;4;303;2,54348181188107E-07;-2,54348181188107E-07;100 nA
-0,80078125;160,570703594598;-1,92535400390625E-08;-0,79833984375;4;304;2,54348181188107E-07;-2,54348181188107E-07;100 nA
-0,750732421875;161,071191593334;-1,78741455078125E-08;-0,748504638671875;4;305;2,54348181188107E-07;-2,54348181188107E-07;100 nA
-0,70068359375;161,571679592071;-1,65618896484375E-08;-0,698486328125;4;306;2,54348181188107E-07;-2,54348181188107E-07;100 nA
-0,650634765625;162,072167590807;-1,51824951171875E-08;-0,6485595703125;4;307;2,54348181188107E-07;-2,54348181188107E-07;100 nA
-0,6005859375;162,572655589544;-1,38885498046875E-08;-0,598602294921875;4;308;2,54348181188107E-07;-2,54348181188107E-07;100 nA
-0,550537109375;163,07314358828;-1,2445068359375E-08;-0,548736572265625;4;309;2,54348181188107E-07;-2,54348181188107E-07;100 nA
-0,50048828125;163,573631587016;-1,08367919921875E-08;-0,498809814453125;4;310;2,54348181188107E-07;-2,54348181188107E-07;100 nA
-0,450439453125;164,074119585753;-9,307861328125E-09;-0,448883056640625;4;311;2,54348181188107E-07;-2,54348181188107E-07;100 nA
-0,400390625;164,574607584489;-7,965087890625E-09;-0,399017333984375;4;312;2,54348181188107E-07;-2,54348181188107E-07;100 nA
-0,350341796875;165,075095583225;-6,7779541015625E-09;-0,349151611328125;4;313;2,54348181188107E-07;-2,54348181188107E-07;100 nA
-0,30029296875;165,575583581962;-5,5023193359375E-09;-0,29925537109375;4;314;2,54348181188107E-07;-2,54348181188107E-07;100 nA
-0,250244140625;166,076071580698;-4,132080078125E-09;-0,249298095703125;4;315;2,54348181188107E-07;-2,54348181188107E-07;100 nA
-0,2001953125;166,576559579435;-2,7130126953125E-09;-0,19940185546875;4;316;2,54348181188107E-07;-2,54348181188107E-07;100 nA
-0,150146484375;167,077047578171;-1,318359375E-09;-0,149566650390625;4;317;2,54348181188107E-07;-2,54348181188107E-07;100 nA
-0,10009765625;167,577535576907;8,85009765625E-11;-0,099639892578125;4;318;2,54348181188107E-07;-2,54348181188107E-07;100 nA
-0,050048828125;168,078023575644;1,446533203125E-09;-0,049774169921875;4;319;2,54348181188107E-07;-2,54348181188107E-07;100 nA
0;168,57851157438;2,8045654296875E-09;0,000149536132812503;4;320;2,54348181188107E-07;-2,54348181188107E-07;100 nA
0,050048828125;169,078999573117;4,4677734375E-09;0,05010986328125;5;321;2,53103375434875E-07;-2,54481062293053E-07;100 nA
0,10009765625;169,579487571853;5,40771484375E-09;0,10009765625;5;322;2,53103375434875E-07;-2,54481062293053E-07;100 nA
0,150146484375;170,079975570589;5,7647705078125E-09;0,150115966796875;5;323;2,53103375434875E-07;-2,54481062293053E-07;100 nA
0,2001953125;170,580463569326;6,6192626953125E-09;0,200103759765625;5;324;2,53103375434875E-07;-2,54481062293053E-07;100 nA
0,250244140625;171,080951568062;7,6141357421875E-09;0,25006103515625;5;325;2,53103375434875E-07;-2,54481062293053E-07;100 nA
0,30029296875;171,581439566799;8,648681640625E-09;0,300048828125;5;326;2,53103375434875E-07;-2,54481062293053E-07;100 nA
0,350341796875;172,081927565535;9,6649169921875E-09;0,350128173828125;5;327;2,53103375434875E-07;-2,54481062293053E-07;100 nA
0,400390625;172,582415564271;1,06719970703125E-08;0,400115966796875;5;328;2,53103375434875E-07;-2,54481062293053E-07;100 nA
0,450439453125;173,082903563008;1,17401123046875E-08;0,45013427734375;5;329;2,53103375434875E-07;-2,54481062293053E-07;100 nA
0,50048828125;173,583391561744;1,2841796875E-08;0,500091552734375;5;330;2,53103375434875E-07;-2,54481062293053E-07;100 nA
0,550537109375;174,08387956048;1,3958740234375E-08;0,550048828125;5;331;2,53103375434875E-07;-2,54481062293053E-07;100 nA
0,6005859375;174,584367559217;1,51458740234375E-08;0,600067138671875;5;332;2,53103375434875E-07;-2,54481062293053E-07;100 nA
0,650634765625;175,084855557953;1,63848876953125E-08;0,64996337890625;5;333;2,53103375434875E-07;-2,54481062293053E-07;100 nA
0,70068359375;175,58534355669;1,75750732421875E-08;0,69989013671875;5;334;2,53103375434875E-07;-2,54481062293053E-07;100 nA
0,750732421875;176,085831555426;1,88720703125E-08;0,749755859375;5;335;2,53103375434875E-07;-2,54481062293053E-07;100 nA
0,80078125;176,586319554162;2,00897216796875E-08;0,79986572265625;5;336;2,53103375434875E-07;-2,54481062293053E-07;100 nA
0,850830078125;177,086807552899;2,13287353515625E-08;0,8502197265625;5;337;2,53103375434875E-07;-2,54481062293053E-07;100 nA
0,90087890625;177,587295551635;2,2491455078125E-08;0,899658203125;5;338;2,53103375434875E-07;-2,54481062293053E-07;100 nA
0,950927734375;178,087783550372;2,4017333984375E-08;0,94970703125;5;339;2,53103375434875E-07;-2,54481062293053E-07;100 nA
1,0009765625;178,588271549108;2,5634765625E-08;0,999755859375;5;340;2,53103375434875E-07;-2,54481062293053E-07;100 nA
0,950927734375;179,088759547844;2,362060546875E-08;0,95001220703125;5;341;2,53103375434875E-07;-2,54481062293053E-07;100 nA
0,90087890625;179,589247546581;2,1942138671875E-08;0,89935302734375;5;342;2,53103375434875E-07;-2,54481062293053E-07;100 nA
0,850830078125;180,089735545317;2,0684814453125E-08;0,84991455078125;5;343;2,53103375434875E-07;-2,54481062293053E-07;100 nA
0,80078125;180,590223544054;1,934814453125E-08;0,8001708984375;5;344;2,53103375434875E-07;-2,54481062293053E-07;100 nA
0,750732421875;181,09071154279;1,80328369140625E-08;0,749786376953125;5;345;2,53103375434875E-07;-2,54481062293053E-07;100 nA
0,70068359375;181,591199541526;1,678466796875E-08;0,69989013671875;5;346;2,53103375434875E-07;-2,54481062293053E-07;100 nA
0,650634765625;182,091687540263;1,55029296875E-08;0,64990234375;5;347;2,53103375434875E-07;-2,54481062293053E-07;100 nA
0,6005859375;182,592175538999;1,42120361328125E-08;0,5999755859375;5;348;2,53103375434875E-07;-2,54481062293053E-07;100 nA
0,550537109375;183,092663537735;1,29791259765625E-08;0,550048828125;5;349;2,53103375434875E-07;-2,54481062293053E-07;100 nA
0,50048828125;183,593151536472;1,180419921875E-08;0,50006103515625;5;350;2,53103375434875E-07;-2,54481062293053E-07;100 nA
0,450439453125;184,093639535208;1,05133056640625E-08;0,450042724609375;5;351;2,53103375434875E-07;-2,54481062293053E-07;100 nA
0,400390625;184,594127533945;9,2987060546875E-09;0,4000244140625;5;352;2,53103375434875E-07;-2,54481062293053E-07;100 nA
0,350341796875;185,094615532681;8,026123046875E-09;0,350067138671875;5;353;2,53103375434875E-07;-2,54481062293053E-07;100 nA
0,30029296875;185,595103531417;6,72607421875E-09;0,300018310546875;5;354;2,53103375434875E-07;-2,54481062293053E-07;100 nA
0,250244140625;186,095591530154;5,3497314453125E-09;0,25006103515625;5;355;2,53103375434875E-07;-2,54481062293053E-07;100 nA
0,2001953125;186,59607952889;4,0191650390625E-09;0,200042724609375;5;356;2,53103375434875E-07;-2,54481062293053E-07;100 nA
0,150146484375;187,096567527627;2,655029296875E-09;0,150054931640625;5;357;2,53103375434875E-07;-2,54481062293053E-07;100 nA
0,10009765625;187,597055526363;1,116943359375E-09;0,100067138671875;5;358;2,53103375434875E-07;-2,54481062293053E-07;100 nA
0,050048828125;188,097543525099;-1,2969970703125E-09;0,050079345703125;5;359;2,53103375434875E-07;-2,54481062293053E-07;100 nA
0;188,598031523836;-5,291748046875E-09;0,000128173828124994;5;360;2,53103375434875E-07;-2,54481062293053E-07;100 nA
-0,050048828125;189,098519522572;-5,0140380859375E-09;-0,049835205078125;5;361;2,53103375434875E-07;-2,54481062293053E-07;100 nA
-0,10009765625;189,599007521309;-5,1422119140625E-09;-0,09967041015625;5;362;2,53103375434875E-07;-2,54481062293053E-07;100 nA
-0,150146484375;190,099495520045;-6,2042236328125E-09;-0,14959716796875;5;363;2,53103375434875E-07;-2,54481062293053E-07;100 nA
-0,2001953125;190,599983518781;-7,342529296875E-09;-0,199462890625;5;364;2,53103375434875E-07;-2,54481062293053E-07;100 nA
-0,250244140625;191,100471517518;-8,3160400390625E-09;-0,24932861328125;5;365;2,53103375434875E-07;-2,54481062293053E-07;100 nA
-0,30029296875;191,600959516254;-9,21630859375E-09;-0,2991943359375;5;366;2,53103375434875E-07;-2,54481062293053E-07;100 nA
-0,350341796875;192,10144751499;-1,0357666015625E-08;-0,34912109375;5;367;2,53103375434875E-07;-2,54481062293053E-07;100 nA
-0,400390625;192,601935513727;-1,1676025390625E-08;-0,39898681640625;5;368;2,53103375434875E-07;-2,54481062293053E-07;100 nA
-0,450439453125;193,102423512463;-1,302490234375E-08;-0,44891357421875;5;369;2,53103375434875E-07;-2,54481062293053E-07;100 nA
-0,50048828125;193,6029115112;-1,43310546875E-08;-0,498779296875;5;370;2,53103375434875E-07;-2,54481062293053E-07;100 nA
-0,550537109375;194,103399509936;-1,55364990234375E-08;-0,5487060546875;5;371;2,53103375434875E-07;-2,54481062293053E-07;100 nA
-0,6005859375;194,603887508672;-1,6595458984375E-08;-0,598602294921875;5;372;2,53103375434875E-07;-2,54481062293053E-07;100 nA
-0,650634765625;195,104375507409;-1,74957275390625E-08;-0,648590087890625;5;373;2,53103375434875E-07;-2,54481062293053E-07;100 nA
-0,70068359375;195,604863506145;-1,832275390625E-08;-0,69854736328125;5;374;2,53103375434875E-07;-2,54481062293053E-07;100 nA
-0,750732421875;196,105351504882;-1,93267822265625E-08;-0,74853515625;5;375;2,53103375434875E-07;-2,54481062293053E-07;100 nA
-0,80078125;196,605839503618;-2,0391845703125E-08;-0,7989501953125;5;376;2,53103375434875E-07;-2,54481062293053E-07;100 nA
-0,850830078125;197,106327502354;-2,14202880859375E-08;-0,84869384765625;5;377;2,53103375434875E-07;-2,54481062293053E-07;100 nA
-0,90087890625;197,606815501091;-2,26104736328125E-08;-0,89874267578125;5;378;2,53103375434875E-07;-2,54481062293053E-07;100 nA
-0,950927734375;198,107303499827;-2,3681640625E-08;-0,948486328125;5;379;2,53103375434875E-07;-2,54481062293053E-07;100 nA
-1,0009765625;198,607791498564;-2,4932861328125E-08;-0,99853515625;5;380;2,53103375434875E-07;-2,54481062293053E-07;100 nA
-0,950927734375;199,1082794973;-2,3406982421875E-08;-0,948486328125;5;381;2,53103375434875E-07;-2,54481062293053E-07;100 nA
-0,90087890625;199,608767496036;-2,19512939453125E-08;-0,89874267578125;5;382;2,53103375434875E-07;-2,54481062293053E-07;100 nA
-0,850830078125;200,109255494773;-2,0654296875E-08;-0,84930419921875;5;383;2,53103375434875E-07;-2,54481062293053E-07;100 nA
-0,80078125;200,609743493509;-1,9390869140625E-08;-0,79833984375;5;384;2,53103375434875E-07;-2,54481062293053E-07;100 nA
-0,750732421875;201,110231492245;-1,80450439453125E-08;-0,748565673828125;5;385;2,53103375434875E-07;-2,54481062293053E-07;100 nA
-0,70068359375;201,610719490982;-1,66656494140625E-08;-0,698516845703125;5;386;2,53103375434875E-07;-2,54481062293053E-07;100 nA
-0,650634765625;202,111207489718;-1,5301513671875E-08;-0,6485595703125;5;387;2,53103375434875E-07;-2,54481062293053E-07;100 nA
-0,6005859375;202,611695488455;-1,39984130859375E-08;-0,5986328125;5;388;2,53103375434875E-07;-2,54481062293053E-07;100 nA
-0,550537109375;203,112183487191;-1,25274658203125E-08;-0,54876708984375;5;389;2,53103375434875E-07;-2,54481062293053E-07;100 nA
-0,50048828125;203,612671485927;-1,08734130859375E-08;-0,498809814453125;5;390;2,53103375434875E-07;-2,54481062293053E-07;100 nA
-0,450439453125;204,113159484664;-9,3414306640625E-09;-0,44891357421875;5;391;2,53103375434875E-07;-2,54481062293053E-07;100 nA
-0,400390625;204,6136474834;-7,99560546875E-09;-0,399078369140625;5;392;2,53103375434875E-07;-2,54481062293053E-07;100 nA
-0,350341796875;205,114135482137;-6,7657470703125E-09;-0,34918212890625;5;393;2,53103375434875E-07;-2,54481062293053E-07;100 nA
-0,30029296875;205,614623480873;-5,5877685546875E-09;-0,2991943359375;5;394;2,53103375434875E-07;-2,54481062293053E-07;100 nA
-0,250244140625;206,115111479609;-4,254150390625E-09;-0,249359130859375;5;395;2,53103375434875E-07;-2,54481062293053E-07;100 nA
-0,2001953125;206,615599478346;-2,7984619140625E-09;-0,199432373046875;5;396;2,53103375434875E-07;-2,54481062293053E-07;100 nA
-0,150146484375;207,116087477082;-1,37939453125E-09;-0,149566650390625;5;397;2,53103375434875E-07;-2,54481062293053E-07;100 nA
-0,10009765625;207,616575475819;2,13623046875E-11;-0,09967041015625;5;398;2,53103375434875E-07;-2,54481062293053E-07;100 nA
-0,050048828125;208,117063474555;1,4068603515625E-09;-0,0498046875;5;399;2,53103375434875E-07;-2,54481062293053E-07;100 nA
0;208,617551473291;2,728271484375E-09;0,000134277343750003;5;400;2,53103375434875E-07;-2,54481062293053E-07;100 nA
0,050048828125;209,118039472028;4,3792724609375E-09;0,050079345703125;6;401;2,55107283592224E-07;-2,5574266910553E-07;100 nA
0,10009765625;209,618527470764;5,33447265625E-09;0,100067138671875;6;402;2,55107283592224E-07;-2,5574266910553E-07;100 nA
0,150146484375;210,1190154695;5,6610107421875E-09;0,150054931640625;6;403;2,55107283592224E-07;-2,5574266910553E-07;100 nA
0,2001953125;210,619503468237;6,5185546875E-09;0,199981689453125;6;404;2,55107283592224E-07;-2,5574266910553E-07;100 nA
0,250244140625;211,119991466973;7,4310302734375E-09;0,250091552734375;6;405;2,55107283592224E-07;-2,5574266910553E-07;100 nA
0,30029296875;211,62047946571;8,526611328125E-09;0,300048828125;6;406;2,55107283592224E-07;-2,5574266910553E-07;100 nA
0,350341796875;212,120967464446;9,60693359375E-09;0,3499755859375;6;407;2,55107283592224E-07;-2,5574266910553E-07;100 nA
0,400390625;212,621455463182;1,05133056640625E-08;0,40008544921875;6;408;2,55107283592224E-07;-2,5574266910553E-07;100 nA
0,450439453125;213,121943461919;1,16851806640625E-08;0,45001220703125;6;409;2,55107283592224E-07;-2,5574266910553E-07;100 nA
0,50048828125;213,622431460655;1,27685546875E-08;0,500030517578125;6;410;2,55107283592224E-07;-2,5574266910553E-07;100 nA
0,550537109375;214,122919459392;1,39617919921875E-08;0,550018310546875;6;411;2,55107283592224E-07;-2,5574266910553E-07;100 nA
0,6005859375;214,623407458128;1,51519775390625E-08;0,600067138671875;6;412;2,55107283592224E-07;-2,5574266910553E-07;100 nA
0,650634765625;215,123895456864;1,6436767578125E-08;0,649993896484375;6;413;2,55107283592224E-07;-2,5574266910553E-07;100 nA
0,70068359375;215,624383455601;1,763916015625E-08;0,699859619140625;6;414;2,55107283592224E-07;-2,5574266910553E-07;100 nA
0,750732421875;216,124871454337;1,8878173828125E-08;0,749786376953125;6;415;2,55107283592224E-07;-2,5574266910553E-07;100 nA
0,80078125;216,625359453074;2,01446533203125E-08;0,80047607421875;6;416;2,55107283592224E-07;-2,5574266910553E-07;100 nA
0,850830078125;217,12584745181;2,1478271484375E-08;0,84991455078125;6;417;2,55107283592224E-07;-2,5574266910553E-07;100 nA
0,90087890625;217,626335450546;2,28271484375E-08;0,899658203125;6;418;2,55107283592224E-07;-2,5574266910553E-07;100 nA
0,950927734375;218,126823449283;2,4261474609375E-08;0,94970703125;6;419;2,55107283592224E-07;-2,5574266910553E-07;100 nA
1,0009765625;218,627311448019;2,581787109375E-08;0,999755859375;6;420;2,55107283592224E-07;-2,5574266910553E-07;100 nA
0,950927734375;219,127799446755;2,3834228515625E-08;0,94970703125;6;421;2,55107283592224E-07;-2,5574266910553E-07;100 nA
0,90087890625;219,628287445492;2,23846435546875E-08;0,9002685546875;6;422;2,55107283592224E-07;-2,5574266910553E-07;100 nA
0,850830078125;220,128775444228;2,09381103515625E-08;0,849609375;6;423;2,55107283592224E-07;-2,5574266910553E-07;100 nA
0,80078125;220,629263442965;1,96807861328125E-08;0,799560546875;6;424;2,55107283592224E-07;-2,5574266910553E-07;100 nA
0,750732421875;221,129751441701;1,8365478515625E-08;0,749847412109375;6;425;2,55107283592224E-07;-2,5574266910553E-07;100 nA
0,70068359375;221,630239440437;1,70654296875E-08;0,69989013671875;6;426;2,55107283592224E-07;-2,5574266910553E-07;100 nA
0,650634765625;222,130727439174;1,57958984375E-08;0,65008544921875;6;427;2,55107283592224E-07;-2,5574266910553E-07;100 nA
0,6005859375;222,63121543791;1,44622802734375E-08;0,600128173828125;6;428;2,55107283592224E-07;-2,5574266910553E-07;100 nA
0,550537109375;223,131703436647;1,3165283203125E-08;0,550079345703125;6;429;2,55107283592224E-07;-2,5574266910553E-07;100 nA
0,50048828125;223,632191435383;1,19293212890625E-08;0,500152587890625;6;430;2,55107283592224E-07;-2,5574266910553E-07;100 nA
0,450439453125;224,132679434119;1,06689453125E-08;0,450103759765625;6;431;2,55107283592224E-07;-2,5574266910553E-07;100 nA
0,400390625;224,633167432856;9,4390869140625E-09;0,400115966796875;6;432;2,55107283592224E-07;-2,5574266910553E-07;100 nA
0,350341796875;225,133655431592;8,21533203125E-09;0,35009765625;6;433;2,55107283592224E-07;-2,5574266910553E-07;100 nA
0,30029296875;225,634143430329;6,89697265625E-09;0,30010986328125;6;434;2,55107283592224E-07;-2,5574266910553E-07;100 nA
0,250244140625;226,134631429065;5,517578125E-09;0,250030517578125;6;435;2,55107283592224E-07;-2,5574266910553E-07;100 nA
0,2001953125;226,635119427801;4,107666015625E-09;0,200103759765625;6;436;2,55107283592224E-07;-2,5574266910553E-07;100 nA
0,150146484375;227,135607426538;2,6763916015625E-09;0,15008544921875;6;437;2,55107283592224E-07;-2,5574266910553E-07;100 nA
0,10009765625;227,636095425274;1,1627197265625E-09;0,10009765625;6;438;2,55107283592224E-07;-2,5574266910553E-07;100 nA
0,050048828125;228,136583424011;-1,2847900390625E-09;0,050048828125;6;439;2,55107283592224E-07;-2,5574266910553E-07;100 nA
0;228,637071422747;-5,3070068359375E-09;0,0001373291015625;6;440;2,55107283592224E-07;-2,5574266910553E-07;100 nA
-0,050048828125;229,137559421483;-5,0750732421875E-09;-0,0498046875;6;441;2,55107283592224E-07;-2,5574266910553E-07;100 nA
-0,10009765625;229,63804742022;-5,21240234375E-09;-0,09967041015625;6;442;2,55107283592224E-07;-2,5574266910553E-07;100 nA
-0,150146484375;230,138535418956;-6,2957763671875E-09;-0,149627685546875;6;443;2,55107283592224E-07;-2,5574266910553E-07;100 nA
-0,2001953125;230,639023417692;-7,3883056640625E-09;-0,199371337890625;6;444;2,55107283592224E-07;-2,5574266910553E-07;100 nA
-0,250244140625;231,139511416429;-8,4259033203125E-09;-0,249298095703125;6;445;2,55107283592224E-07;-2,5574266910553E-07;100 nA
-0,30029296875;231,639999415165;-9,43603515625E-09;-0,29925537109375;6;446;2,55107283592224E-07;-2,5574266910553E-07;100 nA
-0,350341796875;232,140487413902;-1,06048583984375E-08;-0,349212646484375;6;447;2,55107283592224E-07;-2,5574266910553E-07;100 nA
-0,400390625;232,640975412638;-1,19049072265625E-08;-0,399139404296875;6;448;2,55107283592224E-07;-2,5574266910553E-07;100 nA
-0,450439453125;233,141463411374;-1,32232666015625E-08;-0,448944091796875;6;449;2,55107283592224E-07;-2,5574266910553E-07;100 nA
-0,50048828125;233,641951410111;-1,44775390625E-08;-0,498870849609375;6;450;2,55107283592224E-07;-2,5574266910553E-07;100 nA
-0,550537109375;234,142439408847;-1,57684326171875E-08;-0,54876708984375;6;451;2,55107283592224E-07;-2,5574266910553E-07;100 nA
-0,6005859375;234,642927407584;-1,6845703125E-08;-0,598724365234375;6;452;2,55107283592224E-07;-2,5574266910553E-07;100 nA
-0,650634765625;235,14341540632;-1,7657470703125E-08;-0,6485595703125;6;453;2,55107283592224E-07;-2,5574266910553E-07;100 nA
-0,70068359375;235,643903405056;-1,854248046875E-08;-0,698577880859375;6;454;2,55107283592224E-07;-2,5574266910553E-07;100 nA
-0,750732421875;236,144391403793;-1,93817138671875E-08;-0,748565673828125;6;455;2,55107283592224E-07;-2,5574266910553E-07;100 nA
-0,80078125;236,644879402529;-2,03704833984375E-08;-0,79864501953125;6;456;2,55107283592224E-07;-2,5574266910553E-07;100 nA
-0,850830078125;237,145367401266;-2,15484619140625E-08;-0,8489990234375;6;457;2,55107283592224E-07;-2,5574266910553E-07;100 nA
-0,90087890625;237,645855400002;-2,27569580078125E-08;-0,89874267578125;6;458;2,55107283592224E-07;-2,5574266910553E-07;100 nA
-0,950927734375;238,146343398738;-2,3773193359375E-08;-0,94879150390625;6;459;2,55107283592224E-07;-2,5574266910553E-07;100 nA
-1,0009765625;238,646831397475;-2,5177001953125E-08;-0,9991455078125;6;460;2,55107283592224E-07;-2,5574266910553E-07;100 nA
-0,950927734375;239,147319396211;-2,35198974609375E-08;-0,94879150390625;6;461;2,55107283592224E-07;-2,5574266910553E-07;100 nA
-0,90087890625;239,647807394947;-2,20916748046875E-08;-0,89874267578125;6;462;2,55107283592224E-07;-2,5574266910553E-07;100 nA
-0,850830078125;240,148295393684;-2,06634521484375E-08;-0,84869384765625;6;463;2,55107283592224E-07;-2,5574266910553E-07;100 nA
-0,80078125;240,64878339242;-1,93878173828125E-08;-0,7989501953125;6;464;2,55107283592224E-07;-2,5574266910553E-07;100 nA
-0,750732421875;241,149271391157;-1,80389404296875E-08;-0,74859619140625;6;465;2,55107283592224E-07;-2,5574266910553E-07;100 nA
-0,70068359375;241,649759389893;-1,67510986328125E-08;-0,698486328125;6;466;2,55107283592224E-07;-2,5574266910553E-07;100 nA
-0,650634765625;242,150247388629;-1,53350830078125E-08;-0,648529052734375;6;467;2,55107283592224E-07;-2,5574266910553E-07;100 nA
-0,6005859375;242,650735387366;-1,4056396484375E-08;-0,598602294921875;6;468;2,55107283592224E-07;-2,5574266910553E-07;100 nA
-0,550537109375;243,151223386102;-1,2493896484375E-08;-0,5487060546875;6;469;2,55107283592224E-07;-2,5574266910553E-07;100 nA
-0,50048828125;243,651711384839;-1,08551025390625E-08;-0,49884033203125;6;470;2,55107283592224E-07;-2,5574266910553E-07;100 nA
-0,450439453125;244,152199383575;-9,259033203125E-09;-0,448883056640625;6;471;2,55107283592224E-07;-2,5574266910553E-07;100 nA
-0,400390625;244,652687382311;-7,8857421875E-09;-0,399017333984375;6;472;2,55107283592224E-07;-2,5574266910553E-07;100 nA
-0,350341796875;245,153175381048;-6,65283203125E-09;-0,349151611328125;6;473;2,55107283592224E-07;-2,5574266910553E-07;100 nA
-0,30029296875;245,653663379784;-5,4107666015625E-09;-0,299224853515625;6;474;2,55107283592224E-07;-2,5574266910553E-07;100 nA
-0,250244140625;246,154151378521;-4,1229248046875E-09;-0,24932861328125;6;475;2,55107283592224E-07;-2,5574266910553E-07;100 nA
-0,2001953125;246,654639377257;-2,6947021484375E-09;-0,19940185546875;6;476;2,55107283592224E-07;-2,5574266910553E-07;100 nA
-0,150146484375;247,155127375993;-1,3092041015625E-09;-0,149566650390625;6;477;2,55107283592224E-07;-2,5574266910553E-07;100 nA
-0,10009765625;247,65561537473;1,03759765625E-10;-0,09967041015625;6;478;2,55107283592224E-07;-2,5574266910553E-07;100 nA
-0,050048828125;248,156103373466;1,495361328125E-09;-0,049774169921875;6;479;2,55107283592224E-07;-2,5574266910553E-07;100 nA
0;248,656591372202;2,789306640625E-09;0,000128173828124994;6;480;2,55107283592224E-07;-2,5574266910553E-07;100 nA
0,050048828125;249,157079370939;4,47998046875E-09;0,050079345703125;7;481;2,55111865699291E-07;-2,5556854903698E-07;100 nA
0,10009765625;249,657567369675;5,389404296875E-09;0,100128173828125;7;482;2,55111865699291E-07;-2,5556854903698E-07;100 nA
0,150146484375;250,158055368412;5,7586669921875E-09;0,15008544921875;7;483;2,55111865699291E-07;-2,5556854903698E-07;100 nA
0,2001953125;250,658543367148;6,5643310546875E-09;0,200042724609375;7;484;2,55111865699291E-07;-2,5556854903698E-07;100 nA
0,250244140625;251,159031365884;7,6141357421875E-09;0,250091552734375;7;485;2,55111865699291E-07;-2,5556854903698E-07;100 nA
0,30029296875;251,659519364621;8,6212158203125E-09;0,300079345703125;7;486;2,55111865699291E-07;-2,5556854903698E-07;100 nA
0,350341796875;252,160007363357;9,6160888671875E-09;0,35009765625;7;487;2,55111865699291E-07;-2,5556854903698E-07;100 nA
0,400390625;252,660495362094;1,06842041015625E-08;0,400115966796875;7;488;2,55111865699291E-07;-2,5556854903698E-07;100 nA
0,450439453125;253,16098336083;1,1761474609375E-08;0,450103759765625;7;489;2,55111865699291E-07;-2,5556854903698E-07;100 nA
0,50048828125;253,661471359566;1,285400390625E-08;0,50006103515625;7;490;2,55111865699291E-07;-2,5556854903698E-07;100 nA
0,550537109375;254,161959358303;1,4068603515625E-08;0,550079345703125;7;491;2,55111865699291E-07;-2,5556854903698E-07;100 nA
0,6005859375;254,662447357039;1,51397705078125E-08;0,600067138671875;7;492;2,55111865699291E-07;-2,5556854903698E-07;100 nA
0,650634765625;255,162935355776;1,63787841796875E-08;0,649993896484375;7;493;2,55111865699291E-07;-2,5556854903698E-07;100 nA
0,70068359375;255,663423354512;1,76025390625E-08;0,69989013671875;7;494;2,55111865699291E-07;-2,5556854903698E-07;100 nA
0,750732421875;256,163911353248;1,87774658203125E-08;0,749786376953125;7;495;2,55111865699291E-07;-2,5556854903698E-07;100 nA
0,80078125;256,664399351985;2,005615234375E-08;0,79986572265625;7;496;2,55111865699291E-07;-2,5556854903698E-07;100 nA
0,850830078125;257,164887350721;2,138671875E-08;0,849609375;7;497;2,55111865699291E-07;-2,5556854903698E-07;100 nA
0,90087890625;257,665375349457;2,28118896484375E-08;0,89996337890625;7;498;2,55111865699291E-07;-2,5556854903698E-07;100 nA
0,950927734375;258,165863348194;2,4078369140625E-08;0,94940185546875;7;499;2,55111865699291E-07;-2,5556854903698E-07;100 nA
1,0009765625;258,66635134693;2,57568359375E-08;0,99945068359375;7;500;2,55111865699291E-07;-2,5556854903698E-07;100 nA
0,950927734375;259,166839345667;2,3828125E-08;0,95001220703125;7;501;2,55111865699291E-07;-2,5556854903698E-07;100 nA
0,90087890625;259,667327344403;2,2259521484375E-08;0,89996337890625;7;502;2,55111865699291E-07;-2,5556854903698E-07;100 nA
0,850830078125;260,167815343139;2,08740234375E-08;0,84991455078125;7;503;2,55111865699291E-07;-2,5556854903698E-07;100 nA
0,80078125;260,668303341876;1,9549560546875E-08;0,8001708984375;7;504;2,55111865699291E-07;-2,5556854903698E-07;100 nA
0,750732421875;261,168791340612;1,8280029296875E-08;0,74981689453125;7;505;2,55111865699291E-07;-2,5556854903698E-07;100 nA
0,70068359375;261,669279339349;1,6937255859375E-08;0,699920654296875;7;506;2,55111865699291E-07;-2,5556854903698E-07;100 nA
0,650634765625;262,169767338085;1,56707763671875E-08;0,649993896484375;7;507;2,55111865699291E-07;-2,5556854903698E-07;100 nA
0,6005859375;262,670255336821;1,4404296875E-08;0,60009765625;7;508;2,55111865699291E-07;-2,5556854903698E-07;100 nA
0,550537109375;263,170743335558;1,318359375E-08;0,550079345703125;7;509;2,55111865699291E-07;-2,5556854903698E-07;100 nA
0,50048828125;263,671231334294;1,19842529296875E-08;0,500091552734375;7;510;2,55111865699291E-07;-2,5556854903698E-07;100 nA
0,450439453125;264,171719333031;1,07391357421875E-08;0,45013427734375;7;511;2,55111865699291E-07;-2,5556854903698E-07;100 nA
0,400390625;264,672207331767;9,55810546875E-09;0,40008544921875;7;512;2,55111865699291E-07;-2,5556854903698E-07;100 nA
0,350341796875;265,172695330503;8,23974609375E-09;0,350189208984375;7;513;2,55111865699291E-07;-2,5556854903698E-07;100 nA
0,30029296875;265,67318332924;6,9244384765625E-09;0,30010986328125;7;514;2,55111865699291E-07;-2,5556854903698E-07;100 nA
0,250244140625;266,173671327976;5,5511474609375E-09;0,2501220703125;7;515;2,55111865699291E-07;-2,5556854903698E-07;100 nA
0,2001953125;266,674159326712;4,150390625E-09;0,200103759765625;7;516;2,55111865699291E-07;-2,5556854903698E-07;100 nA
0,150146484375;267,174647325449;2,7099609375E-09;0,150115966796875;7;517;2,55111865699291E-07;-2,5556854903698E-07;100 nA
0,10009765625;267,675135324185;1,2115478515625E-09;0,100067138671875;7;518;2,55111865699291E-07;-2,5556854903698E-07;100 nA
0,050048828125;268,175623322922;-1,239013671875E-09;0,05010986328125;7;519;2,55111865699291E-07;-2,5556854903698E-07;100 nA
0;268,676111321658;-5,2459716796875E-09;0,000140380859374997;7;520;2,55111865699291E-07;-2,5556854903698E-07;100 nA
-0,050048828125;269,176599320394;-5,0445556640625E-09;-0,0498046875;7;521;2,55111865699291E-07;-2,5556854903698E-07;100 nA
-0,10009765625;269,677087319131;-5,206298828125E-09;-0,099700927734375;7;522;2,55111865699291E-07;-2,5556854903698E-07;100 nA
-0,150146484375;270,177575317867;-6,2408447265625E-09;-0,149505615234375;7;523;2,55111865699291E-07;-2,5556854903698E-07;100 nA
-0,2001953125;270,678063316604;-7,373046875E-09;-0,199462890625;7;524;2,55111865699291E-07;-2,5556854903698E-07;100 nA
-0,250244140625;271,17855131534;-8,3709716796875E-09;-0,24932861328125;7;525;2,55111865699291E-07;-2,5556854903698E-07;100 nA
-0,30029296875;271,679039314076;-9,3658447265625E-09;-0,299224853515625;7;526;2,55111865699291E-07;-2,5556854903698E-07;100 nA
-0,350341796875;272,179527312813;-1,0516357421875E-08;-0,349151611328125;7;527;2,55111865699291E-07;-2,5556854903698E-07;100 nA
-0,400390625;272,680015311549;-1,180419921875E-08;-0,399078369140625;7;528;2,55111865699291E-07;-2,5556854903698E-07;100 nA
-0,450439453125;273,180503310286;-1,32049560546875E-08;-0,449005126953125;7;529;2,55111865699291E-07;-2,5556854903698E-07;100 nA
-0,50048828125;273,680991309022;-1,45538330078125E-08;-0,498809814453125;7;530;2,55111865699291E-07;-2,5556854903698E-07;100 nA
-0,550537109375;274,181479307758;-1,57318115234375E-08;-0,548736572265625;7;531;2,55111865699291E-07;-2,5556854903698E-07;100 nA
-0,6005859375;274,681967306495;-1,67388916015625E-08;-0,598602294921875;7;532;2,55111865699291E-07;-2,5556854903698E-07;100 nA
-0,650634765625;275,182455305231;-1,7608642578125E-08;-0,648529052734375;7;533;2,55111865699291E-07;-2,5556854903698E-07;100 nA
-0,70068359375;275,682943303967;-1,85333251953125E-08;-0,6986083984375;7;534;2,55111865699291E-07;-2,5556854903698E-07;100 nA
-0,750732421875;276,183431302704;-1,94000244140625E-08;-0,74853515625;7;535;2,55111865699291E-07;-2,5556854903698E-07;100 nA
-0,80078125;276,68391930144;-2,04376220703125E-08;-0,79833984375;7;536;2,55111865699291E-07;-2,5556854903698E-07;100 nA
-0,850830078125;277,184407300177;-2,15789794921875E-08;-0,8489990234375;7;537;2,55111865699291E-07;-2,5556854903698E-07;100 nA
-0,90087890625;277,684895298913;-2,2796630859375E-08;-0,8984375;7;538;2,55111865699291E-07;-2,5556854903698E-07;100 nA
-0,950927734375;278,185383297649;-2,386474609375E-08;-0,94879150390625;7;539;2,55111865699291E-07;-2,5556854903698E-07;100 nA
-1,0009765625;278,685871296386;-2,508544921875E-08;-0,99945068359375;7;540;2,55111865699291E-07;-2,5556854903698E-07;100 nA
-0,950927734375;279,186359295122;-2,337646484375E-08;-0,948486328125;7;541;2,55111865699291E-07;-2,5556854903698E-07;100 nA
-0,90087890625;279,686847293859;-2,2149658203125E-08;-0,89874267578125;7;542;2,55111865699291E-07;-2,5556854903698E-07;100 nA
-0,850830078125;280,187335292595;-2,0697021484375E-08;-0,84869384765625;7;543;2,55111865699291E-07;-2,5556854903698E-07;100 nA
-0,80078125;280,687823291331;-1,92626953125E-08;-0,79864501953125;7;544;2,55111865699291E-07;-2,5556854903698E-07;100 nA
-0,750732421875;281,188311290068;-1,80572509765625E-08;-0,74859619140625;7;545;2,55111865699291E-07;-2,5556854903698E-07;100 nA
-0,70068359375;281,688799288804;-1,66259765625E-08;-0,698516845703125;7;546;2,55111865699291E-07;-2,5556854903698E-07;100 nA
-0,650634765625;282,189287287541;-1,52313232421875E-08;-0,6485595703125;7;547;2,55111865699291E-07;-2,5556854903698E-07;100 nA
-0,6005859375;282,689775286277;-1,40045166015625E-08;-0,598602294921875;7;548;2,55111865699291E-07;-2,5556854903698E-07;100 nA
-0,550537109375;283,190263285013;-1,24847412109375E-08;-0,5487060546875;7;549;2,55111865699291E-07;-2,5556854903698E-07;100 nA
-0,50048828125;283,69075128375;-1,08154296875E-08;-0,498809814453125;7;550;2,55111865699291E-07;-2,5556854903698E-07;100 nA
-0,450439453125;284,191239282486;-9,2987060546875E-09;-0,44891357421875;7;551;2,55111865699291E-07;-2,5556854903698E-07;100 nA
-0,400390625;284,691727281222;-8,0047607421875E-09;-0,399078369140625;7;552;2,55111865699291E-07;-2,5556854903698E-07;100 nA
-0,350341796875;285,192215279959;-6,7413330078125E-09;-0,349212646484375;7;553;2,55111865699291E-07;-2,5556854903698E-07;100 nA
-0,30029296875;285,692703278695;-5,5877685546875E-09;-0,29925537109375;7;554;2,55111865699291E-07;-2,5556854903698E-07;100 nA
-0,250244140625;286,193191277432;-4,1839599609375E-09;-0,24932861328125;7;555;2,55111865699291E-07;-2,5556854903698E-07;100 nA
-0,2001953125;286,693679276168;-2,8076171875E-09;-0,199462890625;7;556;2,55111865699291E-07;-2,5556854903698E-07;100 nA
-0,150146484375;287,194167274904;-1,3671875E-09;-0,149566650390625;7;557;2,55111865699291E-07;-2,5556854903698E-07;100 nA
-0,10009765625;287,694655273641;5,18798828125E-11;-0,099700927734375;7;558;2,55111865699291E-07;-2,5556854903698E-07;100 nA
-0,050048828125;288,195143272377;1,4404296875E-09;-0,0498046875;7;559;2,55111865699291E-07;-2,5556854903698E-07;100 nA
0;288,695631271114;2,777099609375E-09;0,0001373291015625;7;560;2,55111865699291E-07;-2,5556854903698E-07;100 nA
0,050048828125;289,19611926985;4,4403076171875E-09;0,050079345703125;8;561;2,53909826278687E-07;-2,53922045230865E-07;100 nA
0,10009765625;289,696607268586;5,3314208984375E-09;0,10009765625;8;562;2,53909826278687E-07;-2,53922045230865E-07;100 nA
0,150146484375;290,197095267323;5,65185546875E-09;0,150054931640625;8;563;2,53909826278687E-07;-2,53922045230865E-07;100 nA
0,2001953125;290,697583266059;6,4178466796875E-09;0,199981689453125;8;564;2,53909826278687E-07;-2,53922045230865E-07;100 nA
0,250244140625;291,198071264796;7,4493408203125E-09;0,250030517578125;8;565;2,53909826278687E-07;-2,53922045230865E-07;100 nA
0,30029296875;291,698559263532;8,5174560546875E-09;0,300048828125;8;566;2,53909826278687E-07;-2,53922045230865E-07;100 nA
0,350341796875;292,199047262268;9,5428466796875E-09;0,350006103515625;8;567;2,53909826278687E-07;-2,53922045230865E-07;100 nA
0,400390625;292,699535261005;1,05377197265625E-08;0,400054931640625;8;568;2,53909826278687E-07;-2,53922045230865E-07;100 nA
0,450439453125;293,200023259741;1,16729736328125E-08;0,450042724609375;8;569;2,53909826278687E-07;-2,53922045230865E-07;100 nA
0,50048828125;293,700511258477;1,27899169921875E-08;0,500091552734375;8;570;2,53909826278687E-07;-2,53922045230865E-07;100 nA
0,550537109375;294,200999257214;1,39434814453125E-08;0,550079345703125;8;571;2,53909826278687E-07;-2,53922045230865E-07;100 nA
0,6005859375;294,70148725595;1,5185546875E-08;0,60003662109375;8;572;2,53909826278687E-07;-2,53922045230865E-07;100 nA
0,650634765625;295,201975254687;1,64459228515625E-08;0,64996337890625;8;573;2,53909826278687E-07;-2,53922045230865E-07;100 nA
0,70068359375;295,702463253423;1,76971435546875E-08;0,69989013671875;8;574;2,53909826278687E-07;-2,53922045230865E-07;100 nA
0,750732421875;296,202951252159;1,8963623046875E-08;0,749847412109375;8;575;2,53909826278687E-07;-2,53922045230865E-07;100 nA
0,80078125;296,703439250896;2,020263671875E-08;0,8001708984375;8;576;2,53909826278687E-07;-2,53922045230865E-07;100 nA
0,850830078125;297,203927249632;2,14202880859375E-08;0,84930419921875;8;577;2,53909826278687E-07;-2,53922045230865E-07;100 nA
0,90087890625;297,704415248369;2,27996826171875E-08;0,89996337890625;8;578;2,53909826278687E-07;-2,53922045230865E-07;100 nA
0,950927734375;298,204903247105;2,4169921875E-08;0,94970703125;8;579;2,53909826278687E-07;-2,53922045230865E-07;100 nA
1,0009765625;298,705391245841;2,5665283203125E-08;0,999755859375;8;580;2,53909826278687E-07;-2,53922045230865E-07;100 nA
0,950927734375;299,205879244578;2,374267578125E-08;0,94970703125;8;581;2,53909826278687E-07;-2,53922045230865E-07;100 nA
0,90087890625;299,706367243314;2,2308349609375E-08;0,89996337890625;8;582;2,53909826278687E-07;-2,53922045230865E-07;100 nA
0,850830078125;300,206855242051;2,07733154296875E-08;0,849609375;8;583;2,53909826278687E-07;-2,53922045230865E-07;100 nA
0,80078125;300,707343240787;1,94366455078125E-08;0,799560546875;8;584;2,53909826278687E-07;-2,53922045230865E-07;100 nA
0,750732421875;301,207831239523;1,812744140625E-08;0,74981689453125;8;585;2,53909826278687E-07;-2,53922045230865E-07;100 nA
0,70068359375;301,70831923826;1,6937255859375E-08;0,699920654296875;8;586;2,53909826278687E-07;-2,53922045230865E-07;100 nA
0,650634765625;302,208807236996;1,56219482421875E-08;0,64996337890625;8;587;2,53909826278687E-07;-2,53922045230865E-07;100 nA
0,6005859375;302,709295235733;1,434326171875E-08;0,600067138671875;8;588;2,53909826278687E-07;-2,53922045230865E-07;100 nA
0,550537109375;303,209783234469;1,3031005859375E-08;0,550079345703125;8;589;2,53909826278687E-07;-2,53922045230865E-07;100 nA
0,50048828125;303,710271233205;1,18194580078125E-08;0,500091552734375;8;590;2,53909826278687E-07;-2,53922045230865E-07;100 nA
0,450439453125;304,210759231942;1,05865478515625E-08;0,450042724609375;8;591;2,53909826278687E-07;-2,53922045230865E-07;100 nA
0,400390625;304,711247230678;9,3475341796875E-09;0,4000244140625;8;592;2,53909826278687E-07;-2,53922045230865E-07;100 nA
0,350341796875;305,211735229414;8,0535888671875E-09;0,350128173828125;8;593;2,53909826278687E-07;-2,53922045230865E-07;100 nA
0,30029296875;305,712223228151;6,7596435546875E-09;0,300048828125;8;594;2,53909826278687E-07;-2,53922045230865E-07;100 nA
0,250244140625;306,212711226887;5,3436279296875E-09;0,250030517578125;8;595;2,53909826278687E-07;-2,53922045230865E-07;100 nA
0,2001953125;306,713199225624;3,9337158203125E-09;0,20001220703125;8;596;2,53909826278687E-07;-2,53922045230865E-07;100 nA
0,150146484375;307,21368722436;2,6123046875E-09;0,1500244140625;8;597;2,53909826278687E-07;-2,53922045230865E-07;100 nA
0,10009765625;307,714175223096;1,104736328125E-09;0,100067138671875;8;598;2,53909826278687E-07;-2,53922045230865E-07;100 nA
0,050048828125;308,214663221833;-1,3336181640625E-09;0,050079345703125;8;599;2,53909826278687E-07;-2,53922045230865E-07;100 nA
0;308,715151220569;-5,2703857421875E-09;0,000152587890625;8;600;2,53909826278687E-07;-2,53922045230865E-07;100 nA
-0,050048828125;309,215639219306;-5,059814453125E-09;-0,0498046875;8;601;2,53909826278687E-07;-2,53922045230865E-07;100 nA
-0,10009765625;309,716127218042;-5,133056640625E-09;-0,099639892578125;8;602;2,53909826278687E-07;-2,53922045230865E-07;100 nA
-0,150146484375;310,216615216778;-6,1767578125E-09;-0,14959716796875;8;603;2,53909826278687E-07;-2,53922045230865E-07;100 nA
-0,2001953125;310,717103215515;-7,2509765625E-09;-0,199432373046875;8;604;2,53909826278687E-07;-2,53922045230865E-07;100 nA
-0,250244140625;311,217591214251;-8,197021484375E-09;-0,24932861328125;8;605;2,53909826278687E-07;-2,53922045230865E-07;100 nA
-0,30029296875;311,718079212988;-9,210205078125E-09;-0,299224853515625;8;606;2,53909826278687E-07;-2,53922045230865E-07;100 nA
-0,350341796875;312,218567211724;-1,033935546875E-08;-0,349151611328125;8;607;2,53909826278687E-07;-2,53922045230865E-07;100 nA
-0,400390625;312,71905521046;-1,16485595703125E-08;-0,399017333984375;8;608;2,53909826278687E-07;-2,53922045230865E-07;100 nA
-0,450439453125;313,219543209197;-1,29974365234375E-08;-0,448944091796875;8;609;2,53909826278687E-07;-2,53922045230865E-07;100 nA
-0,50048828125;313,720031207933;-1,42242431640625E-08;-0,498748779296875;8;610;2,53909826278687E-07;-2,53922045230865E-07;100 nA
-0,550537109375;314,220519206669;-1,54083251953125E-08;-0,5487060546875;8;611;2,53909826278687E-07;-2,53922045230865E-07;100 nA
-0,6005859375;314,721007205406;-1,6497802734375E-08;-0,598663330078125;8;612;2,53909826278687E-07;-2,53922045230865E-07;100 nA
-0,650634765625;315,221495204142;-1,7401123046875E-08;-0,648529052734375;8;613;2,53909826278687E-07;-2,53922045230865E-07;100 nA
-0,70068359375;315,721983202879;-1,8157958984375E-08;-0,698516845703125;8;614;2,53909826278687E-07;-2,53922045230865E-07;100 nA
-0,750732421875;316,222471201615;-1,91650390625E-08;-0,74853515625;8;615;2,53909826278687E-07;-2,53922045230865E-07;100 nA
-0,80078125;316,722959200351;-2,02239990234375E-08;-0,79864501953125;8;616;2,53909826278687E-07;-2,53922045230865E-07;100 nA
-0,850830078125;317,223447199088;-2,13623046875E-08;-0,848388671875;8;617;2,53909826278687E-07;-2,53922045230865E-07;100 nA
-0,90087890625;317,723935197824;-2,25799560546875E-08;-0,89874267578125;8;618;2,53909826278687E-07;-2,53922045230865E-07;100 nA
-0,950927734375;318,224423196561;-2,3590087890625E-08;-0,9490966796875;8;619;2,53909826278687E-07;-2,53922045230865E-07;100 nA
-1,0009765625;318,724911195297;-2,508544921875E-08;-0,99884033203125;8;620;2,53909826278687E-07;-2,53922045230865E-07;100 nA
-0,950927734375;319,225399194033;-2,34771728515625E-08;-0,9490966796875;8;621;2,53909826278687E-07;-2,53922045230865E-07;100 nA
-0,90087890625;319,72588719277;-2,19757080078125E-08;-0,8990478515625;8;622;2,53909826278687E-07;-2,53922045230865E-07;100 nA
-0,850830078125;320,226375191506;-2,0587158203125E-08;-0,84869384765625;8;623;2,53909826278687E-07;-2,53922045230865E-07;100 nA
-0,80078125;320,726863190243;-1,9366455078125E-08;-0,79803466796875;8;624;2,53909826278687E-07;-2,53922045230865E-07;100 nA
-0,750732421875;321,227351188979;-1,81365966796875E-08;-0,74853515625;8;625;2,53909826278687E-07;-2,53922045230865E-07;100 nA
-0,70068359375;321,727839187715;-1,67816162109375E-08;-0,698516845703125;8;626;2,53909826278687E-07;-2,53922045230865E-07;100 nA
-0,650634765625;322,228327186452;-1,54571533203125E-08;-0,648590087890625;8;627;2,53909826278687E-07;-2,53922045230865E-07;100 nA
-0,6005859375;322,728815185188;-1,41357421875E-08;-0,5986328125;8;628;2,53909826278687E-07;-2,53922045230865E-07;100 nA
-0,550537109375;323,229303183924;-1,26068115234375E-08;-0,548736572265625;8;629;2,53909826278687E-07;-2,53922045230865E-07;100 nA
-0,50048828125;323,729791182661;-1,09466552734375E-08;-0,49884033203125;8;630;2,53909826278687E-07;-2,53922045230865E-07;100 nA
-0,450439453125;324,230279181397;-9,3780517578125E-09;-0,448944091796875;8;631;2,53909826278687E-07;-2,53922045230865E-07;100 nA
-0,400390625;324,730767180134;-7,9864501953125E-09;-0,399078369140625;8;632;2,53909826278687E-07;-2,53922045230865E-07;100 nA
-0,350341796875;325,23125517887;-6,787109375E-09;-0,349212646484375;8;633;2,53909826278687E-07;-2,53922045230865E-07;100 nA
-0,30029296875;325,731743177606;-5,4290771484375E-09;-0,299224853515625;8;634;2,53909826278687E-07;-2,53922045230865E-07;100 nA
-0,250244140625;326,232231176343;-4,0863037109375E-09;-0,249359130859375;8;635;2,53909826278687E-07;-2,53922045230865E-07;100 nA
-0,2001953125;326,732719175079;-2,655029296875E-09;-0,199432373046875;8;636;2,53909826278687E-07;-2,53922045230865E-07;100 nA
-0,150146484375;327,233207173816;-1,2420654296875E-09;-0,14959716796875;8;637;2,53909826278687E-07;-2,53922045230865E-07;100 nA
-0,10009765625;327,733695172552;1,28173828125E-10;-0,099639892578125;8;638;2,53909826278687E-07;-2,53922045230865E-07;100 nA
-0,050048828125;328,234183171288;1,568603515625E-09;-0,049713134765625;8;639;2,53909826278687E-07;-2,53922045230865E-07;100 nA
0;328,734671170025;2,899169921875E-09;0,000131225585937506;8;640;2,53909826278687E-07;-2,53922045230865E-07;100 nA
0,050048828125;329,235159168761;4,5928955078125E-09;0,05010986328125;9;641;2,53372192382813E-07;-2,53859423100948E-07;100 nA
0,10009765625;329,735647167498;5,38330078125E-09;0,100128173828125;9;642;2,53372192382813E-07;-2,53859423100948E-07;100 nA
0,150146484375;330,236135166234;5,7342529296875E-09;0,150054931640625;9;643;2,53372192382813E-07;-2,53859423100948E-07;100 nA
0,2001953125;330,73662316497;6,5582275390625E-09;0,200042724609375;9;644;2,53372192382813E-07;-2,53859423100948E-07;100 nA
0,250244140625;331,237111163707;7,58056640625E-09;0,25006103515625;9;645;2,53372192382813E-07;-2,53859423100948E-07;100 nA
0,30029296875;331,737599162443;8,587646484375E-09;0,300079345703125;9;646;2,53372192382813E-07;-2,53859423100948E-07;100 nA
0,350341796875;332,238087161179;9,5550537109375E-09;0,350128173828125;9;647;2,53372192382813E-07;-2,53859423100948E-07;100 nA
0,400390625;332,738575159916;1,058349609375E-08;0,400054931640625;9;648;2,53372192382813E-07;-2,53859423100948E-07;100 nA
0,450439453125;333,239063158652;1,1627197265625E-08;0,4500732421875;9;649;2,53372192382813E-07;-2,53859423100948E-07;100 nA
0,50048828125;333,739551157389;1,2738037109375E-08;0,50006103515625;9;650;2,53372192382813E-07;-2,53859423100948E-07;100 nA
0,550537109375;334,240039156125;1,3909912109375E-08;0,550048828125;9;651;2,53372192382813E-07;-2,53859423100948E-07;100 nA
0,6005859375;334,740527154861;1,5118408203125E-08;0,60003662109375;9;652;2,53372192382813E-07;-2,53859423100948E-07;100 nA
0,650634765625;335,241015153598;1,629638671875E-08;0,6500244140625;9;653;2,53372192382813E-07;-2,53859423100948E-07;100 nA
0,70068359375;335,741503152334;1,74407958984375E-08;0,6998291015625;9;654;2,53372192382813E-07;-2,53859423100948E-07;100 nA
0,750732421875;336,241991151071;1,866455078125E-08;0,749755859375;9;655;2,53372192382813E-07;-2,53859423100948E-07;100 nA
0,80078125;336,742479149807;1,9805908203125E-08;0,79986572265625;9;656;2,53372192382813E-07;-2,53859423100948E-07;100 nA
0,850830078125;337,242967148543;2,12371826171875E-08;0,84991455078125;9;657;2,53372192382813E-07;-2,53859423100948E-07;100 nA
0,90087890625;337,74345514728;2,2552490234375E-08;0,899658203125;9;658;2,53372192382813E-07;-2,53859423100948E-07;100 nA
0,950927734375;338,243943146016;2,4017333984375E-08;0,94970703125;9;659;2,53372192382813E-07;-2,53859423100948E-07;100 nA
1,0009765625;338,744431144753;2,557373046875E-08;0,999755859375;9;660;2,53372192382813E-07;-2,53859423100948E-07;100 nA
0,950927734375;339,244919143489;2,3681640625E-08;0,94940185546875;9;661;2,53372192382813E-07;-2,53859423100948E-07;100 nA
0,90087890625;339,745407142225;2,2174072265625E-08;0,89935302734375;9;662;2,53372192382813E-07;-2,53859423100948E-07;100 nA
0,850830078125;340,245895140962;2,0831298828125E-08;0,84991455078125;9;663;2,53372192382813E-07;-2,53859423100948E-07;100 nA
0,80078125;340,746383139698;1,939697265625E-08;0,8001708984375;9;664;2,53372192382813E-07;-2,53859423100948E-07;100 nA
0,750732421875;341,246871138434;1,810302734375E-08;0,749847412109375;9;665;2,53372192382813E-07;-2,53859423100948E-07;100 nA
0,70068359375;341,747359137171;1,68487548828125E-08;0,699920654296875;9;666;2,53372192382813E-07;-2,53859423100948E-07;100 nA
0,650634765625;342,247847135907;1,55975341796875E-08;0,6500244140625;9;667;2,53372192382813E-07;-2,53859423100948E-07;100 nA
0,6005859375;342,748335134644;1,43280029296875E-08;0,60015869140625;9;668;2,53372192382813E-07;-2,53859423100948E-07;100 nA
0,550537109375;343,24882313338;1,30950927734375E-08;0,5501708984375;9;669;2,53372192382813E-07;-2,53859423100948E-07;100 nA
0,50048828125;343,749311132116;1,19720458984375E-08;0,5001220703125;9;670;2,53372192382813E-07;-2,53859423100948E-07;100 nA
0,450439453125;344,249799130853;1,07269287109375E-08;0,450164794921875;9;671;2,53372192382813E-07;-2,53859423100948E-07;100 nA
0,400390625;344,750287129589;9,3353271484375E-09;0,400146484375;9;672;2,53372192382813E-07;-2,53859423100948E-07;100 nA
0,350341796875;345,250775128326;8,1756591796875E-09;0,350128173828125;9;673;2,53372192382813E-07;-2,53859423100948E-07;100 nA
0,30029296875;345,751263127062;6,8145751953125E-09;0,300079345703125;9;674;2,53372192382813E-07;-2,53859423100948E-07;100 nA
0,250244140625;346,251751125798;5,48095703125E-09;0,25006103515625;9;675;2,53372192382813E-07;-2,53859423100948E-07;100 nA
0,2001953125;346,752239124535;4,0985107421875E-09;0,2000732421875;9;676;2,53372192382813E-07;-2,53859423100948E-07;100 nA
0,150146484375;347,252727123271;2,7008056640625E-09;0,150115966796875;9;677;2,53372192382813E-07;-2,53859423100948E-07;100 nA
0,10009765625;347,753215122008;1,1688232421875E-09;0,10009765625;9;678;2,53372192382813E-07;-2,53859423100948E-07;100 nA
0,050048828125;348,253703120744;-1,2420654296875E-09;0,05010986328125;9;679;2,53372192382813E-07;-2,53859423100948E-07;100 nA
0;348,75419111948;-5,2886962890625E-09;0,000149536132812503;9;680;2,53372192382813E-07;-2,53859423100948E-07;100 nA
-0,050048828125;349,254679118217;-5,1177978515625E-09;-0,049774169921875;9;681;2,53372192382813E-07;-2,53859423100948E-07;100 nA
-0,10009765625;349,755167116953;-5,181884765625E-09;-0,099639892578125;9;682;2,53372192382813E-07;-2,53859423100948E-07;100 nA
-0,150146484375;350,255655115689;-6,23779296875E-09;-0,14959716796875;9;683;2,53372192382813E-07;-2,53859423100948E-07;100 nA
-0,2001953125;350,756143114426;-7,3760986328125E-09;-0,199493408203125;9;684;2,53372192382813E-07;-2,53859423100948E-07;100 nA
-0,250244140625;351,256631113162;-8,3160400390625E-09;-0,249359130859375;9;685;2,53372192382813E-07;-2,53859423100948E-07;100 nA
-0,30029296875;351,757119111899;-9,326171875E-09;-0,299285888671875;9;686;2,53372192382813E-07;-2,53859423100948E-07;100 nA
-0,350341796875;352,257607110635;-1,0491943359375E-08;-0,34918212890625;9;687;2,53372192382813E-07;-2,53859423100948E-07;100 nA
-0,400390625;352,758095109371;-1,187744140625E-08;-0,399078369140625;9;688;2,53372192382813E-07;-2,53859423100948E-07;100 nA
-0,450439453125;353,258583108108;-1,3165283203125E-08;-0,448974609375;9;689;2,53372192382813E-07;-2,53859423100948E-07;100 nA
-0,50048828125;353,759071106844;-1,4495849609375E-08;-0,498809814453125;9;690;2,53372192382813E-07;-2,53859423100948E-07;100 nA
-0,550537109375;354,259559105581;-1,566162109375E-08;-0,548736572265625;9;691;2,53372192382813E-07;-2,53859423100948E-07;100 nA
-0,6005859375;354,760047104317;-1,673583984375E-08;-0,598663330078125;9;692;2,53372192382813E-07;-2,53859423100948E-07;100 nA
-0,650634765625;355,260535103053;-1,74560546875E-08;-0,648590087890625;9;693;2,53372192382813E-07;-2,53859423100948E-07;100 nA
-0,70068359375;355,76102310179;-1,82769775390625E-08;-0,698577880859375;9;694;2,53372192382813E-07;-2,53859423100948E-07;100 nA
-0,750732421875;356,261511100526;-1,91558837890625E-08;-0,748565673828125;9;695;2,53372192382813E-07;-2,53859423100948E-07;100 nA
-0,80078125;356,761999099263;-2,02423095703125E-08;-0,7989501953125;9;696;2,53372192382813E-07;-2,53859423100948E-07;100 nA
-0,850830078125;357,262487097999;-2,1038818359375E-08;-0,848388671875;9;697;2,53372192382813E-07;-2,53859423100948E-07;100 nA
-0,90087890625;357,762975096735;-2,2509765625E-08;-0,89874267578125;9;698;2,53372192382813E-07;-2,53859423100948E-07;100 nA
-0,950927734375;358,263463095472;-2,35595703125E-08;-0,948486328125;9;699;2,53372192382813E-07;-2,53859423100948E-07;100 nA
-1,0009765625;358,763951094208;-2,4993896484375E-08;-0,99853515625;9;700;2,53372192382813E-07;-2,53859423100948E-07;100 nA
-0,950927734375;359,264439092944;-2,3309326171875E-08;-0,94879150390625;9;701;2,53372192382813E-07;-2,53859423100948E-07;100 nA
-0,90087890625;359,764927091681;-2,19329833984375E-08;-0,8984375;9;702;2,53372192382813E-07;-2,53859423100948E-07;100 nA
-0,850830078125;360,265415090417;-2,059326171875E-08;-0,8489990234375;9;703;2,53372192382813E-07;-2,53859423100948E-07;100 nA
-0,80078125;360,765903089154;-1,92230224609375E-08;-0,79864501953125;9;704;2,53372192382813E-07;-2,53859423100948E-07;100 nA
-0,750732421875;361,26639108789;-1,783447265625E-08;-0,74853515625;9;705;2,53372192382813E-07;-2,53859423100948E-07;100 nA
-0,70068359375;361,766879086626;-1,65191650390625E-08;-0,698516845703125;9;706;2,53372192382813E-07;-2,53859423100948E-07;100 nA
-0,650634765625;362,267367085363;-1,51580810546875E-08;-0,6485595703125;9;707;2,53372192382813E-07;-2,53859423100948E-07;100 nA
-0,6005859375;362,767855084099;-1,3873291015625E-08;-0,59857177734375;9;708;2,53372192382813E-07;-2,53859423100948E-07;100 nA
-0,550537109375;363,268343082836;-1,24420166015625E-08;-0,5487060546875;9;709;2,53372192382813E-07;-2,53859423100948E-07;100 nA
-0,50048828125;363,768831081572;-1,083984375E-08;-0,49884033203125;9;710;2,53372192382813E-07;-2,53859423100948E-07;100 nA
-0,450439453125;364,269319080308;-9,307861328125E-09;-0,448944091796875;9;711;2,53372192382813E-07;-2,53859423100948E-07;100 nA
-0,400390625;364,769807079045;-7,928466796875E-09;-0,39898681640625;9;712;2,53372192382813E-07;-2,53859423100948E-07;100 nA
-0,350341796875;365,270295077781;-6,72607421875E-09;-0,349151611328125;9;713;2,53372192382813E-07;-2,53859423100948E-07;100 nA
-0,30029296875;365,770783076518;-5,462646484375E-09;-0,29925537109375;9;714;2,53372192382813E-07;-2,53859423100948E-07;100 nA
-0,250244140625;366,271271075254;-4,1473388671875E-09;-0,249359130859375;9;715;2,53372192382813E-07;-2,53859423100948E-07;100 nA
-0,2001953125;366,77175907399;-2,77099609375E-09;-0,199462890625;9;716;2,53372192382813E-07;-2,53859423100948E-07;100 nA
-0,150146484375;367,272247072727;-1,4068603515625E-09;-0,149627685546875;9;717;2,53372192382813E-07;-2,53859423100948E-07;100 nA
-0,10009765625;367,772735071463;5,4931640625E-11;-0,099700927734375;9;718;2,53372192382813E-07;-2,53859423100948E-07;100 nA
-0,050048828125;368,273223070199;1,3885498046875E-09;-0,049774169921875;9;719;2,53372192382813E-07;-2,53859423100948E-07;100 nA
0;368,773711068936;2,7191162109375E-09;0,0001220703125;9;720;2,53372192382813E-07;-2,53859423100948E-07;100 nA
0,050048828125;369,274199067672;4,4677734375E-09;0,050018310546875;10;721;2,53399685025215E-07;-2,5331262499094E-07;100 nA
0,10009765625;369,774687066409;5,2703857421875E-09;0,100067138671875;10;722;2,53399685025215E-07;-2,5331262499094E-07;100 nA
0,150146484375;370,275175065145;5,60302734375E-09;0,15008544921875;10;723;2,53399685025215E-07;-2,5331262499094E-07;100 nA
0,2001953125;370,775663063881;6,4361572265625E-09;0,199981689453125;10;724;2,53399685025215E-07;-2,5331262499094E-07;100 nA
0,250244140625;371,276151062618;7,464599609375E-09;0,250030517578125;10;725;2,53399685025215E-07;-2,5331262499094E-07;100 nA
0,30029296875;371,776639061354;8,4869384765625E-09;0,300079345703125;10;726;2,53399685025215E-07;-2,5331262499094E-07;100 nA
0,350341796875;372,277127060091;9,442138671875E-09;0,35003662109375;10;727;2,53399685025215E-07;-2,5331262499094E-07;100 nA
0,400390625;372,777615058827;1,0601806640625E-08;0,40008544921875;10;728;2,53399685025215E-07;-2,5331262499094E-07;100 nA
0,450439453125;373,278103057563;1,16485595703125E-08;0,4500732421875;10;729;2,53399685025215E-07;-2,5331262499094E-07;100 nA
0,50048828125;373,7785910563;1,27655029296875E-08;0,500030517578125;10;730;2,53399685025215E-07;-2,5331262499094E-07;100 nA
0,550537109375;374,279079055036;1,392822265625E-08;0,550048828125;10;731;2,53399685025215E-07;-2,5331262499094E-07;100 nA
0,6005859375;374,779567053773;1,5203857421875E-08;0,60009765625;10;732;2,53399685025215E-07;-2,5331262499094E-07;100 nA
0,650634765625;375,280055052509;1,63970947265625E-08;0,649993896484375;10;733;2,53399685025215E-07;-2,5331262499094E-07;100 nA
0,70068359375;375,780543051245;1,763916015625E-08;0,699920654296875;10;734;2,53399685025215E-07;-2,5331262499094E-07;100 nA
0,750732421875;376,281031049982;1,88629150390625E-08;0,74981689453125;10;735;2,53399685025215E-07;-2,5331262499094E-07;100 nA
0,80078125;376,781519048718;2,00927734375E-08;0,79925537109375;10;736;2,53399685025215E-07;-2,5331262499094E-07;100 nA
0,850830078125;377,282007047455;2,13775634765625E-08;0,84991455078125;10;737;2,53399685025215E-07;-2,5331262499094E-07;100 nA
0,90087890625;377,782495046191;2,26806640625E-08;0,899658203125;10;738;2,53399685025215E-07;-2,5331262499094E-07;100 nA
0,950927734375;378,282983044927;2,4200439453125E-08;0,95001220703125;10;739;2,53399685025215E-07;-2,5331262499094E-07;100 nA
1,0009765625;378,783471043664;2,5604248046875E-08;0,9991455078125;10;740;2,53399685025215E-07;-2,5331262499094E-07;100 nA
0,950927734375;379,2839590424;2,3858642578125E-08;0,94970703125;10;741;2,53399685025215E-07;-2,5331262499094E-07;100 nA
0,90087890625;379,784447041136;2,2064208984375E-08;0,899658203125;10;742;2,53399685025215E-07;-2,5331262499094E-07;100 nA
0,850830078125;380,284935039873;2,07305908203125E-08;0,84991455078125;10;743;2,53399685025215E-07;-2,5331262499094E-07;100 nA
0,80078125;380,785423038609;1,93634033203125E-08;0,79986572265625;10;744;2,53399685025215E-07;-2,5331262499094E-07;100 nA
0,750732421875;381,285911037346;1,81610107421875E-08;0,749847412109375;10;745;2,53399685025215E-07;-2,5331262499094E-07;100 nA
0,70068359375;381,786399036082;1,68975830078125E-08;0,699951171875;10;746;2,53399685025215E-07;-2,5331262499094E-07;100 nA
0,650634765625;382,286887034818;1,56219482421875E-08;0,650054931640625;10;747;2,53399685025215E-07;-2,5331262499094E-07;100 nA
0,6005859375;382,787375033555;1,43646240234375E-08;0,60003662109375;10;748;2,53399685025215E-07;-2,5331262499094E-07;100 nA
0,550537109375;383,287863032291;1,31317138671875E-08;0,550048828125;10;749;2,53399685025215E-07;-2,5331262499094E-07;100 nA
0,50048828125;383,788351031028;1,187744140625E-08;0,500091552734375;10;750;2,53399685025215E-07;-2,5331262499094E-07;100 nA
0,450439453125;384,288839029764;1,06292724609375E-08;0,450103759765625;10;751;2,53399685025215E-07;-2,5331262499094E-07;100 nA
0,400390625;384,7893270285;9,375E-09;0,400054931640625;10;752;2,53399685025215E-07;-2,5331262499094E-07;100 nA
0,350341796875;385,289815027237;8,074951171875E-09;0,350128173828125;10;753;2,53399685025215E-07;-2,5331262499094E-07;100 nA
0,30029296875;385,790303025973;6,744384765625E-09;0,300048828125;10;754;2,53399685025215E-07;-2,5331262499094E-07;100 nA
0,250244140625;386,29079102471;5,4779052734375E-09;0,250030517578125;10;755;2,53399685025215E-07;-2,5331262499094E-07;100 nA
0,2001953125;386,791279023446;4,058837890625E-09;0,2000732421875;10;756;2,53399685025215E-07;-2,5331262499094E-07;100 nA
0,150146484375;387,291767022182;2,5848388671875E-09;0,150054931640625;10;757;2,53399685025215E-07;-2,5331262499094E-07;100 nA
0,10009765625;387,792255020919;1,080322265625E-09;0,10009765625;10;758;2,53399685025215E-07;-2,5331262499094E-07;100 nA
0,050048828125;388,292743019655;-1,30615234375E-09;0,050079345703125;10;759;2,53399685025215E-07;-2,5331262499094E-07;100 nA
0;388,793231018391;-5,303955078125E-09;0,000131225585937506;10;760;2,53399685025215E-07;-2,5331262499094E-07;100 nA
-0,050048828125;389,293719017128;-5,194091796875E-09;-0,0498046875;10;761;2,53399685025215E-07;-2,5331262499094E-07;100 nA
-0,10009765625;389,794207015864;-5,21240234375E-09;-0,09967041015625;10;762;2,53399685025215E-07;-2,5331262499094E-07;100 nA
-0,150146484375;390,294695014601;-6,2286376953125E-09;-0,14959716796875;10;763;2,53399685025215E-07;-2,5331262499094E-07;100 nA
-0,2001953125;390,795183013337;-7,31201171875E-09;-0,199462890625;10;764;2,53399685025215E-07;-2,5331262499094E-07;100 nA
-0,250244140625;391,295671012073;-8,2763671875E-09;-0,24932861328125;10;765;2,53399685025215E-07;-2,5331262499094E-07;100 nA
-0,30029296875;391,79615901081;-9,3017578125E-09;-0,29931640625;10;766;2,53399685025215E-07;-2,5331262499094E-07;100 nA
-0,350341796875;392,296647009546;-1,0308837890625E-08;-0,3492431640625;10;767;2,53399685025215E-07;-2,5331262499094E-07;100 nA
-0,400390625;392,797135008283;-1,1614990234375E-08;-0,3990478515625;10;768;2,53399685025215E-07;-2,5331262499094E-07;100 nA
-0,450439453125;393,297623007019;-1,29730224609375E-08;-0,44891357421875;10;769;2,53399685025215E-07;-2,5331262499094E-07;100 nA
-0,50048828125;393,798111005755;-1,42181396484375E-08;-0,498809814453125;10;770;2,53399685025215E-07;-2,5331262499094E-07;100 nA
-0,550537109375;394,298599004492;-1,54510498046875E-08;-0,548736572265625;10;771;2,53399685025215E-07;-2,5331262499094E-07;100 nA
-0,6005859375;394,799087003228;-1,64459228515625E-08;-0,598602294921875;10;772;2,53399685025215E-07;-2,5331262499094E-07;100 nA
-0,650634765625;395,299575001965;-1,72698974609375E-08;-0,64849853515625;10;773;2,53399685025215E-07;-2,5331262499094E-07;100 nA
-0,70068359375;395,800063000701;-1,817626953125E-08;-0,698516845703125;10;774;2,53399685025215E-07;-2,5331262499094E-07;100 nA
-0,750732421875;396,300550999437;-1,907958984375E-08;-0,74853515625;10;775;2,53399685025215E-07;-2,5331262499094E-07;100 nA
-0,80078125;396,801038998174;-2,01629638671875E-08;-0,79833984375;10;776;2,53399685025215E-07;-2,5331262499094E-07;100 nA
-0,850830078125;397,30152699691;-2,1221923828125E-08;-0,848388671875;10;777;2,53399685025215E-07;-2,5331262499094E-07;100 nA
-0,90087890625;397,802014995646;-2,24090576171875E-08;-0,89874267578125;10;778;2,53399685025215E-07;-2,5331262499094E-07;100 nA
-0,950927734375;398,302502994383;-2,362060546875E-08;-0,9490966796875;10;779;2,53399685025215E-07;-2,5331262499094E-07;100 nA
-1,0009765625;398,802990993119;-2,496337890625E-08;-0,99853515625;10;780;2,53399685025215E-07;-2,5331262499094E-07;100 nA
-0,950927734375;399,303478991856;-2,3193359375E-08;-0,94879150390625;10;781;2,53399685025215E-07;-2,5331262499094E-07;100 nA
-0,90087890625;399,803966990592;-2,19451904296875E-08;-0,89874267578125;10;782;2,53399685025215E-07;-2,5331262499094E-07;100 nA
-0,850830078125;400,304454989328;-2,05291748046875E-08;-0,84869384765625;10;783;2,53399685025215E-07;-2,5331262499094E-07;100 nA
-0,80078125;400,804942988065;-1,91650390625E-08;-0,79833984375;10;784;2,53399685025215E-07;-2,5331262499094E-07;100 nA
-0,750732421875;401,305430986801;-1,795654296875E-08;-0,748565673828125;10;785;2,53399685025215E-07;-2,5331262499094E-07;100 nA
-0,70068359375;401,805918985538;-1,66015625E-08;-0,69854736328125;10;786;2,53399685025215E-07;-2,5331262499094E-07;100 nA
-0,650634765625;402,306406984274;-1,52618408203125E-08;-0,6485595703125;10;787;2,53399685025215E-07;-2,5331262499094E-07;100 nA
-0,6005859375;402,80689498301;-1,396484375E-08;-0,598663330078125;10;788;2,53399685025215E-07;-2,5331262499094E-07;100 nA
-0,550537109375;403,307382981747;-1,2493896484375E-08;-0,54876708984375;10;789;2,53399685025215E-07;-2,5331262499094E-07;100 nA
-0,50048828125;403,807870980483;-1,0833740234375E-08;-0,498870849609375;10;790;2,53399685025215E-07;-2,5331262499094E-07;100 nA
-0,450439453125;404,30835897922;-9,344482421875E-09;-0,448974609375;10;791;2,53399685025215E-07;-2,5331262499094E-07;100 nA
-0,400390625;404,808846977956;-7,9742431640625E-09;-0,399078369140625;10;792;2,53399685025215E-07;-2,5331262499094E-07;100 nA
-0,350341796875;405,309334976692;-6,7626953125E-09;-0,349151611328125;10;793;2,53399685025215E-07;-2,5331262499094E-07;100 nA
-0,30029296875;405,809822975429;-5,4901123046875E-09;-0,29925537109375;10;794;2,53399685025215E-07;-2,5331262499094E-07;100 nA
-0,250244140625;406,310310974165;-4,19921875E-09;-0,249359130859375;10;795;2,53399685025215E-07;-2,5331262499094E-07;100 nA
-0,2001953125;406,810798972901;-2,813720703125E-09;-0,199462890625;10;796;2,53399685025215E-07;-2,5331262499094E-07;100 nA
-0,150146484375;407,311286971638;-1,4617919921875E-09;-0,149566650390625;10;797;2,53399685025215E-07;-2,5331262499094E-07;100 nA
-0,10009765625;407,811774970374;-8,85009765625E-11;-0,0997314453125;10;798;2,53399685025215E-07;-2,5331262499094E-07;100 nA
-0,050048828125;408,312262969111;1,35498046875E-09;-0,04986572265625;10;799;2,53399685025215E-07;-2,5331262499094E-07;100 nA
0;408,812750967847;2,679443359375E-09;0,000125122070312497;10;800;2,53399685025215E-07;-2,5331262499094E-07;100 nA
