Potential applied (V);Time (s);WE(1).Current (A);WE(1).Potential (V);Scan;Index;Q+;Q-;Current range
0,050048828125;9,18632097680677;1,663818359375E-08;0,050018310546875;1;1;3,10282573103905E-06;-3,1077728793025E-06;100 nA
0,10009765625;9,68680897554316;3,2623291015625E-08;0,100006103515625;1;2;3,10282573103905E-06;-3,1077728793025E-06;100 nA
0,150146484375;10,1872969742795;4,8828125E-08;0,149932861328125;1;3;3,10282573103905E-06;-3,1077728793025E-06;100 nA
0,2001953125;10,6877849730159;6,4910888671875E-08;0,199951171875;1;4;3,10282573103905E-06;-3,1077728793025E-06;100 nA
0,250244140625;11,1882729717523;8,0474853515625E-08;0,249908447265625;1;5;3,10282573103905E-06;-3,1077728793025E-06;100 nA
0,30029296875;11,6887609704887;9,539794921875E-08;0,2999267578125;1;6;3,10282573103905E-06;-3,1077728793025E-06;100 nA
0,350341796875;12,1892489692251;1,1077880859375E-07;0,349884033203125;1;7;3,10282573103905E-06;-3,1077728793025E-06;100 nA
0,400390625;12,6897369679615;1,26068115234375E-07;0,399993896484375;1;8;3,10282573103905E-06;-3,1077728793025E-06;100 nA
0,450439453125;13,1902249666979;1,41448974609375E-07;0,449951171875;1;9;3,10282573103905E-06;-3,1077728793025E-06;100 nA
0,50048828125;13,6907129654343;1,56829833984375E-07;0,4998779296875;1;10;3,10282573103905E-06;-3,1077728793025E-06;100 nA
0,550537109375;14,1912009641707;1,72210693359375E-07;0,549774169921875;1;11;3,10282573103905E-06;-3,1077728793025E-06;100 nA
0,6005859375;14,6916889629071;1,875E-07;0,599761962890625;1;12;3,10282573103905E-06;-3,1077728793025E-06;100 nA
0,650634765625;15,1921769616434;2,027587890625E-07;0,649749755859375;1;13;3,10282573103905E-06;-3,1077728793025E-06;100 nA
0,70068359375;15,6926649603798;2,17987060546875E-07;0,699493408203125;1;14;3,10282573103905E-06;-3,1077728793025E-06;100 nA
0,750732421875;16,1931529591162;2,332763671875E-07;0,7493896484375;1;15;3,10282573103905E-06;-3,1077728793025E-06;100 nA
0,80078125;16,6936409578526;2,48626708984375E-07;0,79986572265625;1;16;3,10282573103905E-06;-3,1077728793025E-06;100 nA
0,850830078125;17,194128956589;2,640380859375E-07;0,849609375;1;17;3,10282573103905E-06;-3,1077728793025E-06;100 nA
0,90087890625;17,6946169553254;2,7947998046875E-07;0,89996337890625;1;18;3,10282573103905E-06;-3,1077728793025E-06;100 nA
0,950927734375;18,1951049540618;2,9486083984375E-07;0,94970703125;1;19;3,10282573103905E-06;-3,1077728793025E-06;100 nA
1,0009765625;18,6955929527982;3,10394287109375E-07;0,9991455078125;1;20;3,10282573103905E-06;-3,1077728793025E-06;100 nA
0,950927734375;19,1960809515346;2,9425048828125E-07;0,94970703125;1;21;3,10282573103905E-06;-3,1077728793025E-06;1 µA
0,90087890625;19,6965689502709;2,78411865234375E-07;0,899658203125;1;22;3,10282573103905E-06;-3,1077728793025E-06;1 µA
0,850830078125;20,1970569490073;2,6275634765625E-07;0,849609375;1;23;3,10282573103905E-06;-3,1077728793025E-06;1 µA
0,80078125;20,6975449477437;2,47161865234375E-07;0,799560546875;1;24;3,10282573103905E-06;-3,1077728793025E-06;1 µA
0,750732421875;21,1980329464801;2,31597900390625E-07;0,74981689453125;1;25;3,10282573103905E-06;-3,1077728793025E-06;1 µA
0,70068359375;21,6985209452165;2,16064453125E-07;0,699920654296875;1;26;3,10282573103905E-06;-3,1077728793025E-06;1 µA
0,650634765625;22,1990089439529;2,00592041015625E-07;0,65008544921875;1;27;3,10282573103905E-06;-3,1077728793025E-06;1 µA
0,6005859375;22,6994969426893;1,85028076171875E-07;0,600067138671875;1;28;3,10282573103905E-06;-3,1077728793025E-06;1 µA
0,550537109375;23,1999849414257;1,695556640625E-07;0,550079345703125;1;29;3,10282573103905E-06;-3,1077728793025E-06;1 µA
0,50048828125;23,7004729401621;1,53961181640625E-07;0,500091552734375;1;30;3,10282573103905E-06;-3,1077728793025E-06;1 µA
0,450439453125;24,2009609388984;1,383056640625E-07;0,450103759765625;1;31;3,10282573103905E-06;-3,1077728793025E-06;1 µA
0,400390625;24,7014489376348;1,226806640625E-07;0,40008544921875;1;32;3,10282573103905E-06;-3,1077728793025E-06;1 µA
0,350341796875;25,2019369363712;1,0693359375E-07;0,35009765625;1;33;3,10282573103905E-06;-3,1077728793025E-06;1 µA
0,30029296875;25,7024249351076;9,112548828125E-08;0,300018310546875;1;34;3,10282573103905E-06;-3,1077728793025E-06;1 µA
0,250244140625;26,202912933844;7,4798583984375E-08;0,25006103515625;1;35;3,10282573103905E-06;-3,1077728793025E-06;1 µA
0,2001953125;26,7034009325804;5,6793212890625E-08;0,200042724609375;1;36;3,10282573103905E-06;-3,1077728793025E-06;1 µA
0,150146484375;27,2038889313168;4,1290283203125E-08;0,150054931640625;1;37;3,10282573103905E-06;-3,1077728793025E-06;1 µA
0,10009765625;27,7043769300532;2,74658203125E-08;0,10003662109375;1;38;3,10282573103905E-06;-3,1077728793025E-06;1 µA
0,050048828125;28,2048649287896;1,22467041015625E-08;0,050048828125;1;39;3,10282573103905E-06;-3,1077728793025E-06;100 nA
0;28,705352927526;-3,125E-09;0,0001220703125;1;40;3,10282573103905E-06;-3,1077728793025E-06;100 nA
-0,050048828125;29,2058409262623;-1,85302734375E-08;-0,049835205078125;1;41;3,10282573103905E-06;-3,1077728793025E-06;100 nA
-0,10009765625;29,7063289249987;-3,3966064453125E-08;-0,09967041015625;1;42;3,10282573103905E-06;-3,1077728793025E-06;100 nA
-0,150146484375;30,2068169237351;-4,9591064453125E-08;-0,149505615234375;1;43;3,10282573103905E-06;-3,1077728793025E-06;100 nA
-0,2001953125;30,7073049224715;-6,5093994140625E-08;-0,1993408203125;1;44;3,10282573103905E-06;-3,1077728793025E-06;100 nA
-0,250244140625;31,2077929212079;-8,0780029296875E-08;-0,249298095703125;1;45;3,10282573103905E-06;-3,1077728793025E-06;100 nA
-0,30029296875;31,7082809199443;-9,6221923828125E-08;-0,299102783203125;1;46;3,10282573103905E-06;-3,1077728793025E-06;100 nA
-0,350341796875;32,2087689186807;-1,11907958984375E-07;-0,349090576171875;1;47;3,10282573103905E-06;-3,1077728793025E-06;100 nA
-0,400390625;32,7092569174171;-1,27410888671875E-07;-0,39892578125;1;48;3,10282573103905E-06;-3,1077728793025E-06;100 nA
-0,450439453125;33,2097449161535;-1,42974853515625E-07;-0,448699951171875;1;49;3,10282573103905E-06;-3,1077728793025E-06;100 nA
-0,50048828125;33,7102329148898;-1,585693359375E-07;-0,498626708984375;1;50;3,10282573103905E-06;-3,1077728793025E-06;100 nA
-0,550537109375;34,2107209136262;-1,7425537109375E-07;-0,548492431640625;1;51;3,10282573103905E-06;-3,1077728793025E-06;100 nA
-0,6005859375;34,7112089123626;-1,8994140625E-07;-0,598388671875;1;52;3,10282573103905E-06;-3,1077728793025E-06;100 nA
-0,650634765625;35,211696911099;-2,0538330078125E-07;-0,64825439453125;1;53;3,10282573103905E-06;-3,1077728793025E-06;100 nA
-0,70068359375;35,7121849098354;-2,20458984375E-07;-0,698150634765625;1;54;3,10282573103905E-06;-3,1077728793025E-06;100 nA
-0,750732421875;36,2126729085718;-2,35321044921875E-07;-0,748199462890625;1;55;3,10282573103905E-06;-3,1077728793025E-06;100 nA
-0,80078125;36,7131609073082;-2,50274658203125E-07;-0,7989501953125;1;56;3,10282573103905E-06;-3,1077728793025E-06;100 nA
-0,850830078125;37,2136489060446;-2,6556396484375E-07;-0,84869384765625;1;57;3,10282573103905E-06;-3,1077728793025E-06;100 nA
-0,90087890625;37,714136904781;-2,80853271484375E-07;-0,8990478515625;1;58;3,10282573103905E-06;-3,1077728793025E-06;100 nA
-0,950927734375;38,2146249035173;-2,960205078125E-07;-0,94879150390625;1;59;3,10282573103905E-06;-3,1077728793025E-06;100 nA
-1,0009765625;38,7151129022537;-3,1103515625E-07;-0,99884033203125;1;60;3,10282573103905E-06;-3,1077728793025E-06;100 nA
-0,950927734375;39,2156009009901;-2,94036865234375E-07;-0,94879150390625;1;61;3,10282573103905E-06;-3,1077728793025E-06;1 µA
-0,90087890625;39,7160888997265;-2,77862548828125E-07;-0,8984375;1;62;3,10282573103905E-06;-3,1077728793025E-06;1 µA
-0,850830078125;40,2165768984629;-2,61932373046875E-07;-0,84869384765625;1;63;3,10282573103905E-06;-3,1077728793025E-06;1 µA
-0,80078125;40,7170648971993;-2,462158203125E-07;-0,79833984375;1;64;3,10282573103905E-06;-3,1077728793025E-06;1 µA
-0,750732421875;41,2175528959357;-2,30560302734375E-07;-0,748565673828125;1;65;3,10282573103905E-06;-3,1077728793025E-06;1 µA
-0,70068359375;41,7180408946721;-2,14935302734375E-07;-0,6986083984375;1;66;3,10282573103905E-06;-3,1077728793025E-06;1 µA
-0,650634765625;42,2185288934085;-1,99310302734375E-07;-0,648529052734375;1;67;3,10282573103905E-06;-3,1077728793025E-06;1 µA
-0,6005859375;42,7190168921449;-1,8359375E-07;-0,598602294921875;1;68;3,10282573103905E-06;-3,1077728793025E-06;1 µA
-0,550537109375;43,2195048908812;-1,67694091796875E-07;-0,54876708984375;1;69;3,10282573103905E-06;-3,1077728793025E-06;1 µA
-0,50048828125;43,7199928896176;-1,5185546875E-07;-0,49884033203125;1;70;3,10282573103905E-06;-3,1077728793025E-06;1 µA
-0,450439453125;44,220480888354;-1,35986328125E-07;-0,448974609375;1;71;3,10282573103905E-06;-3,1077728793025E-06;1 µA
-0,400390625;44,7209688870904;-1,20330810546875E-07;-0,3990478515625;1;72;3,10282573103905E-06;-3,1077728793025E-06;1 µA
-0,350341796875;45,2214568858268;-1,04736328125E-07;-0,349212646484375;1;73;3,10282573103905E-06;-3,1077728793025E-06;1 µA
-0,30029296875;45,7219448845632;-8,9202880859375E-08;-0,299224853515625;1;74;3,10282573103905E-06;-3,1077728793025E-06;1 µA
-0,250244140625;46,2224328832996;-7,366943359375E-08;-0,24932861328125;1;75;3,10282573103905E-06;-3,1077728793025E-06;1 µA
-0,2001953125;46,722920882036;-5,804443359375E-08;-0,199462890625;1;76;3,10282573103905E-06;-3,1077728793025E-06;1 µA
-0,150146484375;47,2234088807724;-4,2816162109375E-08;-0,149566650390625;1;77;3,10282573103905E-06;-3,1077728793025E-06;1 µA
-0,10009765625;47,7238968795087;-2,740478515625E-08;-0,0997314453125;1;78;3,10282573103905E-06;-3,1077728793025E-06;1 µA
-0,050048828125;48,2243848782451;-1,20147705078125E-08;-0,0498046875;1;79;3,10282573103905E-06;-3,1077728793025E-06;100 nA
0;48,7248728769815;3,4454345703125E-09;0,000109863281249997;1;80;3,10282573103905E-06;-3,1077728793025E-06;100 nA
0,050048828125;49,2253608757179;1,900634765625E-08;0,050018310546875;2;81;3,11462312936783E-06;-3,10390558093786E-06;100 nA
0,10009765625;49,7258488744543;3,4393310546875E-08;0,10003662109375;2;82;3,11462312936783E-06;-3,10390558093786E-06;100 nA
0,150146484375;50,2263368731907;5,029296875E-08;0,14990234375;2;83;3,11462312936783E-06;-3,10390558093786E-06;100 nA
0,2001953125;50,7268248719271;6,6314697265625E-08;0,199920654296875;2;84;3,11462312936783E-06;-3,10390558093786E-06;100 nA
0,250244140625;51,2273128706635;8,123779296875E-08;0,24993896484375;2;85;3,11462312936783E-06;-3,10390558093786E-06;100 nA
0,30029296875;51,7278008693999;9,637451171875E-08;0,2999267578125;2;86;3,11462312936783E-06;-3,10390558093786E-06;100 nA
0,350341796875;52,2282888681362;1,116943359375E-07;0,34991455078125;2;87;3,11462312936783E-06;-3,10390558093786E-06;100 nA
0,400390625;52,7287768668726;1,26861572265625E-07;0,399932861328125;2;88;3,11462312936783E-06;-3,10390558093786E-06;100 nA
0,450439453125;53,229264865609;1,4215087890625E-07;0,44989013671875;2;89;3,11462312936783E-06;-3,10390558093786E-06;100 nA
0,50048828125;53,7297528643454;1,57470703125E-07;0,499786376953125;2;90;3,11462312936783E-06;-3,10390558093786E-06;100 nA
0,550537109375;54,2302408630818;1,72760009765625E-07;0,549774169921875;2;91;3,11462312936783E-06;-3,10390558093786E-06;100 nA
0,6005859375;54,7307288618182;1,88140869140625E-07;0,59979248046875;2;92;3,11462312936783E-06;-3,10390558093786E-06;100 nA
0,650634765625;55,2312168605546;2,0361328125E-07;0,649627685546875;2;93;3,11462312936783E-06;-3,10390558093786E-06;100 nA
0,70068359375;55,731704859291;2,18963623046875E-07;0,699462890625;2;94;3,11462312936783E-06;-3,10390558093786E-06;100 nA
0,750732421875;56,2321928580274;2,342529296875E-07;0,749420166015625;2;95;3,11462312936783E-06;-3,10390558093786E-06;100 nA
0,80078125;56,7326808567638;2,493896484375E-07;0,8001708984375;2;96;3,11462312936783E-06;-3,10390558093786E-06;100 nA
0,850830078125;57,2331688555001;2,646484375E-07;0,84991455078125;2;97;3,11462312936783E-06;-3,10390558093786E-06;100 nA
0,90087890625;57,7336568542365;2,79998779296875E-07;0,899658203125;2;98;3,11462312936783E-06;-3,10390558093786E-06;100 nA
0,950927734375;58,2341448529729;2,95440673828125E-07;0,94970703125;2;99;3,11462312936783E-06;-3,10390558093786E-06;100 nA
1,0009765625;58,7346328517093;3,1085205078125E-07;0,9991455078125;2;100;3,11462312936783E-06;-3,10390558093786E-06;100 nA
0,950927734375;59,2351208504457;2,94586181640625E-07;0,94940185546875;2;101;3,11462312936783E-06;-3,10390558093786E-06;1 µA
0,90087890625;59,7356088491821;2,78656005859375E-07;0,89935302734375;2;102;3,11462312936783E-06;-3,10390558093786E-06;1 µA
0,850830078125;60,2360968479185;2,630615234375E-07;0,84991455078125;2;103;3,11462312936783E-06;-3,10390558093786E-06;1 µA
0,80078125;60,7365848466549;2,47406005859375E-07;0,79986572265625;2;104;3,11462312936783E-06;-3,10390558093786E-06;1 µA
0,750732421875;61,2370728453913;2,31781005859375E-07;0,749847412109375;2;105;3,11462312936783E-06;-3,10390558093786E-06;1 µA
0,70068359375;61,7375608441276;2,16278076171875E-07;0,69989013671875;2;106;3,11462312936783E-06;-3,10390558093786E-06;1 µA
0,650634765625;62,238048842864;2,00775146484375E-07;0,6500244140625;2;107;3,11462312936783E-06;-3,10390558093786E-06;1 µA
0,6005859375;62,7385368416004;1,85302734375E-07;0,60003662109375;2;108;3,11462312936783E-06;-3,10390558093786E-06;1 µA
0,550537109375;63,2390248403368;1,69769287109375E-07;0,55010986328125;2;109;3,11462312936783E-06;-3,10390558093786E-06;1 µA
0,50048828125;63,7395128390732;1,541748046875E-07;0,50006103515625;2;110;3,11462312936783E-06;-3,10390558093786E-06;1 µA
0,450439453125;64,2400008378096;1,3873291015625E-07;0,450042724609375;2;111;3,11462312936783E-06;-3,10390558093786E-06;1 µA
0,400390625;64,740488836546;1,23077392578125E-07;0,400054931640625;2;112;3,11462312936783E-06;-3,10390558093786E-06;1 µA
0,350341796875;65,2409768352824;1,072998046875E-07;0,350067138671875;2;113;3,11462312936783E-06;-3,10390558093786E-06;1 µA
0,30029296875;65,7414648340188;9,1461181640625E-08;0,30010986328125;2;114;3,11462312936783E-06;-3,10390558093786E-06;1 µA
0,250244140625;66,2419528327551;7,5408935546875E-08;0,250091552734375;2;115;3,11462312936783E-06;-3,10390558093786E-06;1 µA
0,2001953125;66,7424408314915;5,8074951171875E-08;0,200103759765625;2;116;3,11462312936783E-06;-3,10390558093786E-06;1 µA
0,150146484375;67,2429288302279;4,0618896484375E-08;0,15008544921875;2;117;3,11462312936783E-06;-3,10390558093786E-06;1 µA
0,10009765625;67,7434168289643;2,7130126953125E-08;0,10009765625;2;118;3,11462312936783E-06;-3,10390558093786E-06;1 µA
0,050048828125;68,2439048277007;1,21734619140625E-08;0,050079345703125;2;119;3,11462312936783E-06;-3,10390558093786E-06;100 nA
0;68,7443928264371;-3,192138671875E-09;0,000128173828124994;2;120;3,11462312936783E-06;-3,10390558093786E-06;100 nA
-0,050048828125;69,2448808251735;-1,85546875E-08;-0,04971923828125;2;121;3,11462312936783E-06;-3,10390558093786E-06;100 nA
-0,10009765625;69,7453688239099;-3,3935546875E-08;-0,09967041015625;2;122;3,11462312936783E-06;-3,10390558093786E-06;100 nA
-0,150146484375;70,2458568226463;-4,949951171875E-08;-0,149505615234375;2;123;3,11462312936783E-06;-3,10390558093786E-06;100 nA
-0,2001953125;70,7463448213827;-6,4971923828125E-08;-0,19940185546875;2;124;3,11462312936783E-06;-3,10390558093786E-06;100 nA
-0,250244140625;71,246832820119;-8,0474853515625E-08;-0,249298095703125;2;125;3,11462312936783E-06;-3,10390558093786E-06;100 nA
-0,30029296875;71,7473208188554;-9,5977783203125E-08;-0,299102783203125;2;126;3,11462312936783E-06;-3,10390558093786E-06;100 nA
-0,350341796875;72,2478088175918;-1,11602783203125E-07;-0,3489990234375;2;127;3,11462312936783E-06;-3,10390558093786E-06;100 nA
-0,400390625;72,7482968163282;-1,27166748046875E-07;-0,398895263671875;2;128;3,11462312936783E-06;-3,10390558093786E-06;100 nA
-0,450439453125;73,2487848150646;-1,427001953125E-07;-0,448760986328125;2;129;3,11462312936783E-06;-3,10390558093786E-06;100 nA
-0,50048828125;73,749272813801;-1,58203125E-07;-0,4986572265625;2;130;3,11462312936783E-06;-3,10390558093786E-06;100 nA
-0,550537109375;74,2497608125374;-1,73828125E-07;-0,548553466796875;2;131;3,11462312936783E-06;-3,10390558093786E-06;100 nA
-0,6005859375;74,7502488112738;-1,89178466796875E-07;-0,598388671875;2;132;3,11462312936783E-06;-3,10390558093786E-06;100 nA
-0,650634765625;75,2507368100102;-2,04345703125E-07;-0,648345947265625;2;133;3,11462312936783E-06;-3,10390558093786E-06;100 nA
-0,70068359375;75,7512248087465;-2,19390869140625E-07;-0,698150634765625;2;134;3,11462312936783E-06;-3,10390558093786E-06;100 nA
-0,750732421875;76,2517128074829;-2,344970703125E-07;-0,748260498046875;2;135;3,11462312936783E-06;-3,10390558093786E-06;100 nA
-0,80078125;76,7522008062193;-2,49847412109375E-07;-0,79864501953125;2;136;3,11462312936783E-06;-3,10390558093786E-06;100 nA
-0,850830078125;77,2526888049557;-2,6519775390625E-07;-0,84930419921875;2;137;3,11462312936783E-06;-3,10390558093786E-06;100 nA
-0,90087890625;77,7531768036921;-2,80517578125E-07;-0,89813232421875;2;138;3,11462312936783E-06;-3,10390558093786E-06;100 nA
-0,950927734375;78,2536648024285;-2,95654296875E-07;-0,94818115234375;2;139;3,11462312936783E-06;-3,10390558093786E-06;100 nA
-1,0009765625;78,7541528011649;-3,106689453125E-07;-0,99884033203125;2;140;3,11462312936783E-06;-3,10390558093786E-06;100 nA
-0,950927734375;79,2546407999013;-2,93792724609375E-07;-0,94940185546875;2;141;3,11462312936783E-06;-3,10390558093786E-06;1 µA
-0,90087890625;79,7551287986377;-2,77923583984375E-07;-0,8990478515625;2;142;3,11462312936783E-06;-3,10390558093786E-06;1 µA
-0,850830078125;80,255616797374;-2,62054443359375E-07;-0,8489990234375;2;143;3,11462312936783E-06;-3,10390558093786E-06;1 µA
-0,80078125;80,7561047961104;-2,46307373046875E-07;-0,79833984375;2;144;3,11462312936783E-06;-3,10390558093786E-06;1 µA
-0,750732421875;81,2565927948468;-2,305908203125E-07;-0,74859619140625;2;145;3,11462312936783E-06;-3,10390558093786E-06;1 µA
-0,70068359375;81,7570807935832;-2,149658203125E-07;-0,69854736328125;2;146;3,11462312936783E-06;-3,10390558093786E-06;1 µA
-0,650634765625;82,2575687923196;-1,99310302734375E-07;-0,6485595703125;2;147;3,11462312936783E-06;-3,10390558093786E-06;1 µA
-0,6005859375;82,758056791056;-1,8365478515625E-07;-0,598602294921875;2;148;3,11462312936783E-06;-3,10390558093786E-06;1 µA
-0,550537109375;83,2585447897924;-1,67877197265625E-07;-0,548736572265625;2;149;3,11462312936783E-06;-3,10390558093786E-06;1 µA
-0,50048828125;83,7590327885288;-1,5191650390625E-07;-0,498809814453125;2;150;3,11462312936783E-06;-3,10390558093786E-06;1 µA
-0,450439453125;84,2595207872652;-1,3604736328125E-07;-0,448883056640625;2;151;3,11462312936783E-06;-3,10390558093786E-06;1 µA
-0,400390625;84,7600087860015;-1,20391845703125E-07;-0,399078369140625;2;152;3,11462312936783E-06;-3,10390558093786E-06;1 µA
-0,350341796875;85,2604967847379;-1,04766845703125E-07;-0,349151611328125;2;153;3,11462312936783E-06;-3,10390558093786E-06;1 µA
-0,30029296875;85,7609847834743;-8,917236328125E-08;-0,29925537109375;2;154;3,11462312936783E-06;-3,10390558093786E-06;1 µA
-0,250244140625;86,2614727822107;-7,3638916015625E-08;-0,249359130859375;2;155;3,11462312936783E-06;-3,10390558093786E-06;1 µA
-0,2001953125;86,7619607809471;-5,810546875E-08;-0,199462890625;2;156;3,11462312936783E-06;-3,10390558093786E-06;1 µA
-0,150146484375;87,2624487796835;-4,26025390625E-08;-0,149566650390625;2;157;3,11462312936783E-06;-3,10390558093786E-06;1 µA
-0,10009765625;87,7629367784199;-2,728271484375E-08;-0,09967041015625;2;158;3,11462312936783E-06;-3,10390558093786E-06;1 µA
-0,050048828125;88,2634247771563;-1,19476318359375E-08;-0,049725341796875;2;159;3,11462312936783E-06;-3,10390558093786E-06;100 nA
0;88,7639127758927;3,5430908203125E-09;0,000149536132812503;2;160;3,11462312936783E-06;-3,10390558093786E-06;100 nA
0,050048828125;89,2644007746291;1,9140625E-08;0,050140380859375;3;161;3,11530739068985E-06;-3,10185126960278E-06;100 nA
0,10009765625;89,7648887733654;3,466796875E-08;0,10003662109375;3;162;3,11530739068985E-06;-3,10185126960278E-06;100 nA
0,150146484375;90,2653767721018;5,0567626953125E-08;0,14996337890625;3;163;3,11530739068985E-06;-3,10185126960278E-06;100 nA
0,2001953125;90,7658647708382;6,6436767578125E-08;0,199920654296875;3;164;3,11530739068985E-06;-3,10185126960278E-06;100 nA
0,250244140625;91,2663527695746;8,1390380859375E-08;0,249969482421875;3;165;3,11530739068985E-06;-3,10185126960278E-06;100 nA
0,30029296875;91,766840768311;9,65576171875E-08;0,299957275390625;3;166;3,11530739068985E-06;-3,10185126960278E-06;100 nA
0,350341796875;92,2673287670474;1,11846923828125E-07;0,3499755859375;3;167;3,11530739068985E-06;-3,10185126960278E-06;100 nA
0,400390625;92,7678167657838;1,270751953125E-07;0,39996337890625;3;168;3,11530739068985E-06;-3,10185126960278E-06;100 nA
0,450439453125;93,2683047645202;1,42303466796875E-07;0,449920654296875;3;169;3,11530739068985E-06;-3,10185126960278E-06;100 nA
0,50048828125;93,7687927632566;1,575927734375E-07;0,499908447265625;3;170;3,11530739068985E-06;-3,10185126960278E-06;100 nA
0,550537109375;94,2692807619929;1,72882080078125E-07;0,549774169921875;3;171;3,11530739068985E-06;-3,10185126960278E-06;100 nA
0,6005859375;94,7697687607293;1,88262939453125E-07;0,59979248046875;3;172;3,11530739068985E-06;-3,10185126960278E-06;100 nA
0,650634765625;95,2702567594657;2,03643798828125E-07;0,64971923828125;3;173;3,11530739068985E-06;-3,10185126960278E-06;100 nA
0,70068359375;95,7707447582021;2,1905517578125E-07;0,69952392578125;3;174;3,11530739068985E-06;-3,10185126960278E-06;100 nA
0,750732421875;96,2712327569385;2,34283447265625E-07;0,749420166015625;3;175;3,11530739068985E-06;-3,10185126960278E-06;100 nA
0,80078125;96,7717207556749;2,4951171875E-07;0,79986572265625;3;176;3,11530739068985E-06;-3,10185126960278E-06;100 nA
0,850830078125;97,2722087544113;2,64739990234375E-07;0,849609375;3;177;3,11530739068985E-06;-3,10185126960278E-06;100 nA
0,90087890625;97,7726967531477;2,79998779296875E-07;0,89996337890625;3;178;3,11530739068985E-06;-3,10185126960278E-06;100 nA
0,950927734375;98,2731847518841;2,95318603515625E-07;0,94970703125;3;179;3,11530739068985E-06;-3,10185126960278E-06;100 nA
1,0009765625;98,7736727506204;3,1060791015625E-07;0,999755859375;3;180;3,11530739068985E-06;-3,10185126960278E-06;100 nA
0,950927734375;99,2741607493568;2,9449462890625E-07;0,94940185546875;3;181;3,11530739068985E-06;-3,10185126960278E-06;1 µA
0,90087890625;99,7746487480932;2,78564453125E-07;0,89996337890625;3;182;3,11530739068985E-06;-3,10185126960278E-06;1 µA
0,850830078125;100,27513674683;2,62847900390625E-07;0,849609375;3;183;3,11530739068985E-06;-3,10185126960278E-06;1 µA
0,80078125;100,775624745566;2,4725341796875E-07;0,80047607421875;3;184;3,11530739068985E-06;-3,10185126960278E-06;1 µA
0,750732421875;101,276112744302;2,3175048828125E-07;0,749847412109375;3;185;3,11530739068985E-06;-3,10185126960278E-06;1 µA
0,70068359375;101,776600743039;2,16094970703125E-07;0,69989013671875;3;186;3,11530739068985E-06;-3,10185126960278E-06;1 µA
0,650634765625;102,277088741775;2,0062255859375E-07;0,649993896484375;3;187;3,11530739068985E-06;-3,10185126960278E-06;1 µA
0,6005859375;102,777576740512;1,851806640625E-07;0,600067138671875;3;188;3,11530739068985E-06;-3,10185126960278E-06;1 µA
0,550537109375;103,278064739248;1,69677734375E-07;0,550079345703125;3;189;3,11530739068985E-06;-3,10185126960278E-06;1 µA
0,50048828125;103,778552737984;1,54144287109375E-07;0,500091552734375;3;190;3,11530739068985E-06;-3,10185126960278E-06;1 µA
0,450439453125;104,279040736721;1,38580322265625E-07;0,4500732421875;3;191;3,11530739068985E-06;-3,10185126960278E-06;1 µA
0,400390625;104,779528735457;1,23046875E-07;0,40008544921875;3;192;3,11530739068985E-06;-3,10185126960278E-06;1 µA
0,350341796875;105,280016734194;1,07330322265625E-07;0,350067138671875;3;193;3,11530739068985E-06;-3,10185126960278E-06;1 µA
0,30029296875;105,78050473293;9,149169921875E-08;0,300048828125;3;194;3,11530739068985E-06;-3,10185126960278E-06;1 µA
0,250244140625;106,280992731666;7,5531005859375E-08;0,25006103515625;3;195;3,11530739068985E-06;-3,10185126960278E-06;1 µA
0,2001953125;106,781480730403;5,8624267578125E-08;0,2000732421875;3;196;3,11530739068985E-06;-3,10185126960278E-06;1 µA
0,150146484375;107,281968729139;4,06494140625E-08;0,15008544921875;3;197;3,11530739068985E-06;-3,10185126960278E-06;1 µA
0,10009765625;107,782456727875;2,6947021484375E-08;0,10009765625;3;198;3,11530739068985E-06;-3,10185126960278E-06;1 µA
0,050048828125;108,282944726612;1,21429443359375E-08;0,050018310546875;3;199;3,11530739068985E-06;-3,10185126960278E-06;100 nA
0;108,783432725348;-3,167724609375E-09;0,000131225585937506;3;200;3,11530739068985E-06;-3,10185126960278E-06;100 nA
-0,050048828125;109,283920724085;-1,8603515625E-08;-0,049774169921875;3;201;3,11530739068985E-06;-3,10185126960278E-06;100 nA
-0,10009765625;109,784408722821;-3,3966064453125E-08;-0,099639892578125;3;202;3,11530739068985E-06;-3,10185126960278E-06;100 nA
-0,150146484375;110,284896721557;-4,9468994140625E-08;-0,14947509765625;3;203;3,11530739068985E-06;-3,10185126960278E-06;100 nA
-0,2001953125;110,785384720294;-6,4971923828125E-08;-0,199371337890625;3;204;3,11530739068985E-06;-3,10185126960278E-06;100 nA
-0,250244140625;111,28587271903;-8,0474853515625E-08;-0,249267578125;3;205;3,11530739068985E-06;-3,10185126960278E-06;100 nA
-0,30029296875;111,786360717767;-9,600830078125E-08;-0,29913330078125;3;206;3,11530739068985E-06;-3,10185126960278E-06;100 nA
-0,350341796875;112,286848716503;-1,11541748046875E-07;-0,3489990234375;3;207;3,11530739068985E-06;-3,10185126960278E-06;100 nA
-0,400390625;112,787336715239;-1,2713623046875E-07;-0,398895263671875;3;208;3,11530739068985E-06;-3,10185126960278E-06;100 nA
-0,450439453125;113,287824713976;-1,42730712890625E-07;-0,448760986328125;3;209;3,11530739068985E-06;-3,10185126960278E-06;100 nA
-0,50048828125;113,788312712712;-1,5814208984375E-07;-0,4986572265625;3;210;3,11530739068985E-06;-3,10185126960278E-06;100 nA
-0,550537109375;114,288800711449;-1,73675537109375E-07;-0,54852294921875;3;211;3,11530739068985E-06;-3,10185126960278E-06;100 nA
-0,6005859375;114,789288710185;-1,8896484375E-07;-0,598358154296875;3;212;3,11530739068985E-06;-3,10185126960278E-06;100 nA
-0,650634765625;115,289776708921;-2,04010009765625E-07;-0,648284912109375;3;213;3,11530739068985E-06;-3,10185126960278E-06;100 nA
-0,70068359375;115,790264707658;-2,19085693359375E-07;-0,6982421875;3;214;3,11530739068985E-06;-3,10185126960278E-06;100 nA
-0,750732421875;116,290752706394;-2,3431396484375E-07;-0,74822998046875;3;215;3,11530739068985E-06;-3,10185126960278E-06;100 nA
-0,80078125;116,79124070513;-2,49725341796875E-07;-0,79833984375;3;216;3,11530739068985E-06;-3,10185126960278E-06;100 nA
-0,850830078125;117,291728703867;-2,650146484375E-07;-0,8477783203125;3;217;3,11530739068985E-06;-3,10185126960278E-06;100 nA
-0,90087890625;117,792216702603;-2,8021240234375E-07;-0,89874267578125;3;218;3,11530739068985E-06;-3,10185126960278E-06;100 nA
-0,950927734375;118,29270470134;-2,95257568359375E-07;-0,94940185546875;3;219;3,11530739068985E-06;-3,10185126960278E-06;100 nA
-1,0009765625;118,793192700076;-3,10333251953125E-07;-0,99884033203125;3;220;3,11530739068985E-06;-3,10185126960278E-06;100 nA
-0,950927734375;119,293680698812;-2,9376220703125E-07;-0,94879150390625;3;221;3,11530739068985E-06;-3,10185126960278E-06;1 µA
-0,90087890625;119,794168697549;-2,77801513671875E-07;-0,8990478515625;3;222;3,11530739068985E-06;-3,10185126960278E-06;1 µA
-0,850830078125;120,294656696285;-2,6202392578125E-07;-0,84808349609375;3;223;3,11530739068985E-06;-3,10185126960278E-06;1 µA
-0,80078125;120,795144695022;-2,4627685546875E-07;-0,79925537109375;3;224;3,11530739068985E-06;-3,10185126960278E-06;1 µA
-0,750732421875;121,295632693758;-2,30377197265625E-07;-0,748565673828125;3;225;3,11530739068985E-06;-3,10185126960278E-06;1 µA
-0,70068359375;121,796120692494;-2,1478271484375E-07;-0,698516845703125;3;226;3,11530739068985E-06;-3,10185126960278E-06;1 µA
-0,650634765625;122,296608691231;-1,9915771484375E-07;-0,64849853515625;3;227;3,11530739068985E-06;-3,10185126960278E-06;1 µA
-0,6005859375;122,797096689967;-1,8359375E-07;-0,598602294921875;3;228;3,11530739068985E-06;-3,10185126960278E-06;1 µA
-0,550537109375;123,297584688704;-1,6778564453125E-07;-0,5487060546875;3;229;3,11530739068985E-06;-3,10185126960278E-06;1 µA
-0,50048828125;123,79807268744;-1,51947021484375E-07;-0,498809814453125;3;230;3,11530739068985E-06;-3,10185126960278E-06;1 µA
-0,450439453125;124,298560686176;-1,3604736328125E-07;-0,44891357421875;3;231;3,11530739068985E-06;-3,10185126960278E-06;1 µA
-0,400390625;124,799048684913;-1,2030029296875E-07;-0,3990478515625;3;232;3,11530739068985E-06;-3,10185126960278E-06;1 µA
-0,350341796875;125,299536683649;-1,0467529296875E-07;-0,349151611328125;3;233;3,11530739068985E-06;-3,10185126960278E-06;1 µA
-0,30029296875;125,800024682385;-8,9019775390625E-08;-0,29925537109375;3;234;3,11530739068985E-06;-3,10185126960278E-06;1 µA
-0,250244140625;126,300512681122;-7,3516845703125E-08;-0,24932861328125;3;235;3,11530739068985E-06;-3,10185126960278E-06;1 µA
-0,2001953125;126,801000679858;-5,8074951171875E-08;-0,199432373046875;3;236;3,11530739068985E-06;-3,10185126960278E-06;1 µA
-0,150146484375;127,301488678595;-4,2572021484375E-08;-0,149566650390625;3;237;3,11530739068985E-06;-3,10185126960278E-06;1 µA
-0,10009765625;127,801976677331;-2,7203369140625E-08;-0,09967041015625;3;238;3,11530739068985E-06;-3,10185126960278E-06;1 µA
-0,050048828125;128,302464676067;-1,192626953125E-08;-0,049774169921875;3;239;3,11530739068985E-06;-3,10185126960278E-06;100 nA
0;128,802952674804;3,6773681640625E-09;0,0001373291015625;3;240;3,11530739068985E-06;-3,10185126960278E-06;100 nA
0,050048828125;129,30344067354;1,91558837890625E-08;0,050048828125;4;241;3,11414811760187E-06;-3,1011563166976E-06;100 nA
0,10009765625;129,803928672277;3,4698486328125E-08;0,10003662109375;4;242;3,11414811760187E-06;-3,1011563166976E-06;100 nA
0,150146484375;130,304416671013;5,06591796875E-08;0,149993896484375;4;243;3,11414811760187E-06;-3,1011563166976E-06;100 nA
0,2001953125;130,804904669749;6,634521484375E-08;0,199951171875;4;244;3,11414811760187E-06;-3,1011563166976E-06;100 nA
0,250244140625;131,305392668486;8,123779296875E-08;0,249969482421875;4;245;3,11414811760187E-06;-3,1011563166976E-06;100 nA
0,30029296875;131,805880667222;9,6405029296875E-08;0,299957275390625;4;246;3,11414811760187E-06;-3,1011563166976E-06;100 nA
0,350341796875;132,306368665959;1,11724853515625E-07;0,35003662109375;4;247;3,11414811760187E-06;-3,1011563166976E-06;100 nA
0,400390625;132,806856664695;1,27044677734375E-07;0,399932861328125;4;248;3,11414811760187E-06;-3,1011563166976E-06;100 nA
0,450439453125;133,307344663431;1,4227294921875E-07;0,449920654296875;4;249;3,11414811760187E-06;-3,1011563166976E-06;100 nA
0,50048828125;133,807832662168;1,57440185546875E-07;0,4998779296875;4;250;3,11414811760187E-06;-3,1011563166976E-06;100 nA
0,550537109375;134,308320660904;1,72760009765625E-07;0,549835205078125;4;251;3,11414811760187E-06;-3,1011563166976E-06;100 nA
0,6005859375;134,80880865964;1,8817138671875E-07;0,5997314453125;4;252;3,11414811760187E-06;-3,1011563166976E-06;100 nA
0,650634765625;135,309296658377;2,0361328125E-07;0,649688720703125;4;253;3,11414811760187E-06;-3,1011563166976E-06;100 nA
0,70068359375;135,809784657113;2,19024658203125E-07;0,699493408203125;4;254;3,11414811760187E-06;-3,1011563166976E-06;100 nA
0,750732421875;136,31027265585;2,34283447265625E-07;0,749420166015625;4;255;3,11414811760187E-06;-3,1011563166976E-06;100 nA
0,80078125;136,810760654586;2,49481201171875E-07;0,8001708984375;4;256;3,11414811760187E-06;-3,1011563166976E-06;100 nA
0,850830078125;137,311248653322;2,64617919921875E-07;0,8502197265625;4;257;3,11414811760187E-06;-3,1011563166976E-06;100 nA
0,90087890625;137,811736652059;2,79815673828125E-07;0,89996337890625;4;258;3,11414811760187E-06;-3,1011563166976E-06;100 nA
0,950927734375;138,312224650795;2,95135498046875E-07;0,94940185546875;4;259;3,11414811760187E-06;-3,1011563166976E-06;100 nA
1,0009765625;138,812712649532;3,1060791015625E-07;0,999755859375;4;260;3,11414811760187E-06;-3,1011563166976E-06;100 nA
0,950927734375;139,313200648268;2,94403076171875E-07;0,95001220703125;4;261;3,11414811760187E-06;-3,1011563166976E-06;1 µA
0,90087890625;139,813688647004;2,78564453125E-07;0,89935302734375;4;262;3,11414811760187E-06;-3,1011563166976E-06;1 µA
0,850830078125;140,314176645741;2,62786865234375E-07;0,84991455078125;4;263;3,11414811760187E-06;-3,1011563166976E-06;1 µA
0,80078125;140,814664644477;2,471923828125E-07;0,8001708984375;4;264;3,11414811760187E-06;-3,1011563166976E-06;1 µA
0,750732421875;141,315152643214;2,31658935546875E-07;0,74981689453125;4;265;3,11414811760187E-06;-3,1011563166976E-06;1 µA
0,70068359375;141,81564064195;2,1612548828125E-07;0,69989013671875;4;266;3,11414811760187E-06;-3,1011563166976E-06;1 µA
0,650634765625;142,316128640686;2,00653076171875E-07;0,649993896484375;4;267;3,11414811760187E-06;-3,1011563166976E-06;1 µA
0,6005859375;142,816616639423;1,85089111328125E-07;0,600067138671875;4;268;3,11414811760187E-06;-3,1011563166976E-06;1 µA
0,550537109375;143,317104638159;1,69647216796875E-07;0,550140380859375;4;269;3,11414811760187E-06;-3,1011563166976E-06;1 µA
0,50048828125;143,817592636895;1,54083251953125E-07;0,500030517578125;4;270;3,11414811760187E-06;-3,1011563166976E-06;1 µA
0,450439453125;144,318080635632;1,3848876953125E-07;0,45001220703125;4;271;3,11414811760187E-06;-3,1011563166976E-06;1 µA
0,400390625;144,818568634368;1,22955322265625E-07;0,40008544921875;4;272;3,11414811760187E-06;-3,1011563166976E-06;1 µA
0,350341796875;145,319056633105;1,0723876953125E-07;0,35003662109375;4;273;3,11414811760187E-06;-3,1011563166976E-06;1 µA
0,30029296875;145,819544631841;9,1461181640625E-08;0,300079345703125;4;274;3,11414811760187E-06;-3,1011563166976E-06;1 µA
0,250244140625;146,320032630577;7,5592041015625E-08;0,250091552734375;4;275;3,11414811760187E-06;-3,1011563166976E-06;1 µA
0,2001953125;146,820520629314;5,889892578125E-08;0,200042724609375;4;276;3,11414811760187E-06;-3,1011563166976E-06;1 µA
0,150146484375;147,32100862805;4,06494140625E-08;0,15008544921875;4;277;3,11414811760187E-06;-3,1011563166976E-06;1 µA
0,10009765625;147,821496626787;2,6702880859375E-08;0,100128173828125;4;278;3,11414811760187E-06;-3,1011563166976E-06;1 µA
0,050048828125;148,321984625523;1,2030029296875E-08;0,050079345703125;4;279;3,11414811760187E-06;-3,1011563166976E-06;100 nA
0;148,822472624259;-3,2501220703125E-09;0,0001220703125;4;280;3,11414811760187E-06;-3,1011563166976E-06;100 nA
-0,050048828125;149,322960622996;-1,861572265625E-08;-0,04974365234375;4;281;3,11414811760187E-06;-3,1011563166976E-06;100 nA
-0,10009765625;149,823448621732;-3,3966064453125E-08;-0,09967041015625;4;282;3,11414811760187E-06;-3,1011563166976E-06;100 nA
-0,150146484375;150,323936620469;-4,9530029296875E-08;-0,1495361328125;4;283;3,11414811760187E-06;-3,1011563166976E-06;100 nA
-0,2001953125;150,824424619205;-6,4971923828125E-08;-0,199432373046875;4;284;3,11414811760187E-06;-3,1011563166976E-06;100 nA
-0,250244140625;151,324912617941;-8,04443359375E-08;-0,249237060546875;4;285;3,11414811760187E-06;-3,1011563166976E-06;100 nA
-0,30029296875;151,825400616678;-9,600830078125E-08;-0,299102783203125;4;286;3,11414811760187E-06;-3,1011563166976E-06;100 nA
-0,350341796875;152,325888615414;-1,11541748046875E-07;-0,34906005859375;4;287;3,11414811760187E-06;-3,1011563166976E-06;100 nA
-0,400390625;152,82637661415;-1,26983642578125E-07;-0,398895263671875;4;288;3,11414811760187E-06;-3,1011563166976E-06;100 nA
-0,450439453125;153,326864612887;-1,424560546875E-07;-0,44873046875;4;289;3,11414811760187E-06;-3,1011563166976E-06;100 nA
-0,50048828125;153,827352611623;-1,5802001953125E-07;-0,49859619140625;4;290;3,11414811760187E-06;-3,1011563166976E-06;100 nA
-0,550537109375;154,32784061036;-1,73675537109375E-07;-0,548492431640625;4;291;3,11414811760187E-06;-3,1011563166976E-06;100 nA
-0,6005859375;154,828328609096;-1,88690185546875E-07;-0,598358154296875;4;292;3,11414811760187E-06;-3,1011563166976E-06;100 nA
-0,650634765625;155,328816607832;-2,037353515625E-07;-0,648193359375;4;293;3,11414811760187E-06;-3,1011563166976E-06;100 nA
-0,70068359375;155,829304606569;-2,18780517578125E-07;-0,698211669921875;4;294;3,11414811760187E-06;-3,1011563166976E-06;100 nA
-0,750732421875;156,329792605305;-2,34100341796875E-07;-0,748138427734375;4;295;3,11414811760187E-06;-3,1011563166976E-06;100 nA
-0,80078125;156,830280604042;-2,49542236328125E-07;-0,7989501953125;4;296;3,11414811760187E-06;-3,1011563166976E-06;100 nA
-0,850830078125;157,330768602778;-2,6470947265625E-07;-0,84869384765625;4;297;3,11414811760187E-06;-3,1011563166976E-06;100 nA
-0,90087890625;157,831256601514;-2,79876708984375E-07;-0,89874267578125;4;298;3,11414811760187E-06;-3,1011563166976E-06;100 nA
-0,950927734375;158,331744600251;-2,9486083984375E-07;-0,9490966796875;4;299;3,11414811760187E-06;-3,1011563166976E-06;100 nA
-1,0009765625;158,832232598987;-3,1005859375E-07;-0,9991455078125;4;300;3,11414811760187E-06;-3,1011563166976E-06;100 nA
-0,950927734375;159,332720597724;-2,93670654296875E-07;-0,94879150390625;4;301;3,11414811760187E-06;-3,1011563166976E-06;1 µA
-0,90087890625;159,83320859646;-2,77801513671875E-07;-0,8984375;4;302;3,11414811760187E-06;-3,1011563166976E-06;1 µA
-0,850830078125;160,333696595196;-2,6202392578125E-07;-0,8489990234375;4;303;3,11414811760187E-06;-3,1011563166976E-06;1 µA
-0,80078125;160,834184593933;-2,46307373046875E-07;-0,79833984375;4;304;3,11414811760187E-06;-3,1011563166976E-06;1 µA
-0,750732421875;161,334672592669;-2,30499267578125E-07;-0,748443603515625;4;305;3,11414811760187E-06;-3,1011563166976E-06;1 µA
-0,70068359375;161,835160591406;-2,1484375E-07;-0,698577880859375;4;306;3,11414811760187E-06;-3,1011563166976E-06;1 µA
-0,650634765625;162,335648590142;-1,99188232421875E-07;-0,648590087890625;4;307;3,11414811760187E-06;-3,1011563166976E-06;1 µA
-0,6005859375;162,836136588878;-1,83624267578125E-07;-0,598602294921875;4;308;3,11414811760187E-06;-3,1011563166976E-06;1 µA
-0,550537109375;163,336624587615;-1,67938232421875E-07;-0,54876708984375;4;309;3,11414811760187E-06;-3,1011563166976E-06;1 µA
-0,50048828125;163,837112586351;-1,52130126953125E-07;-0,498779296875;4;310;3,11414811760187E-06;-3,1011563166976E-06;1 µA
-0,450439453125;164,337600585087;-1,3616943359375E-07;-0,448974609375;4;311;3,11414811760187E-06;-3,1011563166976E-06;1 µA
-0,400390625;164,838088583824;-1,2042236328125E-07;-0,399078369140625;4;312;3,11414811760187E-06;-3,1011563166976E-06;1 µA
-0,350341796875;165,33857658256;-1,048583984375E-07;-0,349151611328125;4;313;3,11414811760187E-06;-3,1011563166976E-06;1 µA
-0,30029296875;165,839064581297;-8,9202880859375E-08;-0,299224853515625;4;314;3,11414811760187E-06;-3,1011563166976E-06;1 µA
-0,250244140625;166,339552580033;-7,3760986328125E-08;-0,2493896484375;4;315;3,11414811760187E-06;-3,1011563166976E-06;1 µA
-0,2001953125;166,840040578769;-5,82275390625E-08;-0,199462890625;4;316;3,11414811760187E-06;-3,1011563166976E-06;1 µA
-0,150146484375;167,340528577506;-4,2633056640625E-08;-0,149627685546875;4;317;3,11414811760187E-06;-3,1011563166976E-06;1 µA
-0,10009765625;167,841016576242;-2,716064453125E-08;-0,09967041015625;4;318;3,11414811760187E-06;-3,1011563166976E-06;1 µA
-0,050048828125;168,341504574979;-1,1981201171875E-08;-0,049835205078125;4;319;3,11414811760187E-06;-3,1011563166976E-06;100 nA
0;168,841992573715;3,50341796875E-09;0,0001220703125;4;320;3,11414811760187E-06;-3,1011563166976E-06;100 nA
0,050048828125;169,342480572451;1,90673828125E-08;0,050079345703125;5;321;3,11378918588162E-06;-3,10316022485495E-06;100 nA
0,10009765625;169,842968571188;3,47900390625E-08;0,100006103515625;5;322;3,11378918588162E-06;-3,10316022485495E-06;100 nA
0,150146484375;170,343456569924;5,06591796875E-08;0,14990234375;5;323;3,11378918588162E-06;-3,10316022485495E-06;100 nA
0,2001953125;170,843944568661;6,6253662109375E-08;0,199920654296875;5;324;3,11378918588162E-06;-3,10316022485495E-06;100 nA
0,250244140625;171,344432567397;8,111572265625E-08;0,24993896484375;5;325;3,11378918588162E-06;-3,10316022485495E-06;100 nA
0,30029296875;171,844920566133;9,6405029296875E-08;0,2999267578125;5;326;3,11378918588162E-06;-3,10316022485495E-06;100 nA
0,350341796875;172,34540856487;1,11785888671875E-07;0,350006103515625;5;327;3,11378918588162E-06;-3,10316022485495E-06;100 nA
0,400390625;172,845896563606;1,26800537109375E-07;0,39996337890625;5;328;3,11378918588162E-06;-3,10316022485495E-06;100 nA
0,450439453125;173,346384562342;1,4190673828125E-07;0,44989013671875;5;329;3,11378918588162E-06;-3,10316022485495E-06;100 nA
0,50048828125;173,846872561079;1,57379150390625E-07;0,499847412109375;5;330;3,11378918588162E-06;-3,10316022485495E-06;100 nA
0,550537109375;174,347360559815;1,72760009765625E-07;0,54986572265625;5;331;3,11378918588162E-06;-3,10316022485495E-06;100 nA
0,6005859375;174,847848558552;1,8829345703125E-07;0,599761962890625;5;332;3,11378918588162E-06;-3,10316022485495E-06;100 nA
0,650634765625;175,348336557288;2,03704833984375E-07;0,649658203125;5;333;3,11378918588162E-06;-3,10316022485495E-06;100 nA
0,70068359375;175,848824556024;2,19024658203125E-07;0,699493408203125;5;334;3,11378918588162E-06;-3,10316022485495E-06;100 nA
0,750732421875;176,349312554761;2,34405517578125E-07;0,7493896484375;5;335;3,11378918588162E-06;-3,10316022485495E-06;100 nA
0,80078125;176,849800553497;2,49481201171875E-07;0,79986572265625;5;336;3,11378918588162E-06;-3,10316022485495E-06;100 nA
0,850830078125;177,350288552234;2,64617919921875E-07;0,84991455078125;5;337;3,11378918588162E-06;-3,10316022485495E-06;100 nA
0,90087890625;177,85077655097;2,79876708984375E-07;0,89996337890625;5;338;3,11378918588162E-06;-3,10316022485495E-06;100 nA
0,950927734375;178,351264549706;2,95135498046875E-07;0,94970703125;5;339;3,11378918588162E-06;-3,10316022485495E-06;100 nA
1,0009765625;178,851752548443;3,10577392578125E-07;0,99945068359375;5;340;3,11378918588162E-06;-3,10316022485495E-06;100 nA
0,950927734375;179,352240547179;2,9443359375E-07;0,94970703125;5;341;3,11378918588162E-06;-3,10316022485495E-06;1 µA
0,90087890625;179,852728545916;2,78472900390625E-07;0,899658203125;5;342;3,11378918588162E-06;-3,10316022485495E-06;1 µA
0,850830078125;180,353216544652;2,62786865234375E-07;0,84991455078125;5;343;3,11378918588162E-06;-3,10316022485495E-06;1 µA
0,80078125;180,853704543388;2,47222900390625E-07;0,79986572265625;5;344;3,11378918588162E-06;-3,10316022485495E-06;1 µA
0,750732421875;181,354192542125;2,3175048828125E-07;0,749786376953125;5;345;3,11378918588162E-06;-3,10316022485495E-06;1 µA
0,70068359375;181,854680540861;2,16217041015625E-07;0,699920654296875;5;346;3,11378918588162E-06;-3,10316022485495E-06;1 µA
0,650634765625;182,355168539597;2,00592041015625E-07;0,6500244140625;5;347;3,11378918588162E-06;-3,10316022485495E-06;1 µA
0,6005859375;182,855656538334;1,85211181640625E-07;0,60009765625;5;348;3,11378918588162E-06;-3,10316022485495E-06;1 µA
0,550537109375;183,35614453707;1,69769287109375E-07;0,550079345703125;5;349;3,11378918588162E-06;-3,10316022485495E-06;1 µA
0,50048828125;183,856632535807;1,541748046875E-07;0,5;5;350;3,11378918588162E-06;-3,10316022485495E-06;1 µA
0,450439453125;184,357120534543;1,38580322265625E-07;0,4500732421875;5;351;3,11378918588162E-06;-3,10316022485495E-06;1 µA
0,400390625;184,857608533279;1,23077392578125E-07;0,40008544921875;5;352;3,11378918588162E-06;-3,10316022485495E-06;1 µA
0,350341796875;185,358096532016;1,07391357421875E-07;0,35009765625;5;353;3,11378918588162E-06;-3,10316022485495E-06;1 µA
0,30029296875;185,858584530752;9,1583251953125E-08;0,300048828125;5;354;3,11378918588162E-06;-3,10316022485495E-06;1 µA
0,250244140625;186,359072529489;7,5714111328125E-08;0,25006103515625;5;355;3,11378918588162E-06;-3,10316022485495E-06;1 µA
0,2001953125;186,859560528225;5,767822265625E-08;0,200042724609375;5;356;3,11378918588162E-06;-3,10316022485495E-06;1 µA
0,150146484375;187,360048526961;4,083251953125E-08;0,150054931640625;5;357;3,11378918588162E-06;-3,10316022485495E-06;1 µA
0,10009765625;187,860536525698;2,6397705078125E-08;0,10009765625;5;358;3,11378918588162E-06;-3,10316022485495E-06;1 µA
0,050048828125;188,361024524434;1,19873046875E-08;0,050079345703125;5;359;3,11378918588162E-06;-3,10316022485495E-06;100 nA
0;188,861512523171;-3,3172607421875E-09;0,000103759765625003;5;360;3,11378918588162E-06;-3,10316022485495E-06;100 nA
-0,050048828125;189,362000521907;-1,86981201171875E-08;-0,0498046875;5;361;3,11378918588162E-06;-3,10316022485495E-06;100 nA
-0,10009765625;189,862488520643;-3,4027099609375E-08;-0,099609375;5;362;3,11378918588162E-06;-3,10316022485495E-06;100 nA
-0,150146484375;190,36297651938;-4,9560546875E-08;-0,149505615234375;5;363;3,11378918588162E-06;-3,10316022485495E-06;100 nA
-0,2001953125;190,863464518116;-6,5185546875E-08;-0,1993408203125;5;364;3,11378918588162E-06;-3,10316022485495E-06;100 nA
-0,250244140625;191,363952516852;-8,056640625E-08;-0,249237060546875;5;365;3,11378918588162E-06;-3,10316022485495E-06;100 nA
-0,30029296875;191,864440515589;-9,619140625E-08;-0,299163818359375;5;366;3,11378918588162E-06;-3,10316022485495E-06;100 nA
-0,350341796875;192,364928514325;-1,11724853515625E-07;-0,349029541015625;5;367;3,11378918588162E-06;-3,10316022485495E-06;100 nA
-0,400390625;192,865416513062;-1,2725830078125E-07;-0,398895263671875;5;368;3,11378918588162E-06;-3,10316022485495E-06;100 nA
-0,450439453125;193,365904511798;-1,42730712890625E-07;-0,44879150390625;5;369;3,11378918588162E-06;-3,10316022485495E-06;100 nA
-0,50048828125;193,866392510534;-1,5826416015625E-07;-0,498687744140625;5;370;3,11378918588162E-06;-3,10316022485495E-06;100 nA
-0,550537109375;194,366880509271;-1,73736572265625E-07;-0,54852294921875;5;371;3,11378918588162E-06;-3,10316022485495E-06;100 nA
-0,6005859375;194,867368508007;-1,88751220703125E-07;-0,598388671875;5;372;3,11378918588162E-06;-3,10316022485495E-06;100 nA
-0,650634765625;195,367856506744;-2,03857421875E-07;-0,6483154296875;5;373;3,11378918588162E-06;-3,10316022485495E-06;100 nA
-0,70068359375;195,86834450548;-2,18963623046875E-07;-0,698272705078125;5;374;3,11378918588162E-06;-3,10316022485495E-06;100 nA
-0,750732421875;196,368832504216;-2,3431396484375E-07;-0,7481689453125;5;375;3,11378918588162E-06;-3,10316022485495E-06;100 nA
-0,80078125;196,869320502953;-2,4957275390625E-07;-0,79803466796875;5;376;3,11378918588162E-06;-3,10316022485495E-06;100 nA
-0,850830078125;197,369808501689;-2,6483154296875E-07;-0,84930419921875;5;377;3,11378918588162E-06;-3,10316022485495E-06;100 nA
-0,90087890625;197,870296500426;-2,802734375E-07;-0,89874267578125;5;378;3,11378918588162E-06;-3,10316022485495E-06;100 nA
-0,950927734375;198,370784499162;-2,9498291015625E-07;-0,94940185546875;5;379;3,11378918588162E-06;-3,10316022485495E-06;100 nA
-1,0009765625;198,871272497898;-3,10150146484375E-07;-0,99884033203125;5;380;3,11378918588162E-06;-3,10316022485495E-06;100 nA
-0,950927734375;199,371760496635;-2,93670654296875E-07;-0,94940185546875;5;381;3,11378918588162E-06;-3,10316022485495E-06;1 µA
-0,90087890625;199,872248495371;-2,7783203125E-07;-0,89874267578125;5;382;3,11378918588162E-06;-3,10316022485495E-06;1 µA
-0,850830078125;200,372736494107;-2,61962890625E-07;-0,8489990234375;5;383;3,11378918588162E-06;-3,10316022485495E-06;1 µA
-0,80078125;200,873224492844;-2,46368408203125E-07;-0,79833984375;5;384;3,11378918588162E-06;-3,10316022485495E-06;1 µA
-0,750732421875;201,37371249158;-2,30438232421875E-07;-0,748565673828125;5;385;3,11378918588162E-06;-3,10316022485495E-06;1 µA
-0,70068359375;201,874200490317;-2,14599609375E-07;-0,6986083984375;5;386;3,11378918588162E-06;-3,10316022485495E-06;1 µA
-0,650634765625;202,374688489053;-1,99249267578125E-07;-0,648590087890625;5;387;3,11378918588162E-06;-3,10316022485495E-06;1 µA
-0,6005859375;202,875176487789;-1,85302734375E-07;-0,5986328125;5;388;3,11378918588162E-06;-3,10316022485495E-06;1 µA
-0,550537109375;203,375664486526;-1,68182373046875E-07;-0,5487060546875;5;389;3,11378918588162E-06;-3,10316022485495E-06;1 µA
-0,50048828125;203,876152485262;-1,52008056640625E-07;-0,498779296875;5;390;3,11378918588162E-06;-3,10316022485495E-06;1 µA
-0,450439453125;204,376640483999;-1,361083984375E-07;-0,44891357421875;5;391;3,11378918588162E-06;-3,10316022485495E-06;1 µA
-0,400390625;204,877128482735;-1,2030029296875E-07;-0,399017333984375;5;392;3,11378918588162E-06;-3,10316022485495E-06;1 µA
-0,350341796875;205,377616481471;-1,04766845703125E-07;-0,3492431640625;5;393;3,11378918588162E-06;-3,10316022485495E-06;1 µA
-0,30029296875;205,878104480208;-8,929443359375E-08;-0,299285888671875;5;394;3,11378918588162E-06;-3,10316022485495E-06;1 µA
-0,250244140625;206,378592478944;-7,36083984375E-08;-0,24932861328125;5;395;3,11378918588162E-06;-3,10316022485495E-06;1 µA
-0,2001953125;206,879080477681;-5,8135986328125E-08;-0,19940185546875;5;396;3,11378918588162E-06;-3,10316022485495E-06;1 µA
-0,150146484375;207,379568476417;-4,2572021484375E-08;-0,149566650390625;5;397;3,11378918588162E-06;-3,10316022485495E-06;1 µA
-0,10009765625;207,880056475153;-2,7166748046875E-08;-0,09967041015625;5;398;3,11378918588162E-06;-3,10316022485495E-06;1 µA
-0,050048828125;208,38054447389;-1,17401123046875E-08;-0,04971923828125;5;399;3,11378918588162E-06;-3,10316022485495E-06;100 nA
0;208,881032472626;3,5888671875E-09;0,000134277343750003;5;400;3,11378918588162E-06;-3,10316022485495E-06;100 nA
0,050048828125;209,381520471362;1,91986083984375E-08;0,050079345703125;6;401;3,11360437422991E-06;-3,09976488351822E-06;100 nA
0,10009765625;209,882008470099;3,472900390625E-08;0,100006103515625;6;402;3,11360437422991E-06;-3,09976488351822E-06;100 nA
0,150146484375;210,382496468835;5,0811767578125E-08;0,14996337890625;6;403;3,11360437422991E-06;-3,09976488351822E-06;100 nA
0,2001953125;210,882984467572;6,622314453125E-08;0,199920654296875;6;404;3,11360437422991E-06;-3,09976488351822E-06;100 nA
0,250244140625;211,383472466308;8,1146240234375E-08;0,24993896484375;6;405;3,11360437422991E-06;-3,09976488351822E-06;100 nA
0,30029296875;211,883960465044;9,6282958984375E-08;0,2999267578125;6;406;3,11360437422991E-06;-3,09976488351822E-06;100 nA
0,350341796875;212,384448463781;1,11785888671875E-07;0,349945068359375;6;407;3,11360437422991E-06;-3,09976488351822E-06;100 nA
0,400390625;212,884936462517;1,2689208984375E-07;0,399932861328125;6;408;3,11360437422991E-06;-3,09976488351822E-06;100 nA
0,450439453125;213,385424461254;1,42242431640625E-07;0,449920654296875;6;409;3,11360437422991E-06;-3,09976488351822E-06;100 nA
0,50048828125;213,88591245999;1,57470703125E-07;0,4998779296875;6;410;3,11360437422991E-06;-3,09976488351822E-06;100 nA
0,550537109375;214,386400458726;1,72637939453125E-07;0,54986572265625;6;411;3,11360437422991E-06;-3,09976488351822E-06;100 nA
0,6005859375;214,886888457463;1,88262939453125E-07;0,599822998046875;6;412;3,11360437422991E-06;-3,09976488351822E-06;100 nA
0,650634765625;215,387376456199;2,0361328125E-07;0,649658203125;6;413;3,11360437422991E-06;-3,09976488351822E-06;100 nA
0,70068359375;215,887864454936;2,1905517578125E-07;0,699493408203125;6;414;3,11360437422991E-06;-3,09976488351822E-06;100 nA
0,750732421875;216,388352453672;2,34283447265625E-07;0,7493896484375;6;415;3,11360437422991E-06;-3,09976488351822E-06;100 nA
0,80078125;216,888840452408;2,49267578125E-07;0,79986572265625;6;416;3,11360437422991E-06;-3,09976488351822E-06;100 nA
0,850830078125;217,389328451145;2,64404296875E-07;0,849609375;6;417;3,11360437422991E-06;-3,09976488351822E-06;100 nA
0,90087890625;217,889816449881;2,79571533203125E-07;0,89996337890625;6;418;3,11360437422991E-06;-3,09976488351822E-06;100 nA
0,950927734375;218,390304448617;2,95013427734375E-07;0,94940185546875;6;419;3,11360437422991E-06;-3,09976488351822E-06;100 nA
1,0009765625;218,890792447354;3,104248046875E-07;0,9991455078125;6;420;3,11360437422991E-06;-3,09976488351822E-06;100 nA
0,950927734375;219,39128044609;2,94281005859375E-07;0,95001220703125;6;421;3,11360437422991E-06;-3,09976488351822E-06;1 µA
0,90087890625;219,891768444827;2,78411865234375E-07;0,899658203125;6;422;3,11360437422991E-06;-3,09976488351822E-06;1 µA
0,850830078125;220,392256443563;2,62786865234375E-07;0,84991455078125;6;423;3,11360437422991E-06;-3,09976488351822E-06;1 µA
0,80078125;220,892744442299;2,471923828125E-07;0,79925537109375;6;424;3,11360437422991E-06;-3,09976488351822E-06;1 µA
0,750732421875;221,393232441036;2,31597900390625E-07;0,749786376953125;6;425;3,11360437422991E-06;-3,09976488351822E-06;1 µA
0,70068359375;221,893720439772;2,159423828125E-07;0,699920654296875;6;426;3,11360437422991E-06;-3,09976488351822E-06;1 µA
0,650634765625;222,394208438509;2,005615234375E-07;0,64996337890625;6;427;3,11360437422991E-06;-3,09976488351822E-06;1 µA
0,6005859375;222,894696437245;1,85089111328125E-07;0,60009765625;6;428;3,11360437422991E-06;-3,09976488351822E-06;1 µA
0,550537109375;223,395184435981;1,69586181640625E-07;0,550079345703125;6;429;3,11360437422991E-06;-3,09976488351822E-06;1 µA
0,50048828125;223,895672434718;1,54083251953125E-07;0,500091552734375;6;430;3,11360437422991E-06;-3,09976488351822E-06;1 µA
0,450439453125;224,396160433454;1,3861083984375E-07;0,45001220703125;6;431;3,11360437422991E-06;-3,09976488351822E-06;1 µA
0,400390625;224,896648432191;1,2310791015625E-07;0,400115966796875;6;432;3,11360437422991E-06;-3,09976488351822E-06;1 µA
0,350341796875;225,397136430927;1,07330322265625E-07;0,350128173828125;6;433;3,11360437422991E-06;-3,09976488351822E-06;1 µA
0,30029296875;225,897624429663;9,161376953125E-08;0,300018310546875;6;434;3,11360437422991E-06;-3,09976488351822E-06;1 µA
0,250244140625;226,3981124284;7,574462890625E-08;0,25006103515625;6;435;3,11360437422991E-06;-3,09976488351822E-06;1 µA
0,2001953125;226,898600427136;5,9326171875E-08;0,20001220703125;6;436;3,11360437422991E-06;-3,09976488351822E-06;1 µA
0,150146484375;227,399088425872;4,1107177734375E-08;0,150054931640625;6;437;3,11360437422991E-06;-3,09976488351822E-06;1 µA
0,10009765625;227,899576424609;2,6123046875E-08;0,10009765625;6;438;3,11360437422991E-06;-3,09976488351822E-06;1 µA
0,050048828125;228,400064423345;1,19415283203125E-08;0,050048828125;6;439;3,11360437422991E-06;-3,09976488351822E-06;100 nA
0;228,900552422082;-3,2989501953125E-09;0,000131225585937506;6;440;3,11360437422991E-06;-3,09976488351822E-06;100 nA
-0,050048828125;229,401040420818;-1,86309814453125E-08;-0,049774169921875;6;441;3,11360437422991E-06;-3,09976488351822E-06;100 nA
-0,10009765625;229,901528419554;-3,399658203125E-08;-0,099609375;6;442;3,11360437422991E-06;-3,09976488351822E-06;100 nA
-0,150146484375;230,402016418291;-4,9560546875E-08;-0,149505615234375;6;443;3,11360437422991E-06;-3,09976488351822E-06;100 nA
-0,2001953125;230,902504417027;-6,50634765625E-08;-0,1993408203125;6;444;3,11360437422991E-06;-3,09976488351822E-06;100 nA
-0,250244140625;231,402992415764;-8,04443359375E-08;-0,249298095703125;6;445;3,11360437422991E-06;-3,09976488351822E-06;100 nA
-0,30029296875;231,9034804145;-9,5916748046875E-08;-0,299041748046875;6;446;3,11360437422991E-06;-3,09976488351822E-06;100 nA
-0,350341796875;232,403968413236;-1,1138916015625E-07;-0,349029541015625;6;447;3,11360437422991E-06;-3,09976488351822E-06;100 nA
-0,400390625;232,904456411973;-1,26922607421875E-07;-0,39886474609375;6;448;3,11360437422991E-06;-3,09976488351822E-06;100 nA
-0,450439453125;233,404944410709;-1,4263916015625E-07;-0,44873046875;6;449;3,11360437422991E-06;-3,09976488351822E-06;100 nA
-0,50048828125;233,905432409446;-1,580810546875E-07;-0,49859619140625;6;450;3,11360437422991E-06;-3,09976488351822E-06;100 nA
-0,550537109375;234,405920408182;-1,7340087890625E-07;-0,548492431640625;6;451;3,11360437422991E-06;-3,09976488351822E-06;100 nA
-0,6005859375;234,906408406918;-1,88385009765625E-07;-0,598358154296875;6;452;3,11360437422991E-06;-3,09976488351822E-06;100 nA
-0,650634765625;235,406896405655;-2,0343017578125E-07;-0,64825439453125;6;453;3,11360437422991E-06;-3,09976488351822E-06;100 nA
-0,70068359375;235,907384404391;-2,1856689453125E-07;-0,698272705078125;6;454;3,11360437422991E-06;-3,09976488351822E-06;100 nA
-0,750732421875;236,407872403128;-2,33489990234375E-07;-0,748199462890625;6;455;3,11360437422991E-06;-3,09976488351822E-06;100 nA
-0,80078125;236,908360401864;-2,4945068359375E-07;-0,79864501953125;6;456;3,11360437422991E-06;-3,09976488351822E-06;100 nA
-0,850830078125;237,4088484006;-2,64404296875E-07;-0,84869384765625;6;457;3,11360437422991E-06;-3,09976488351822E-06;100 nA
-0,90087890625;237,909336399337;-2,79296875E-07;-0,89874267578125;6;458;3,11360437422991E-06;-3,09976488351822E-06;100 nA
-0,950927734375;238,409824398073;-2,94647216796875E-07;-0,94879150390625;6;459;3,11360437422991E-06;-3,09976488351822E-06;100 nA
-1,0009765625;238,910312396809;-3,0987548828125E-07;-0,9991455078125;6;460;3,11360437422991E-06;-3,09976488351822E-06;100 nA
-0,950927734375;239,410800395546;-2,93548583984375E-07;-0,948486328125;6;461;3,11360437422991E-06;-3,09976488351822E-06;1 µA
-0,90087890625;239,911288394282;-2,77679443359375E-07;-0,8990478515625;6;462;3,11360437422991E-06;-3,09976488351822E-06;1 µA
-0,850830078125;240,411776393019;-2,6190185546875E-07;-0,84930419921875;6;463;3,11360437422991E-06;-3,09976488351822E-06;1 µA
-0,80078125;240,912264391755;-2,46246337890625E-07;-0,7989501953125;6;464;3,11360437422991E-06;-3,09976488351822E-06;1 µA
-0,750732421875;241,412752390491;-2,305908203125E-07;-0,748626708984375;6;465;3,11360437422991E-06;-3,09976488351822E-06;1 µA
-0,70068359375;241,913240389228;-2,14813232421875E-07;-0,69854736328125;6;466;3,11360437422991E-06;-3,09976488351822E-06;1 µA
-0,650634765625;242,413728387964;-1,9921875E-07;-0,6485595703125;6;467;3,11360437422991E-06;-3,09976488351822E-06;1 µA
-0,6005859375;242,914216386701;-1,83624267578125E-07;-0,598663330078125;6;468;3,11360437422991E-06;-3,09976488351822E-06;1 µA
-0,550537109375;243,414704385437;-1,680908203125E-07;-0,548736572265625;6;469;3,11360437422991E-06;-3,09976488351822E-06;1 µA
-0,50048828125;243,915192384173;-1,5228271484375E-07;-0,49884033203125;6;470;3,11360437422991E-06;-3,09976488351822E-06;1 µA
-0,450439453125;244,41568038291;-1,36383056640625E-07;-0,448883056640625;6;471;3,11360437422991E-06;-3,09976488351822E-06;1 µA
-0,400390625;244,916168381646;-1,20513916015625E-07;-0,3990478515625;6;472;3,11360437422991E-06;-3,09976488351822E-06;1 µA
-0,350341796875;245,416656380383;-1,04827880859375E-07;-0,34918212890625;6;473;3,11360437422991E-06;-3,09976488351822E-06;1 µA
-0,30029296875;245,917144379119;-8,92333984375E-08;-0,299346923828125;6;474;3,11360437422991E-06;-3,09976488351822E-06;1 µA
-0,250244140625;246,417632377855;-7,3699951171875E-08;-0,249298095703125;6;475;3,11360437422991E-06;-3,09976488351822E-06;1 µA
-0,2001953125;246,918120376592;-5,82275390625E-08;-0,19952392578125;6;476;3,11360437422991E-06;-3,09976488351822E-06;1 µA
-0,150146484375;247,418608375328;-4,266357421875E-08;-0,149566650390625;6;477;3,11360437422991E-06;-3,09976488351822E-06;1 µA
-0,10009765625;247,919096374064;-2,7099609375E-08;-0,09967041015625;6;478;3,11360437422991E-06;-3,09976488351822E-06;1 µA
-0,050048828125;248,419584372801;-1,1944580078125E-08;-0,049835205078125;6;479;3,11360437422991E-06;-3,09976488351822E-06;100 nA
0;248,920072371537;3,3782958984375E-09;0,000119018554687503;6;480;3,11360437422991E-06;-3,09976488351822E-06;100 nA
0,050048828125;249,420560370274;1,91619873046875E-08;0,050048828125;7;481;3,11425503343344E-06;-3,09996191412211E-06;100 nA
0,10009765625;249,92104836901;3,472900390625E-08;0,10003662109375;7;482;3,11425503343344E-06;-3,09996191412211E-06;100 nA
0,150146484375;250,421536367746;5,0811767578125E-08;0,149993896484375;7;483;3,11425503343344E-06;-3,09996191412211E-06;100 nA
0,2001953125;250,922024366483;6,6131591796875E-08;0,20001220703125;7;484;3,11425503343344E-06;-3,09996191412211E-06;100 nA
0,250244140625;251,422512365219;8,1085205078125E-08;0,25;7;485;3,11425503343344E-06;-3,09996191412211E-06;100 nA
0,30029296875;251,923000363956;9,637451171875E-08;0,2999267578125;7;486;3,11425503343344E-06;-3,09996191412211E-06;100 nA
0,350341796875;252,423488362692;1,1163330078125E-07;0,3499755859375;7;487;3,11425503343344E-06;-3,09996191412211E-06;100 nA
0,400390625;252,923976361428;1,2689208984375E-07;0,399932861328125;7;488;3,11425503343344E-06;-3,09996191412211E-06;100 nA
0,450439453125;253,424464360165;1,42181396484375E-07;0,449920654296875;7;489;3,11425503343344E-06;-3,09996191412211E-06;100 nA
0,50048828125;253,924952358901;1,5753173828125E-07;0,4998779296875;7;490;3,11425503343344E-06;-3,09996191412211E-06;100 nA
0,550537109375;254,425440357638;1,728515625E-07;0,54986572265625;7;491;3,11425503343344E-06;-3,09996191412211E-06;100 nA
0,6005859375;254,925928356374;1,8817138671875E-07;0,5997314453125;7;492;3,11425503343344E-06;-3,09996191412211E-06;100 nA
0,650634765625;255,42641635511;2,03582763671875E-07;0,649658203125;7;493;3,11425503343344E-06;-3,09996191412211E-06;100 nA
0,70068359375;255,926904353847;2,191162109375E-07;0,69952392578125;7;494;3,11425503343344E-06;-3,09996191412211E-06;100 nA
0,750732421875;256,427392352583;2,34283447265625E-07;0,749420166015625;7;495;3,11425503343344E-06;-3,09996191412211E-06;100 nA
0,80078125;256,927880351319;2,49298095703125E-07;0,8001708984375;7;496;3,11425503343344E-06;-3,09996191412211E-06;100 nA
0,850830078125;257,428368350056;2,64495849609375E-07;0,84991455078125;7;497;3,11425503343344E-06;-3,09996191412211E-06;100 nA
0,90087890625;257,928856348792;2,79754638671875E-07;0,8990478515625;7;498;3,11425503343344E-06;-3,09996191412211E-06;100 nA
0,950927734375;258,429344347529;2,952880859375E-07;0,95001220703125;7;499;3,11425503343344E-06;-3,09996191412211E-06;100 nA
1,0009765625;258,929832346265;3,106689453125E-07;0,9991455078125;7;500;3,11425503343344E-06;-3,09996191412211E-06;100 nA
0,950927734375;259,430320345001;2,94525146484375E-07;0,94940185546875;7;501;3,11425503343344E-06;-3,09996191412211E-06;1 µA
0,90087890625;259,930808343738;2,78350830078125E-07;0,899658203125;7;502;3,11425503343344E-06;-3,09996191412211E-06;1 µA
0,850830078125;260,431296342474;2,62939453125E-07;0,84991455078125;7;503;3,11425503343344E-06;-3,09996191412211E-06;1 µA
0,80078125;260,931784341211;2,47283935546875E-07;0,8001708984375;7;504;3,11425503343344E-06;-3,09996191412211E-06;1 µA
0,750732421875;261,432272339947;2,31689453125E-07;0,74981689453125;7;505;3,11425503343344E-06;-3,09996191412211E-06;1 µA
0,70068359375;261,932760338683;2,1612548828125E-07;0,699920654296875;7;506;3,11425503343344E-06;-3,09996191412211E-06;1 µA
0,650634765625;262,43324833742;2,0062255859375E-07;0,64996337890625;7;507;3,11425503343344E-06;-3,09996191412211E-06;1 µA
0,6005859375;262,933736336156;1,8511962890625E-07;0,60003662109375;7;508;3,11425503343344E-06;-3,09996191412211E-06;1 µA
0,550537109375;263,434224334893;1,695556640625E-07;0,550079345703125;7;509;3,11425503343344E-06;-3,09996191412211E-06;1 µA
0,50048828125;263,934712333629;1,54083251953125E-07;0,500091552734375;7;510;3,11425503343344E-06;-3,09996191412211E-06;1 µA
0,450439453125;264,435200332365;1,38397216796875E-07;0,4500732421875;7;511;3,11425503343344E-06;-3,09996191412211E-06;1 µA
0,400390625;264,935688331102;1,23046875E-07;0,40008544921875;7;512;3,11425503343344E-06;-3,09996191412211E-06;1 µA
0,350341796875;265,436176329838;1,072998046875E-07;0,35009765625;7;513;3,11425503343344E-06;-3,09996191412211E-06;1 µA
0,30029296875;265,936664328574;9,1583251953125E-08;0,300079345703125;7;514;3,11425503343344E-06;-3,09996191412211E-06;1 µA
0,250244140625;266,437152327311;7,574462890625E-08;0,25006103515625;7;515;3,11425503343344E-06;-3,09996191412211E-06;1 µA
0,2001953125;266,937640326047;5,938720703125E-08;0,200042724609375;7;516;3,11425503343344E-06;-3,09996191412211E-06;1 µA
0,150146484375;267,438128324784;4,1259765625E-08;0,150054931640625;7;517;3,11425503343344E-06;-3,09996191412211E-06;1 µA
0,10009765625;267,93861632352;2,5848388671875E-08;0,100067138671875;7;518;3,11425503343344E-06;-3,09996191412211E-06;1 µA
0,050048828125;268,439104322256;1,19140625E-08;0,050079345703125;7;519;3,11425503343344E-06;-3,09996191412211E-06;100 nA
0;268,939592320993;-3,3294677734375E-09;0,0001220703125;7;520;3,11425503343344E-06;-3,09996191412211E-06;100 nA
-0,050048828125;269,440080319729;-1,866455078125E-08;-0,0497314453125;7;521;3,11425503343344E-06;-3,09996191412211E-06;100 nA
-0,10009765625;269,940568318466;-3,4027099609375E-08;-0,09967041015625;7;522;3,11425503343344E-06;-3,09996191412211E-06;100 nA
-0,150146484375;270,441056317202;-4,9560546875E-08;-0,149505615234375;7;523;3,11425503343344E-06;-3,09996191412211E-06;100 nA
-0,2001953125;270,941544315938;-6,5093994140625E-08;-0,19940185546875;7;524;3,11425503343344E-06;-3,09996191412211E-06;100 nA
-0,250244140625;271,442032314675;-8,050537109375E-08;-0,249237060546875;7;525;3,11425503343344E-06;-3,09996191412211E-06;100 nA
-0,30029296875;271,942520313411;-9,5977783203125E-08;-0,299163818359375;7;526;3,11425503343344E-06;-3,09996191412211E-06;100 nA
-0,350341796875;272,443008312148;-1,11419677734375E-07;-0,349029541015625;7;527;3,11425503343344E-06;-3,09996191412211E-06;100 nA
-0,400390625;272,943496310884;-1,2689208984375E-07;-0,3988037109375;7;528;3,11425503343344E-06;-3,09996191412211E-06;100 nA
-0,450439453125;273,44398430962;-1,42486572265625E-07;-0,448760986328125;7;529;3,11425503343344E-06;-3,09996191412211E-06;100 nA
-0,50048828125;273,944472308357;-1,580810546875E-07;-0,498626708984375;7;530;3,11425503343344E-06;-3,09996191412211E-06;100 nA
-0,550537109375;274,444960307093;-1,7333984375E-07;-0,548492431640625;7;531;3,11425503343344E-06;-3,09996191412211E-06;100 nA
-0,6005859375;274,945448305829;-1,8829345703125E-07;-0,598297119140625;7;532;3,11425503343344E-06;-3,09996191412211E-06;100 nA
-0,650634765625;275,445936304566;-2,03369140625E-07;-0,64825439453125;7;533;3,11425503343344E-06;-3,09996191412211E-06;100 nA
-0,70068359375;275,946424303302;-2,18597412109375E-07;-0,6982421875;7;534;3,11425503343344E-06;-3,09996191412211E-06;100 nA
-0,750732421875;276,446912302039;-2,3394775390625E-07;-0,7481689453125;7;535;3,11425503343344E-06;-3,09996191412211E-06;100 nA
-0,80078125;276,947400300775;-2,49298095703125E-07;-0,79833984375;7;536;3,11425503343344E-06;-3,09996191412211E-06;100 nA
-0,850830078125;277,447888299511;-2,64373779296875E-07;-0,84869384765625;7;537;3,11425503343344E-06;-3,09996191412211E-06;100 nA
-0,90087890625;277,948376298248;-2,79449462890625E-07;-0,89935302734375;7;538;3,11425503343344E-06;-3,09996191412211E-06;100 nA
-0,950927734375;278,448864296984;-2,94586181640625E-07;-0,94879150390625;7;539;3,11425503343344E-06;-3,09996191412211E-06;100 nA
-1,0009765625;278,949352295721;-3,09722900390625E-07;-0,99853515625;7;540;3,11425503343344E-06;-3,09996191412211E-06;100 nA
-0,950927734375;279,449840294457;-2,9351806640625E-07;-0,94940185546875;7;541;3,11425503343344E-06;-3,09996191412211E-06;1 µA
-0,90087890625;279,950328293193;-2,7789306640625E-07;-0,89813232421875;7;542;3,11425503343344E-06;-3,09996191412211E-06;1 µA
-0,850830078125;280,45081629193;-2,6202392578125E-07;-0,848388671875;7;543;3,11425503343344E-06;-3,09996191412211E-06;1 µA
-0,80078125;280,951304290666;-2,4639892578125E-07;-0,79925537109375;7;544;3,11425503343344E-06;-3,09996191412211E-06;1 µA
-0,750732421875;281,451792289403;-2,30621337890625E-07;-0,748565673828125;7;545;3,11425503343344E-06;-3,09996191412211E-06;1 µA
-0,70068359375;281,952280288139;-2,1484375E-07;-0,6986083984375;7;546;3,11425503343344E-06;-3,09996191412211E-06;1 µA
-0,650634765625;282,452768286875;-1,99249267578125E-07;-0,648590087890625;7;547;3,11425503343344E-06;-3,09996191412211E-06;1 µA
-0,6005859375;282,953256285612;-1,83685302734375E-07;-0,598602294921875;7;548;3,11425503343344E-06;-3,09996191412211E-06;1 µA
-0,550537109375;283,453744284348;-1,68060302734375E-07;-0,54876708984375;7;549;3,11425503343344E-06;-3,09996191412211E-06;1 µA
-0,50048828125;283,954232283084;-1,522216796875E-07;-0,49884033203125;7;550;3,11425503343344E-06;-3,09996191412211E-06;1 µA
-0,450439453125;284,454720281821;-1,36322021484375E-07;-0,448944091796875;7;551;3,11425503343344E-06;-3,09996191412211E-06;1 µA
-0,400390625;284,955208280557;-1,2054443359375E-07;-0,39910888671875;7;552;3,11425503343344E-06;-3,09996191412211E-06;1 µA
-0,350341796875;285,455696279294;-1,04827880859375E-07;-0,34918212890625;7;553;3,11425503343344E-06;-3,09996191412211E-06;1 µA
-0,30029296875;285,95618427803;-8,9263916015625E-08;-0,29925537109375;7;554;3,11425503343344E-06;-3,09996191412211E-06;1 µA
-0,250244140625;286,456672276766;-7,366943359375E-08;-0,249420166015625;7;555;3,11425503343344E-06;-3,09996191412211E-06;1 µA
-0,2001953125;286,957160275503;-5,8135986328125E-08;-0,199462890625;7;556;3,11425503343344E-06;-3,09996191412211E-06;1 µA
-0,150146484375;287,457648274239;-4,2633056640625E-08;-0,149566650390625;7;557;3,11425503343344E-06;-3,09996191412211E-06;1 µA
-0,10009765625;287,958136272976;-2,70782470703125E-08;-0,099700927734375;7;558;3,11425503343344E-06;-3,09996191412211E-06;1 µA
-0,050048828125;288,458624271712;-1,18682861328125E-08;-0,0497283935546875;7;559;3,11425503343344E-06;-3,09996191412211E-06;100 nA
0;288,959112270448;3,61328125E-09;0,000131225585937506;7;560;3,11425503343344E-06;-3,09996191412211E-06;100 nA
0,050048828125;289,459600269185;1,91650390625E-08;0,04998779296875;8;561;3,11362117528915E-06;-3,09911727905273E-06;100 nA
0,10009765625;289,960088267921;3,472900390625E-08;0,10009765625;8;562;3,11362117528915E-06;-3,09911727905273E-06;100 nA
0,150146484375;290,460576266658;5,084228515625E-08;0,149993896484375;8;563;3,11362117528915E-06;-3,09911727905273E-06;100 nA
0,2001953125;290,961064265394;6,610107421875E-08;0,199920654296875;8;564;3,11362117528915E-06;-3,09911727905273E-06;100 nA
0,250244140625;291,46155226413;8,1024169921875E-08;0,2498779296875;8;565;3,11362117528915E-06;-3,09911727905273E-06;100 nA
0,30029296875;291,962040262867;9,63134765625E-08;0,2999267578125;8;566;3,11362117528915E-06;-3,09911727905273E-06;100 nA
0,350341796875;292,462528261603;1,11663818359375E-07;0,350006103515625;8;567;3,11362117528915E-06;-3,09911727905273E-06;100 nA
0,400390625;292,963016260339;1,26953125E-07;0,39996337890625;8;568;3,11362117528915E-06;-3,09911727905273E-06;100 nA
0,450439453125;293,463504259076;1,422119140625E-07;0,44989013671875;8;569;3,11362117528915E-06;-3,09911727905273E-06;100 nA
0,50048828125;293,963992257812;1,57379150390625E-07;0,4998779296875;8;570;3,11362117528915E-06;-3,09911727905273E-06;100 nA
0,550537109375;294,464480256549;1,72760009765625E-07;0,549835205078125;8;571;3,11362117528915E-06;-3,09911727905273E-06;100 nA
0,6005859375;294,964968255285;1,8817138671875E-07;0,599761962890625;8;572;3,11362117528915E-06;-3,09911727905273E-06;100 nA
0,650634765625;295,465456254021;2,0367431640625E-07;0,649658203125;8;573;3,11362117528915E-06;-3,09911727905273E-06;100 nA
0,70068359375;295,965944252758;2,19024658203125E-07;0,69952392578125;8;574;3,11362117528915E-06;-3,09911727905273E-06;100 nA
0,750732421875;296,466432251494;2,34222412109375E-07;0,74932861328125;8;575;3,11362117528915E-06;-3,09911727905273E-06;100 nA
0,80078125;296,966920250231;2,49237060546875E-07;0,79986572265625;8;576;3,11362117528915E-06;-3,09911727905273E-06;100 nA
0,850830078125;297,467408248967;2,64404296875E-07;0,84991455078125;8;577;3,11362117528915E-06;-3,09911727905273E-06;100 nA
0,90087890625;297,967896247703;2,7972412109375E-07;0,89996337890625;8;578;3,11362117528915E-06;-3,09911727905273E-06;100 nA
0,950927734375;298,46838424644;2,95013427734375E-07;0,94879150390625;8;579;3,11362117528915E-06;-3,09911727905273E-06;100 nA
1,0009765625;298,968872245176;3,10546875E-07;0,999755859375;8;580;3,11362117528915E-06;-3,09911727905273E-06;100 nA
0,950927734375;299,469360243913;2,94342041015625E-07;0,9490966796875;8;581;3,11362117528915E-06;-3,09911727905273E-06;1 µA
0,90087890625;299,969848242649;2,78533935546875E-07;0,899658203125;8;582;3,11362117528915E-06;-3,09911727905273E-06;1 µA
0,850830078125;300,470336241385;2,62847900390625E-07;0,84991455078125;8;583;3,11362117528915E-06;-3,09911727905273E-06;1 µA
0,80078125;300,970824240122;2,47222900390625E-07;0,799560546875;8;584;3,11362117528915E-06;-3,09911727905273E-06;1 µA
0,750732421875;301,471312238858;2,31658935546875E-07;0,74981689453125;8;585;3,11362117528915E-06;-3,09911727905273E-06;1 µA
0,70068359375;301,971800237594;2,1612548828125E-07;0,69989013671875;8;586;3,11362117528915E-06;-3,09911727905273E-06;1 µA
0,650634765625;302,472288236331;2,00592041015625E-07;0,6500244140625;8;587;3,11362117528915E-06;-3,09911727905273E-06;1 µA
0,6005859375;302,972776235067;1,84967041015625E-07;0,600067138671875;8;588;3,11362117528915E-06;-3,09911727905273E-06;1 µA
0,550537109375;303,473264233804;1,695556640625E-07;0,550079345703125;8;589;3,11362117528915E-06;-3,09911727905273E-06;1 µA
0,50048828125;303,97375223254;1,54022216796875E-07;0,50006103515625;8;590;3,11362117528915E-06;-3,09911727905273E-06;1 µA
0,450439453125;304,474240231276;1,38397216796875E-07;0,4500732421875;8;591;3,11362117528915E-06;-3,09911727905273E-06;1 µA
0,400390625;304,974728230013;1,2298583984375E-07;0,40008544921875;8;592;3,11362117528915E-06;-3,09911727905273E-06;1 µA
0,350341796875;305,475216228749;1,07269287109375E-07;0,35015869140625;8;593;3,11362117528915E-06;-3,09911727905273E-06;1 µA
0,30029296875;305,975704227486;9,1583251953125E-08;0,30010986328125;8;594;3,11362117528915E-06;-3,09911727905273E-06;1 µA
0,250244140625;306,476192226222;7,574462890625E-08;0,250091552734375;8;595;3,11362117528915E-06;-3,09911727905273E-06;1 µA
0,2001953125;306,976680224958;5,9539794921875E-08;0,200042724609375;8;596;3,11362117528915E-06;-3,09911727905273E-06;1 µA
0,150146484375;307,477168223695;4,1473388671875E-08;0,1500244140625;8;597;3,11362117528915E-06;-3,09911727905273E-06;1 µA
0,10009765625;307,977656222431;2,5634765625E-08;0,100067138671875;8;598;3,11362117528915E-06;-3,09911727905273E-06;1 µA
0,050048828125;308,478144221168;1,18499755859375E-08;0,050079345703125;8;599;3,11362117528915E-06;-3,09911727905273E-06;100 nA
0;308,978632219904;-3,3447265625E-09;0,000119018554687503;8;600;3,11362117528915E-06;-3,09911727905273E-06;100 nA
-0,050048828125;309,47912021864;-1,8695068359375E-08;-0,0497283935546875;8;601;3,11362117528915E-06;-3,09911727905273E-06;100 nA
-0,10009765625;309,979608217377;-3,3966064453125E-08;-0,099639892578125;8;602;3,11362117528915E-06;-3,09911727905273E-06;100 nA
-0,150146484375;310,480096216113;-4,9530029296875E-08;-0,1495361328125;8;603;3,11362117528915E-06;-3,09911727905273E-06;100 nA
-0,2001953125;310,98058421485;-6,5093994140625E-08;-0,19940185546875;8;604;3,11362117528915E-06;-3,09911727905273E-06;100 nA
-0,250244140625;311,481072213586;-8,050537109375E-08;-0,249237060546875;8;605;3,11362117528915E-06;-3,09911727905273E-06;100 nA
-0,30029296875;311,981560212322;-9,5947265625E-08;-0,29913330078125;8;606;3,11362117528915E-06;-3,09911727905273E-06;100 nA
-0,350341796875;312,482048211059;-1,1138916015625E-07;-0,34906005859375;8;607;3,11362117528915E-06;-3,09911727905273E-06;100 nA
-0,400390625;312,982536209795;-1,26953125E-07;-0,398834228515625;8;608;3,11362117528915E-06;-3,09911727905273E-06;100 nA
-0,450439453125;313,483024208531;-1,4251708984375E-07;-0,448760986328125;8;609;3,11362117528915E-06;-3,09911727905273E-06;100 nA
-0,50048828125;313,983512207268;-1,58050537109375E-07;-0,498565673828125;8;610;3,11362117528915E-06;-3,09911727905273E-06;100 nA
-0,550537109375;314,484000206004;-1,7315673828125E-07;-0,54840087890625;8;611;3,11362117528915E-06;-3,09911727905273E-06;100 nA
-0,6005859375;314,984488204741;-1,8817138671875E-07;-0,59832763671875;8;612;3,11362117528915E-06;-3,09911727905273E-06;100 nA
-0,650634765625;315,484976203477;-2,03277587890625E-07;-0,648223876953125;8;613;3,11362117528915E-06;-3,09911727905273E-06;100 nA
-0,70068359375;315,985464202213;-2,18505859375E-07;-0,69818115234375;8;614;3,11362117528915E-06;-3,09911727905273E-06;100 nA
-0,750732421875;316,48595220095;-2,33917236328125E-07;-0,7481689453125;8;615;3,11362117528915E-06;-3,09911727905273E-06;100 nA
-0,80078125;316,986440199686;-2,49114990234375E-07;-0,7989501953125;8;616;3,11362117528915E-06;-3,09911727905273E-06;100 nA
-0,850830078125;317,486928198423;-2,642822265625E-07;-0,848388671875;8;617;3,11362117528915E-06;-3,09911727905273E-06;100 nA
-0,90087890625;317,987416197159;-2,79266357421875E-07;-0,8990478515625;8;618;3,11362117528915E-06;-3,09911727905273E-06;100 nA
-0,950927734375;318,487904195895;-2,94403076171875E-07;-0,948486328125;8;619;3,11362117528915E-06;-3,09911727905273E-06;100 nA
-1,0009765625;318,988392194632;-3,09661865234375E-07;-0,99884033203125;8;620;3,11362117528915E-06;-3,09911727905273E-06;100 nA
-0,950927734375;319,488880193368;-2,9351806640625E-07;-0,9490966796875;8;621;3,11362117528915E-06;-3,09911727905273E-06;1 µA
-0,90087890625;319,989368192105;-2,77740478515625E-07;-0,89874267578125;8;622;3,11362117528915E-06;-3,09911727905273E-06;1 µA
-0,850830078125;320,489856190841;-2,62054443359375E-07;-0,84869384765625;8;623;3,11362117528915E-06;-3,09911727905273E-06;1 µA
-0,80078125;320,990344189577;-2,46429443359375E-07;-0,79833984375;8;624;3,11362117528915E-06;-3,09911727905273E-06;1 µA
-0,750732421875;321,490832188314;-2,3077392578125E-07;-0,74859619140625;8;625;3,11362117528915E-06;-3,09911727905273E-06;1 µA
-0,70068359375;321,99132018705;-2,14935302734375E-07;-0,698577880859375;8;626;3,11362117528915E-06;-3,09911727905273E-06;1 µA
-0,650634765625;322,491808185786;-1,99188232421875E-07;-0,648590087890625;8;627;3,11362117528915E-06;-3,09911727905273E-06;1 µA
-0,6005859375;322,992296184523;-1,837158203125E-07;-0,598663330078125;8;628;3,11362117528915E-06;-3,09911727905273E-06;1 µA
-0,550537109375;323,492784183259;-1,67999267578125E-07;-0,54876708984375;8;629;3,11362117528915E-06;-3,09911727905273E-06;1 µA
-0,50048828125;323,993272181996;-1,5228271484375E-07;-0,4989013671875;8;630;3,11362117528915E-06;-3,09911727905273E-06;1 µA
-0,450439453125;324,493760180732;-1,363525390625E-07;-0,449005126953125;8;631;3,11362117528915E-06;-3,09911727905273E-06;1 µA
-0,400390625;324,994248179468;-1,20513916015625E-07;-0,399078369140625;8;632;3,11362117528915E-06;-3,09911727905273E-06;1 µA
-0,350341796875;325,494736178205;-1,04736328125E-07;-0,34918212890625;8;633;3,11362117528915E-06;-3,09911727905273E-06;1 µA
-0,30029296875;325,995224176941;-8,9141845703125E-08;-0,299224853515625;8;634;3,11362117528915E-06;-3,09911727905273E-06;1 µA
-0,250244140625;326,495712175678;-7,3577880859375E-08;-0,249359130859375;8;635;3,11362117528915E-06;-3,09911727905273E-06;1 µA
-0,2001953125;326,996200174414;-5,810546875E-08;-0,199432373046875;8;636;3,11362117528915E-06;-3,09911727905273E-06;1 µA
-0,150146484375;327,49668817315;-4,26025390625E-08;-0,1495361328125;8;637;3,11362117528915E-06;-3,09911727905273E-06;1 µA
-0,10009765625;327,997176171887;-2,7008056640625E-08;-0,099639892578125;8;638;3,11362117528915E-06;-3,09911727905273E-06;1 µA
-0,050048828125;328,497664170623;-1,1761474609375E-08;-0,0497222900390625;8;639;3,11362117528915E-06;-3,09911727905273E-06;100 nA
0;328,99815216936;3,6590576171875E-09;0,000149536132812503;8;640;3,11362117528915E-06;-3,09911727905273E-06;100 nA
0,050048828125;329,498640168096;1,92047119140625E-08;0,050079345703125;9;641;3,11299189925194E-06;-3,09926696121693E-06;100 nA
0,10009765625;329,999128166832;3,4820556640625E-08;0,10003662109375;9;642;3,11299189925194E-06;-3,09926696121693E-06;100 nA
0,150146484375;330,499616165569;5,0933837890625E-08;0,149993896484375;9;643;3,11299189925194E-06;-3,09926696121693E-06;100 nA
0,2001953125;331,000104164305;6,6070556640625E-08;0,199951171875;9;644;3,11299189925194E-06;-3,09926696121693E-06;100 nA
0,250244140625;331,500592163041;8,1024169921875E-08;0,249969482421875;9;645;3,11299189925194E-06;-3,09926696121693E-06;100 nA
0,30029296875;332,001080161778;9,6343994140625E-08;0,300018310546875;9;646;3,11299189925194E-06;-3,09926696121693E-06;100 nA
0,350341796875;332,501568160514;1,11572265625E-07;0,350006103515625;9;647;3,11299189925194E-06;-3,09926696121693E-06;100 nA
0,400390625;333,002056159251;1,26861572265625E-07;0,39996337890625;9;648;3,11299189925194E-06;-3,09926696121693E-06;100 nA
0,450439453125;333,502544157987;1,42059326171875E-07;0,4498291015625;9;649;3,11299189925194E-06;-3,09926696121693E-06;100 nA
0,50048828125;334,003032156723;1,573486328125E-07;0,499908447265625;9;650;3,11299189925194E-06;-3,09926696121693E-06;100 nA
0,550537109375;334,50352015546;1,7266845703125E-07;0,549774169921875;9;651;3,11299189925194E-06;-3,09926696121693E-06;100 nA
0,6005859375;335,004008154196;1,88079833984375E-07;0,599700927734375;9;652;3,11299189925194E-06;-3,09926696121693E-06;100 nA
0,650634765625;335,504496152933;2,034912109375E-07;0,649688720703125;9;653;3,11299189925194E-06;-3,09926696121693E-06;100 nA
0,70068359375;336,004984151669;2,1875E-07;0,699432373046875;9;654;3,11299189925194E-06;-3,09926696121693E-06;100 nA
0,750732421875;336,505472150405;2,33856201171875E-07;0,749298095703125;9;655;3,11299189925194E-06;-3,09926696121693E-06;100 nA
0,80078125;337,005960149142;2,4896240234375E-07;0,79986572265625;9;656;3,11299189925194E-06;-3,09926696121693E-06;100 nA
0,850830078125;337,506448147878;2,64129638671875E-07;0,84991455078125;9;657;3,11299189925194E-06;-3,09926696121693E-06;100 nA
0,90087890625;338,006936146615;2,7935791015625E-07;0,899658203125;9;658;3,11299189925194E-06;-3,09926696121693E-06;100 nA
0,950927734375;338,507424145351;2,94830322265625E-07;0,94970703125;9;659;3,11299189925194E-06;-3,09926696121693E-06;100 nA
1,0009765625;339,007912144087;3,1036376953125E-07;0,999755859375;9;660;3,11299189925194E-06;-3,09926696121693E-06;100 nA
0,950927734375;339,508400142824;2,9425048828125E-07;0,95001220703125;9;661;3,11299189925194E-06;-3,09926696121693E-06;1 µA
0,90087890625;340,00888814156;2,7838134765625E-07;0,899658203125;9;662;3,11299189925194E-06;-3,09926696121693E-06;1 µA
0,850830078125;340,509376140296;2,62939453125E-07;0,84991455078125;9;663;3,11299189925194E-06;-3,09926696121693E-06;1 µA
0,80078125;341,009864139033;2,471923828125E-07;0,8001708984375;9;664;3,11299189925194E-06;-3,09926696121693E-06;1 µA
0,750732421875;341,510352137769;2,3162841796875E-07;0,749755859375;9;665;3,11299189925194E-06;-3,09926696121693E-06;1 µA
0,70068359375;342,010840136506;2,1612548828125E-07;0,69989013671875;9;666;3,11299189925194E-06;-3,09926696121693E-06;1 µA
0,650634765625;342,511328135242;2,0062255859375E-07;0,649993896484375;9;667;3,11299189925194E-06;-3,09926696121693E-06;1 µA
0,6005859375;343,011816133978;1,8505859375E-07;0,600006103515625;9;668;3,11299189925194E-06;-3,09926696121693E-06;1 µA
0,550537109375;343,512304132715;1,69677734375E-07;0,550079345703125;9;669;3,11299189925194E-06;-3,09926696121693E-06;1 µA
0,50048828125;344,012792131451;1,541748046875E-07;0,500030517578125;9;670;3,11299189925194E-06;-3,09926696121693E-06;1 µA
0,450439453125;344,513280130188;1,3861083984375E-07;0,450042724609375;9;671;3,11299189925194E-06;-3,09926696121693E-06;1 µA
0,400390625;345,013768128924;1,23077392578125E-07;0,400146484375;9;672;3,11299189925194E-06;-3,09926696121693E-06;1 µA
0,350341796875;345,51425612766;1,07421875E-07;0,350067138671875;9;673;3,11299189925194E-06;-3,09926696121693E-06;1 µA
0,30029296875;346,014744126397;9,173583984375E-08;0,300048828125;9;674;3,11299189925194E-06;-3,09926696121693E-06;1 µA
0,250244140625;346,515232125133;7,5897216796875E-08;0,25006103515625;9;675;3,11299189925194E-06;-3,09926696121693E-06;1 µA
0,2001953125;347,01572012387;5,96923828125E-08;0,200042724609375;9;676;3,11299189925194E-06;-3,09926696121693E-06;1 µA
0,150146484375;347,516208122606;4,1778564453125E-08;0,15008544921875;9;677;3,11299189925194E-06;-3,09926696121693E-06;1 µA
0,10009765625;348,016696121342;2,5482177734375E-08;0,100067138671875;9;678;3,11299189925194E-06;-3,09926696121693E-06;1 µA
0,050048828125;348,517184120079;1,18438720703125E-08;0,050140380859375;9;679;3,11299189925194E-06;-3,09926696121693E-06;100 nA
0;349,017672118815;-3,460693359375E-09;0,000143432617187494;9;680;3,11299189925194E-06;-3,09926696121693E-06;100 nA
-0,050048828125;349,518160117551;-1,86859130859375E-08;-0,04974365234375;9;681;3,11299189925194E-06;-3,09926696121693E-06;100 nA
-0,10009765625;350,018648116288;-3,4027099609375E-08;-0,099609375;9;682;3,11299189925194E-06;-3,09926696121693E-06;100 nA
-0,150146484375;350,519136115024;-4,9560546875E-08;-0,149505615234375;9;683;3,11299189925194E-06;-3,09926696121693E-06;100 nA
-0,2001953125;351,019624113761;-6,512451171875E-08;-0,199432373046875;9;684;3,11299189925194E-06;-3,09926696121693E-06;100 nA
-0,250244140625;351,520112112497;-8,0535888671875E-08;-0,249267578125;9;685;3,11299189925194E-06;-3,09926696121693E-06;100 nA
-0,30029296875;352,020600111233;-9,6038818359375E-08;-0,29913330078125;9;686;3,11299189925194E-06;-3,09926696121693E-06;100 nA
-0,350341796875;352,52108810997;-1,1163330078125E-07;-0,349029541015625;9;687;3,11299189925194E-06;-3,09926696121693E-06;100 nA
-0,400390625;353,021576108706;-1,2725830078125E-07;-0,398956298828125;9;688;3,11299189925194E-06;-3,09926696121693E-06;100 nA
-0,450439453125;353,522064107443;-1,42730712890625E-07;-0,448760986328125;9;689;3,11299189925194E-06;-3,09926696121693E-06;100 nA
-0,50048828125;354,022552106179;-1,58203125E-07;-0,498626708984375;9;690;3,11299189925194E-06;-3,09926696121693E-06;100 nA
-0,550537109375;354,523040104915;-1,7327880859375E-07;-0,54852294921875;9;691;3,11299189925194E-06;-3,09926696121693E-06;100 nA
-0,6005859375;355,023528103652;-1,88385009765625E-07;-0,598419189453125;9;692;3,11299189925194E-06;-3,09926696121693E-06;100 nA
-0,650634765625;355,524016102388;-2,03369140625E-07;-0,648345947265625;9;693;3,11299189925194E-06;-3,09926696121693E-06;100 nA
-0,70068359375;356,024504101125;-2,18536376953125E-07;-0,6982421875;9;694;3,11299189925194E-06;-3,09926696121693E-06;100 nA
-0,750732421875;356,524992099861;-2,34039306640625E-07;-0,748199462890625;9;695;3,11299189925194E-06;-3,09926696121693E-06;100 nA
-0,80078125;357,025480098597;-2,49267578125E-07;-0,7989501953125;9;696;3,11299189925194E-06;-3,09926696121693E-06;100 nA
-0,850830078125;357,525968097334;-2,64312744140625E-07;-0,84930419921875;9;697;3,11299189925194E-06;-3,09926696121693E-06;100 nA
-0,90087890625;358,02645609607;-2,79205322265625E-07;-0,89874267578125;9;698;3,11299189925194E-06;-3,09926696121693E-06;100 nA
-0,950927734375;358,526944094806;-2,94342041015625E-07;-0,9490966796875;9;699;3,11299189925194E-06;-3,09926696121693E-06;100 nA
-1,0009765625;359,027432093543;-3,09600830078125E-07;-0,9991455078125;9;700;3,11299189925194E-06;-3,09926696121693E-06;100 nA
-0,950927734375;359,527920092279;-2,93365478515625E-07;-0,94879150390625;9;701;3,11299189925194E-06;-3,09926696121693E-06;1 µA
-0,90087890625;360,028408091016;-2,7764892578125E-07;-0,8984375;9;702;3,11299189925194E-06;-3,09926696121693E-06;1 µA
-0,850830078125;360,528896089752;-2,61932373046875E-07;-0,848388671875;9;703;3,11299189925194E-06;-3,09926696121693E-06;1 µA
-0,80078125;361,029384088488;-2,46307373046875E-07;-0,79864501953125;9;704;3,11299189925194E-06;-3,09926696121693E-06;1 µA
-0,750732421875;361,529872087225;-2,30560302734375E-07;-0,74859619140625;9;705;3,11299189925194E-06;-3,09926696121693E-06;1 µA
-0,70068359375;362,030360085961;-2,14752197265625E-07;-0,69854736328125;9;706;3,11299189925194E-06;-3,09926696121693E-06;1 µA
-0,650634765625;362,530848084698;-1,99066162109375E-07;-0,648529052734375;9;707;3,11299189925194E-06;-3,09926696121693E-06;1 µA
-0,6005859375;363,031336083434;-1,8341064453125E-07;-0,598602294921875;9;708;3,11299189925194E-06;-3,09926696121693E-06;1 µA
-0,550537109375;363,53182408217;-1,6790771484375E-07;-0,548736572265625;9;709;3,11299189925194E-06;-3,09926696121693E-06;1 µA
-0,50048828125;364,032312080907;-1,5216064453125E-07;-0,498809814453125;9;710;3,11299189925194E-06;-3,09926696121693E-06;1 µA
-0,450439453125;364,532800079643;-1,3641357421875E-07;-0,4488525390625;9;711;3,11299189925194E-06;-3,09926696121693E-06;1 µA
-0,400390625;365,03328807838;-1,20391845703125E-07;-0,399078369140625;9;712;3,11299189925194E-06;-3,09926696121693E-06;1 µA
-0,350341796875;365,533776077116;-1,04736328125E-07;-0,34918212890625;9;713;3,11299189925194E-06;-3,09926696121693E-06;1 µA
-0,30029296875;366,034264075852;-8,9141845703125E-08;-0,299224853515625;9;714;3,11299189925194E-06;-3,09926696121693E-06;1 µA
-0,250244140625;366,534752074589;-7,3577880859375E-08;-0,24932861328125;9;715;3,11299189925194E-06;-3,09926696121693E-06;1 µA
-0,2001953125;367,035240073325;-5,8074951171875E-08;-0,199432373046875;9;716;3,11299189925194E-06;-3,09926696121693E-06;1 µA
-0,150146484375;367,535728072061;-4,2633056640625E-08;-0,14959716796875;9;717;3,11299189925194E-06;-3,09926696121693E-06;1 µA
-0,10009765625;368,036216070798;-2,7008056640625E-08;-0,0997314453125;9;718;3,11299189925194E-06;-3,09926696121693E-06;1 µA
-0,050048828125;368,536704069534;-1,18011474609375E-08;-0,0497222900390625;9;719;3,11299189925194E-06;-3,09926696121693E-06;100 nA
0;369,037192068271;3,5888671875E-09;0,000128173828124994;9;720;3,11299189925194E-06;-3,09926696121693E-06;100 nA
0,050048828125;369,537680067007;1,91650390625E-08;0,050048828125;10;721;3,11274141073227E-06;-3,09890650212765E-06;100 nA
0,10009765625;370,038168065743;3,4759521484375E-08;0,10003662109375;10;722;3,11274141073227E-06;-3,09890650212765E-06;100 nA
0,150146484375;370,53865606448;5,0872802734375E-08;0,149993896484375;10;723;3,11274141073227E-06;-3,09890650212765E-06;100 nA
0,2001953125;371,039144063216;6,57958984375E-08;0,19989013671875;10;724;3,11274141073227E-06;-3,09890650212765E-06;100 nA
0,250244140625;371,539632061953;8,0841064453125E-08;0,249908447265625;10;725;3,11274141073227E-06;-3,09890650212765E-06;100 nA
0,30029296875;372,040120060689;9,60693359375E-08;0,2999267578125;10;726;3,11274141073227E-06;-3,09890650212765E-06;100 nA
0,350341796875;372,540608059425;1,11419677734375E-07;0,34991455078125;10;727;3,11274141073227E-06;-3,09890650212765E-06;100 nA
0,400390625;373,041096058162;1,26617431640625E-07;0,39984130859375;10;728;3,11274141073227E-06;-3,09890650212765E-06;100 nA
0,450439453125;373,541584056898;1,41876220703125E-07;0,44989013671875;10;729;3,11274141073227E-06;-3,09890650212765E-06;100 nA
0,50048828125;374,042072055635;1,57196044921875E-07;0,49981689453125;10;730;3,11274141073227E-06;-3,09890650212765E-06;100 nA
0,550537109375;374,542560054371;1,7254638671875E-07;0,5498046875;10;731;3,11274141073227E-06;-3,09890650212765E-06;100 nA
0,6005859375;375,043048053107;1,88079833984375E-07;0,59979248046875;10;732;3,11274141073227E-06;-3,09890650212765E-06;100 nA
0,650634765625;375,543536051844;2,0355224609375E-07;0,64971923828125;10;733;3,11274141073227E-06;-3,09890650212765E-06;100 nA
0,70068359375;376,04402405058;2,188720703125E-07;0,69952392578125;10;734;3,11274141073227E-06;-3,09890650212765E-06;100 nA
0,750732421875;376,544512049316;2,34039306640625E-07;0,749420166015625;10;735;3,11274141073227E-06;-3,09890650212765E-06;100 nA
0,80078125;377,045000048053;2,491455078125E-07;0,79986572265625;10;736;3,11274141073227E-06;-3,09890650212765E-06;100 nA
0,850830078125;377,545488046789;2,64251708984375E-07;0,84991455078125;10;737;3,11274141073227E-06;-3,09890650212765E-06;100 nA
0,90087890625;378,045976045526;2,7960205078125E-07;0,89935302734375;10;738;3,11274141073227E-06;-3,09890650212765E-06;100 nA
0,950927734375;378,546464044262;2,95074462890625E-07;0,95001220703125;10;739;3,11274141073227E-06;-3,09890650212765E-06;100 nA
1,0009765625;379,046952042998;3,10638427734375E-07;0,9991455078125;10;740;3,11274141073227E-06;-3,09890650212765E-06;100 nA
0,950927734375;379,547440041735;2,9437255859375E-07;0,94970703125;10;741;3,11274141073227E-06;-3,09890650212765E-06;1 µA
0,90087890625;380,047928040471;2,7850341796875E-07;0,899658203125;10;742;3,11274141073227E-06;-3,09890650212765E-06;1 µA
0,850830078125;380,548416039208;2,62847900390625E-07;0,8502197265625;10;743;3,11274141073227E-06;-3,09890650212765E-06;1 µA
0,80078125;381,048904037944;2,47283935546875E-07;0,79986572265625;10;744;3,11274141073227E-06;-3,09890650212765E-06;1 µA
0,750732421875;381,54939203668;2,31719970703125E-07;0,749786376953125;10;745;3,11274141073227E-06;-3,09890650212765E-06;1 µA
0,70068359375;382,049880035417;2,16156005859375E-07;0,699859619140625;10;746;3,11274141073227E-06;-3,09890650212765E-06;1 µA
0,650634765625;382,550368034153;2,0068359375E-07;0,649993896484375;10;747;3,11274141073227E-06;-3,09890650212765E-06;1 µA
0,6005859375;383,05085603289;1,851806640625E-07;0,600067138671875;10;748;3,11274141073227E-06;-3,09890650212765E-06;1 µA
0,550537109375;383,551344031626;1,69647216796875E-07;0,550079345703125;10;749;3,11274141073227E-06;-3,09890650212765E-06;1 µA
0,50048828125;384,051832030362;1,54144287109375E-07;0,5001220703125;10;750;3,11274141073227E-06;-3,09890650212765E-06;1 µA
0,450439453125;384,552320029099;1,38580322265625E-07;0,45013427734375;10;751;3,11274141073227E-06;-3,09890650212765E-06;1 µA
0,400390625;385,052808027835;1,23046875E-07;0,40008544921875;10;752;3,11274141073227E-06;-3,09890650212765E-06;1 µA
0,350341796875;385,553296026572;1,0736083984375E-07;0,35009765625;10;753;3,11274141073227E-06;-3,09890650212765E-06;1 µA
0,30029296875;386,053784025308;9,1644287109375E-08;0,300079345703125;10;754;3,11274141073227E-06;-3,09890650212765E-06;1 µA
0,250244140625;386,554272024044;7,58056640625E-08;0,25006103515625;10;755;3,11274141073227E-06;-3,09890650212765E-06;1 µA
0,2001953125;387,054760022781;5,96923828125E-08;0,200042724609375;10;756;3,11274141073227E-06;-3,09890650212765E-06;1 µA
0,150146484375;387,555248021517;4,1839599609375E-08;0,1500244140625;10;757;3,11274141073227E-06;-3,09890650212765E-06;1 µA
0,10009765625;388,055736020253;2,5299072265625E-08;0,10003662109375;10;758;3,11274141073227E-06;-3,09890650212765E-06;1 µA
0,050048828125;388,55622401899;1,165771484375E-08;0,050048828125;10;759;3,11274141073227E-06;-3,09890650212765E-06;100 nA
0;389,056712017726;-3,4332275390625E-09;0,000103759765625003;10;760;3,11274141073227E-06;-3,09890650212765E-06;100 nA
-0,050048828125;389,557200016463;-1,8804931640625E-08;-0,049774169921875;10;761;3,11274141073227E-06;-3,09890650212765E-06;100 nA
-0,10009765625;390,057688015199;-3,4088134765625E-08;-0,09967041015625;10;762;3,11274141073227E-06;-3,09890650212765E-06;100 nA
-0,150146484375;390,558176013935;-4,9652099609375E-08;-0,14959716796875;10;763;3,11274141073227E-06;-3,09890650212765E-06;100 nA
-0,2001953125;391,058664012672;-6,5216064453125E-08;-0,1993408203125;10;764;3,11274141073227E-06;-3,09890650212765E-06;100 nA
-0,250244140625;391,559152011408;-8,0596923828125E-08;-0,249298095703125;10;765;3,11274141073227E-06;-3,09890650212765E-06;100 nA
-0,30029296875;392,059640010145;-9,6099853515625E-08;-0,299163818359375;10;766;3,11274141073227E-06;-3,09890650212765E-06;100 nA
-0,350341796875;392,560128008881;-1,11541748046875E-07;-0,349090576171875;10;767;3,11274141073227E-06;-3,09890650212765E-06;100 nA
-0,400390625;393,060616007617;-1,27044677734375E-07;-0,39886474609375;10;768;3,11274141073227E-06;-3,09890650212765E-06;100 nA
-0,450439453125;393,561104006354;-1,42608642578125E-07;-0,44873046875;10;769;3,11274141073227E-06;-3,09890650212765E-06;100 nA
-0,50048828125;394,06159200509;-1,5802001953125E-07;-0,498626708984375;10;770;3,11274141073227E-06;-3,09890650212765E-06;100 nA
-0,550537109375;394,562080003827;-1,73095703125E-07;-0,5484619140625;10;771;3,11274141073227E-06;-3,09890650212765E-06;100 nA
-0,6005859375;395,062568002563;-1,8804931640625E-07;-0,598358154296875;10;772;3,11274141073227E-06;-3,09890650212765E-06;100 nA
-0,650634765625;395,563056001299;-2,032470703125E-07;-0,64825439453125;10;773;3,11274141073227E-06;-3,09890650212765E-06;100 nA
-0,70068359375;396,063544000036;-2,18536376953125E-07;-0,69818115234375;10;774;3,11274141073227E-06;-3,09890650212765E-06;100 nA
-0,750732421875;396,564031998772;-2,33795166015625E-07;-0,7481689453125;10;775;3,11274141073227E-06;-3,09890650212765E-06;100 nA
-0,80078125;397,064519997508;-2,48931884765625E-07;-0,79833984375;10;776;3,11274141073227E-06;-3,09890650212765E-06;100 nA
-0,850830078125;397,565007996245;-2,64068603515625E-07;-0,8489990234375;10;777;3,11274141073227E-06;-3,09890650212765E-06;100 nA
-0,90087890625;398,065495994981;-2,79144287109375E-07;-0,89874267578125;10;778;3,11274141073227E-06;-3,09890650212765E-06;100 nA
-0,950927734375;398,565983993718;-2,943115234375E-07;-0,9490966796875;10;779;3,11274141073227E-06;-3,09890650212765E-06;100 nA
-1,0009765625;399,066471992454;-3,094482421875E-07;-0,9991455078125;10;780;3,11274141073227E-06;-3,09890650212765E-06;100 nA
-0,950927734375;399,56695999119;-2,93304443359375E-07;-0,9490966796875;10;781;3,11274141073227E-06;-3,09890650212765E-06;1 µA
-0,90087890625;400,067447989927;-2,77618408203125E-07;-0,8990478515625;10;782;3,11274141073227E-06;-3,09890650212765E-06;1 µA
-0,850830078125;400,567935988663;-2,6190185546875E-07;-0,84869384765625;10;783;3,11274141073227E-06;-3,09890650212765E-06;1 µA
-0,80078125;401,0684239874;-2,46307373046875E-07;-0,79925537109375;10;784;3,11274141073227E-06;-3,09890650212765E-06;1 µA
-0,750732421875;401,568911986136;-2,30682373046875E-07;-0,748565673828125;10;785;3,11274141073227E-06;-3,09890650212765E-06;1 µA
-0,70068359375;402,069399984872;-2,14874267578125E-07;-0,698516845703125;10;786;3,11274141073227E-06;-3,09890650212765E-06;1 µA
-0,650634765625;402,569887983609;-1,9921875E-07;-0,6485595703125;10;787;3,11274141073227E-06;-3,09890650212765E-06;1 µA
-0,6005859375;403,070375982345;-1,8353271484375E-07;-0,598541259765625;10;788;3,11274141073227E-06;-3,09890650212765E-06;1 µA
-0,550537109375;403,570863981082;-1,67999267578125E-07;-0,548736572265625;10;789;3,11274141073227E-06;-3,09890650212765E-06;1 µA
-0,50048828125;404,071351979818;-1,522216796875E-07;-0,498870849609375;10;790;3,11274141073227E-06;-3,09890650212765E-06;1 µA
-0,450439453125;404,571839978554;-1,36444091796875E-07;-0,448883056640625;10;791;3,11274141073227E-06;-3,09890650212765E-06;1 µA
-0,400390625;405,072327977291;-1,20513916015625E-07;-0,399078369140625;10;792;3,11274141073227E-06;-3,09890650212765E-06;1 µA
-0,350341796875;405,572815976027;-1,0479736328125E-07;-0,349212646484375;10;793;3,11274141073227E-06;-3,09890650212765E-06;1 µA
-0,30029296875;406,073303974763;-8,9202880859375E-08;-0,29925537109375;10;794;3,11274141073227E-06;-3,09890650212765E-06;1 µA
-0,250244140625;406,5737919735;-7,3699951171875E-08;-0,249359130859375;10;795;3,11274141073227E-06;-3,09890650212765E-06;1 µA
-0,2001953125;407,074279972236;-5,8135986328125E-08;-0,199432373046875;10;796;3,11274141073227E-06;-3,09890650212765E-06;1 µA
-0,150146484375;407,574767970973;-4,266357421875E-08;-0,149566650390625;10;797;3,11274141073227E-06;-3,09890650212765E-06;1 µA
-0,10009765625;408,075255969709;-2,703857421875E-08;-0,0997314453125;10;798;3,11274141073227E-06;-3,09890650212765E-06;1 µA
-0,050048828125;408,575743968445;-1,18743896484375E-08;-0,0498046875;10;799;3,11274141073227E-06;-3,09890650212765E-06;100 nA
0;409,076231967182;3,52783203125E-09;0,0001220703125;10;800;3,11274141073227E-06;-3,09890650212765E-06;100 nA
