Potential applied (V);Time (s);WE(1).Current (A);WE(1).Potential (V);Scan;Index;Q+;Q-;Current range
0,050048828125;7,35609698142764;4,949951171875E-09;0,05010986328125;1;1;2,47311592102051E-07;-2,81107686460018E-07;100 nA
0,10009765625;7,85658498016403;8,3038330078125E-09;0,100128173828125;1;2;2,47311592102051E-07;-2,81107686460018E-07;100 nA
0,150146484375;8,35707297890042;8,721923828125E-09;0,150115966796875;1;3;2,47311592102051E-07;-2,81107686460018E-07;100 nA
0,2001953125;8,85756097763681;9,0423583984375E-09;0,20013427734375;1;4;2,47311592102051E-07;-2,81107686460018E-07;100 nA
0,250244140625;9,3580489763732;9,4329833984375E-09;0,25006103515625;1;5;2,47311592102051E-07;-2,81107686460018E-07;100 nA
0,30029296875;9,85853697510959;9,6405029296875E-09;0,30010986328125;1;6;2,47311592102051E-07;-2,81107686460018E-07;100 nA
0,350341796875;10,359024973846;9,9365234375E-09;0,350128173828125;1;7;2,47311592102051E-07;-2,81107686460018E-07;100 nA
0,400390625;10,8595129725824;1,05194091796875E-08;0,40008544921875;1;8;2,47311592102051E-07;-2,81107686460018E-07;100 nA
0,450439453125;11,3600009713188;1,12396240234375E-08;0,450103759765625;1;9;2,47311592102051E-07;-2,81107686460018E-07;100 nA
0,50048828125;11,8604889700551;1,209716796875E-08;0,5001220703125;1;10;2,47311592102051E-07;-2,81107686460018E-07;100 nA
0,550537109375;12,3609769687915;1,298828125E-08;0,550079345703125;1;11;2,47311592102051E-07;-2,81107686460018E-07;100 nA
0,6005859375;12,8614649675279;1,397705078125E-08;0,600067138671875;1;12;2,47311592102051E-07;-2,81107686460018E-07;100 nA
0,650634765625;13,3619529662643;1,4971923828125E-08;0,649993896484375;1;13;2,47311592102051E-07;-2,81107686460018E-07;100 nA
0,70068359375;13,8624409650007;1,60003662109375E-08;0,699951171875;1;14;2,47311592102051E-07;-2,81107686460018E-07;100 nA
0,750732421875;14,3629289637371;1,70257568359375E-08;0,74981689453125;1;15;2,47311592102051E-07;-2,81107686460018E-07;100 nA
0,80078125;14,8634169624735;1,802978515625E-08;0,79986572265625;1;16;2,47311592102051E-07;-2,81107686460018E-07;100 nA
0,850830078125;15,3639049612099;1,910400390625E-08;0,84991455078125;1;17;2,47311592102051E-07;-2,81107686460018E-07;100 nA
0,90087890625;15,8643929599463;2,0306396484375E-08;0,89996337890625;1;18;2,47311592102051E-07;-2,81107686460018E-07;100 nA
0,950927734375;16,3648809586826;2,17315673828125E-08;0,94940185546875;1;19;2,47311592102051E-07;-2,81107686460018E-07;100 nA
1,0009765625;16,865368957419;2,3162841796875E-08;1,00006103515625;1;20;2,47311592102051E-07;-2,81107686460018E-07;100 nA
0,950927734375;17,3658569561554;2,103271484375E-08;0,94940185546875;1;21;2,47311592102051E-07;-2,81107686460018E-07;100 nA
0,90087890625;17,8663449548918;1,93756103515625E-08;0,89996337890625;1;22;2,47311592102051E-07;-2,81107686460018E-07;100 nA
0,850830078125;18,3668329536282;1,80267333984375E-08;0,84930419921875;1;23;2,47311592102051E-07;-2,81107686460018E-07;100 nA
0,80078125;18,8673209523646;1,67999267578125E-08;0,8001708984375;1;24;2,47311592102051E-07;-2,81107686460018E-07;100 nA
0,750732421875;19,367808951101;1,56402587890625E-08;0,749786376953125;1;25;2,47311592102051E-07;-2,81107686460018E-07;100 nA
0,70068359375;19,8682969498374;1,4544677734375E-08;0,69989013671875;1;26;2,47311592102051E-07;-2,81107686460018E-07;100 nA
0,650634765625;20,3687849485738;1,33697509765625E-08;0,649993896484375;1;27;2,47311592102051E-07;-2,81107686460018E-07;100 nA
0,6005859375;20,8692729473102;1,2261962890625E-08;0,600128173828125;1;28;2,47311592102051E-07;-2,81107686460018E-07;100 nA
0,550537109375;21,3697609460465;1,121826171875E-08;0,550140380859375;1;29;2,47311592102051E-07;-2,81107686460018E-07;100 nA
0,50048828125;21,8702489447829;1,01348876953125E-08;0,500091552734375;1;30;2,47311592102051E-07;-2,81107686460018E-07;100 nA
0,450439453125;22,3707369435193;9,0301513671875E-09;0,4500732421875;1;31;2,47311592102051E-07;-2,81107686460018E-07;100 nA
0,400390625;22,8712249422557;7,8887939453125E-09;0,40008544921875;1;32;2,47311592102051E-07;-2,81107686460018E-07;100 nA
0,350341796875;23,3717129409921;6,6864013671875E-09;0,350067138671875;1;33;2,47311592102051E-07;-2,81107686460018E-07;100 nA
0,30029296875;23,8722009397285;5,3619384765625E-09;0,300048828125;1;34;2,47311592102051E-07;-2,81107686460018E-07;100 nA
0,250244140625;24,3726889384649;3,9398193359375E-09;0,25;1;35;2,47311592102051E-07;-2,81107686460018E-07;100 nA
0,2001953125;24,8731769372013;2,4810791015625E-09;0,20001220703125;1;36;2,47311592102051E-07;-2,81107686460018E-07;100 nA
0,150146484375;25,3736649359377;9,70458984375E-10;0,150054931640625;1;37;2,47311592102051E-07;-2,81107686460018E-07;100 nA
0,10009765625;25,874152934674;-1,0772705078125E-09;0,100067138671875;1;38;2,47311592102051E-07;-2,81107686460018E-07;100 nA
0,050048828125;26,3746409334104;-4,7576904296875E-09;0,04998779296875;1;39;2,47311592102051E-07;-2,81107686460018E-07;100 nA
0;26,8751289321468;-8,2061767578125E-09;0,000112915039062494;1;40;2,47311592102051E-07;-2,81107686460018E-07;100 nA
-0,050048828125;27,3756169308832;-9,1522216796875E-09;-0,049835205078125;1;41;2,47311592102051E-07;-2,81107686460018E-07;100 nA
-0,10009765625;27,8761049296196;-1,21337890625E-08;-0,099639892578125;1;42;2,47311592102051E-07;-2,81107686460018E-07;100 nA
-0,150146484375;28,376592928356;-1,58416748046875E-08;-0,149566650390625;1;43;2,47311592102051E-07;-2,81107686460018E-07;100 nA
-0,2001953125;28,8770809270924;-1,8402099609375E-08;-0,199371337890625;1;44;2,47311592102051E-07;-2,81107686460018E-07;100 nA
-0,250244140625;29,3775689258288;-1,947021484375E-08;-0,2493896484375;1;45;2,47311592102051E-07;-2,81107686460018E-07;100 nA
-0,30029296875;29,8780569245652;-2,00439453125E-08;-0,299224853515625;1;46;2,47311592102051E-07;-2,81107686460018E-07;100 nA
-0,350341796875;30,3785449233015;-2,00225830078125E-08;-0,349151611328125;1;47;2,47311592102051E-07;-2,81107686460018E-07;100 nA
-0,400390625;30,8790329220379;-1,90643310546875E-08;-0,399078369140625;1;48;2,47311592102051E-07;-2,81107686460018E-07;100 nA
-0,450439453125;31,3795209207743;-1,7669677734375E-08;-0,44891357421875;1;49;2,47311592102051E-07;-2,81107686460018E-07;100 nA
-0,50048828125;31,8800089195107;-1,7608642578125E-08;-0,498809814453125;1;50;2,47311592102051E-07;-2,81107686460018E-07;100 nA
-0,550537109375;32,3804969182471;-1,78955078125E-08;-0,5487060546875;1;51;2,47311592102051E-07;-2,81107686460018E-07;100 nA
-0,6005859375;32,8809849169835;-1,80023193359375E-08;-0,59857177734375;1;52;2,47311592102051E-07;-2,81107686460018E-07;100 nA
-0,650634765625;33,3814729157199;-1,78466796875E-08;-0,648529052734375;1;53;2,47311592102051E-07;-2,81107686460018E-07;100 nA
-0,70068359375;33,8819609144563;-1,79351806640625E-08;-0,698516845703125;1;54;2,47311592102051E-07;-2,81107686460018E-07;100 nA
-0,750732421875;34,3824489131927;-1,85211181640625E-08;-0,748504638671875;1;55;2,47311592102051E-07;-2,81107686460018E-07;100 nA
-0,80078125;34,8829369119291;-1,94366455078125E-08;-0,79833984375;1;56;2,47311592102051E-07;-2,81107686460018E-07;100 nA
-0,850830078125;35,3834249106654;-2,044677734375E-08;-0,84869384765625;1;57;2,47311592102051E-07;-2,81107686460018E-07;100 nA
-0,90087890625;35,8839129094018;-2,1636962890625E-08;-0,8984375;1;58;2,47311592102051E-07;-2,81107686460018E-07;100 nA
-0,950927734375;36,3844009081382;-2,2906494140625E-08;-0,94879150390625;1;59;2,47311592102051E-07;-2,81107686460018E-07;100 nA
-1,0009765625;36,8848889068746;-2,4169921875E-08;-0,99884033203125;1;60;2,47311592102051E-07;-2,81107686460018E-07;100 nA
-0,950927734375;37,385376905611;-2,21649169921875E-08;-0,948486328125;1;61;2,47311592102051E-07;-2,81107686460018E-07;100 nA
-0,90087890625;37,8858649043474;-2,06939697265625E-08;-0,8990478515625;1;62;2,47311592102051E-07;-2,81107686460018E-07;100 nA
-0,850830078125;38,3863529030838;-1,9390869140625E-08;-0,84869384765625;1;63;2,47311592102051E-07;-2,81107686460018E-07;100 nA
-0,80078125;38,8868409018202;-1,81427001953125E-08;-0,79925537109375;1;64;2,47311592102051E-07;-2,81107686460018E-07;100 nA
-0,750732421875;39,3873289005566;-1,68853759765625E-08;-0,74847412109375;1;65;2,47311592102051E-07;-2,81107686460018E-07;100 nA
-0,70068359375;39,8878168992929;-1,5521240234375E-08;-0,698455810546875;1;66;2,47311592102051E-07;-2,81107686460018E-07;100 nA
-0,650634765625;40,3883048980293;-1,41754150390625E-08;-0,648529052734375;1;67;2,47311592102051E-07;-2,81107686460018E-07;100 nA
-0,6005859375;40,8887928967657;-1,2774658203125E-08;-0,59857177734375;1;68;2,47311592102051E-07;-2,81107686460018E-07;100 nA
-0,550537109375;41,3892808955021;-1,1309814453125E-08;-0,5487060546875;1;69;2,47311592102051E-07;-2,81107686460018E-07;100 nA
-0,50048828125;41,8897688942385;-9,442138671875E-09;-0,498779296875;1;70;2,47311592102051E-07;-2,81107686460018E-07;100 nA
-0,450439453125;42,3902568929749;-7,4737548828125E-09;-0,448944091796875;1;71;2,47311592102051E-07;-2,81107686460018E-07;100 nA
-0,400390625;42,8907448917113;-5,615234375E-09;-0,3990478515625;1;72;2,47311592102051E-07;-2,81107686460018E-07;100 nA
-0,350341796875;43,3912328904477;-3,8421630859375E-09;-0,349151611328125;1;73;2,47311592102051E-07;-2,81107686460018E-07;100 nA
-0,30029296875;43,8917208891841;-1,9866943359375E-09;-0,29925537109375;1;74;2,47311592102051E-07;-2,81107686460018E-07;100 nA
-0,250244140625;44,3922088879204;8,544921875E-11;-0,249359130859375;1;75;2,47311592102051E-07;-2,81107686460018E-07;100 nA
-0,2001953125;44,8926968866568;2,349853515625E-09;-0,199432373046875;1;76;2,47311592102051E-07;-2,81107686460018E-07;100 nA
-0,150146484375;45,3931848853932;4,656982421875E-09;-0,14959716796875;1;77;2,47311592102051E-07;-2,81107686460018E-07;100 nA
-0,10009765625;45,8936728841296;6,9122314453125E-09;-0,099639892578125;1;78;2,47311592102051E-07;-2,81107686460018E-07;100 nA
-0,050048828125;46,394160882866;9,051513671875E-09;-0,049835205078125;1;79;2,47311592102051E-07;-2,81107686460018E-07;100 nA
0;46,8946488816024;1,1138916015625E-08;0,000140380859374997;1;80;2,47311592102051E-07;-2,81107686460018E-07;100 nA
0,050048828125;47,3951368803388;1,3262939453125E-08;0,050018310546875;2;81;2,63579599559307E-07;-2,80797630548477E-07;100 nA
0,10009765625;47,8956248790752;1,53076171875E-08;0,100067138671875;2;82;2,63579599559307E-07;-2,80797630548477E-07;100 nA
0,150146484375;48,3961128778116;1,47430419921875E-08;0,150054931640625;2;83;2,63579599559307E-07;-2,80797630548477E-07;100 nA
0,2001953125;48,896600876548;1,177978515625E-08;0,2000732421875;2;84;2,63579599559307E-07;-2,80797630548477E-07;100 nA
0,250244140625;49,3970888752843;1,16180419921875E-08;0,25;2;85;2,63579599559307E-07;-2,80797630548477E-07;100 nA
0,30029296875;49,8975768740207;1,13800048828125E-08;0,300048828125;2;86;2,63579599559307E-07;-2,80797630548477E-07;100 nA
0,350341796875;50,3980648727571;1,0797119140625E-08;0,35009765625;2;87;2,63579599559307E-07;-2,80797630548477E-07;100 nA
0,400390625;50,8985528714935;1,09893798828125E-08;0,399993896484375;2;88;2,63579599559307E-07;-2,80797630548477E-07;100 nA
0,450439453125;51,3990408702299;1,14837646484375E-08;0,45001220703125;2;89;2,63579599559307E-07;-2,80797630548477E-07;100 nA
0,50048828125;51,8995288689663;1,21337890625E-08;0,500030517578125;2;90;2,63579599559307E-07;-2,80797630548477E-07;100 nA
0,550537109375;52,4000168677027;1,29364013671875E-08;0,550048828125;2;91;2,63579599559307E-07;-2,80797630548477E-07;100 nA
0,6005859375;52,9005048664391;1,3885498046875E-08;0,5999755859375;2;92;2,63579599559307E-07;-2,80797630548477E-07;100 nA
0,650634765625;53,4009928651755;1,48773193359375E-08;0,649932861328125;2;93;2,63579599559307E-07;-2,80797630548477E-07;100 nA
0,70068359375;53,9014808639118;1,58782958984375E-08;0,699859619140625;2;94;2,63579599559307E-07;-2,80797630548477E-07;100 nA
0,750732421875;54,4019688626482;1,69677734375E-08;0,749847412109375;2;95;2,63579599559307E-07;-2,80797630548477E-07;100 nA
0,80078125;54,9024568613846;1,79718017578125E-08;0,80047607421875;2;96;2,63579599559307E-07;-2,80797630548477E-07;100 nA
0,850830078125;55,402944860121;1,90948486328125E-08;0,84991455078125;2;97;2,63579599559307E-07;-2,80797630548477E-07;100 nA
0,90087890625;55,9034328588574;2,037353515625E-08;0,89996337890625;2;98;2,63579599559307E-07;-2,80797630548477E-07;100 nA
0,950927734375;56,4039208575938;2,17864990234375E-08;0,95001220703125;2;99;2,63579599559307E-07;-2,80797630548477E-07;100 nA
1,0009765625;56,9044088563302;2,34039306640625E-08;0,99945068359375;2;100;2,63579599559307E-07;-2,80797630548477E-07;100 nA
0,950927734375;57,4048968550666;2,11151123046875E-08;0,95001220703125;2;101;2,63579599559307E-07;-2,80797630548477E-07;100 nA
0,90087890625;57,905384853803;1,94488525390625E-08;0,899658203125;2;102;2,63579599559307E-07;-2,80797630548477E-07;100 nA
0,850830078125;58,4058728525393;1,8115234375E-08;0,84991455078125;2;103;2,63579599559307E-07;-2,80797630548477E-07;100 nA
0,80078125;58,9063608512757;1,69464111328125E-08;0,799560546875;2;104;2,63579599559307E-07;-2,80797630548477E-07;100 nA
0,750732421875;59,4068488500121;1,5765380859375E-08;0,7498779296875;2;105;2,63579599559307E-07;-2,80797630548477E-07;100 nA
0,70068359375;59,9073368487485;1,463623046875E-08;0,699920654296875;2;106;2,63579599559307E-07;-2,80797630548477E-07;100 nA
0,650634765625;60,4078248474849;1,357421875E-08;0,65008544921875;2;107;2,63579599559307E-07;-2,80797630548477E-07;100 nA
0,6005859375;60,9083128462213;1,2445068359375E-08;0,600067138671875;2;108;2,63579599559307E-07;-2,80797630548477E-07;100 nA
0,550537109375;61,4088008449577;1,1370849609375E-08;0,55010986328125;2;109;2,63579599559307E-07;-2,80797630548477E-07;100 nA
0,50048828125;61,9092888436941;1,02996826171875E-08;0,500091552734375;2;110;2,63579599559307E-07;-2,80797630548477E-07;100 nA
0,450439453125;62,4097768424305;9,1888427734375E-09;0,450103759765625;2;111;2,63579599559307E-07;-2,80797630548477E-07;100 nA
0,400390625;62,9102648411669;8,050537109375E-09;0,400115966796875;2;112;2,63579599559307E-07;-2,80797630548477E-07;100 nA
0,350341796875;63,4107528399032;6,8878173828125E-09;0,350189208984375;2;113;2,63579599559307E-07;-2,80797630548477E-07;100 nA
0,30029296875;63,9112408386396;5,6121826171875E-09;0,300079345703125;2;114;2,63579599559307E-07;-2,80797630548477E-07;100 nA
0,250244140625;64,411728837376;4,26025390625E-09;0,2501220703125;2;115;2,63579599559307E-07;-2,80797630548477E-07;100 nA
0,2001953125;64,9122168361124;2,7801513671875E-09;0,20013427734375;2;116;2,63579599559307E-07;-2,80797630548477E-07;100 nA
0,150146484375;65,4127048348488;1,15966796875E-09;0,150115966796875;2;117;2,63579599559307E-07;-2,80797630548477E-07;100 nA
0,10009765625;65,9131928335852;-9,33837890625E-10;0,10003662109375;2;118;2,63579599559307E-07;-2,80797630548477E-07;100 nA
0,050048828125;66,4136808323216;-4,78515625E-09;0,05010986328125;2;119;2,63579599559307E-07;-2,80797630548477E-07;100 nA
0;66,914168831058;-8,3221435546875E-09;0,000125122070312497;2;120;2,63579599559307E-07;-2,80797630548477E-07;100 nA
-0,050048828125;67,4146568297944;-9,3231201171875E-09;-0,0497161865234375;2;121;2,63579599559307E-07;-2,80797630548477E-07;100 nA
-0,10009765625;67,9151448285307;-1,2335205078125E-08;-0,09967041015625;2;122;2,63579599559307E-07;-2,80797630548477E-07;100 nA
-0,150146484375;68,4156328272671;-1,6070556640625E-08;-0,149566650390625;2;123;2,63579599559307E-07;-2,80797630548477E-07;100 nA
-0,2001953125;68,9161208260035;-1,84967041015625E-08;-0,199432373046875;2;124;2,63579599559307E-07;-2,80797630548477E-07;100 nA
-0,250244140625;69,4166088247399;-1,9512939453125E-08;-0,249267578125;2;125;2,63579599559307E-07;-2,80797630548477E-07;100 nA
-0,30029296875;69,9170968234763;-2,00286865234375E-08;-0,299224853515625;2;126;2,63579599559307E-07;-2,80797630548477E-07;100 nA
-0,350341796875;70,4175848222127;-1,98944091796875E-08;-0,349212646484375;2;127;2,63579599559307E-07;-2,80797630548477E-07;100 nA
-0,400390625;70,9180728209491;-1,87835693359375E-08;-0,399017333984375;2;128;2,63579599559307E-07;-2,80797630548477E-07;100 nA
-0,450439453125;71,4185608196855;-1,74285888671875E-08;-0,44891357421875;2;129;2,63579599559307E-07;-2,80797630548477E-07;100 nA
-0,50048828125;71,9190488184219;-1,73370361328125E-08;-0,49884033203125;2;130;2,63579599559307E-07;-2,80797630548477E-07;100 nA
-0,550537109375;72,4195368171582;-1,763916015625E-08;-0,54876708984375;2;131;2,63579599559307E-07;-2,80797630548477E-07;100 nA
-0,6005859375;72,9200248158946;-1,77276611328125E-08;-0,598602294921875;2;132;2,63579599559307E-07;-2,80797630548477E-07;100 nA
-0,650634765625;73,420512814631;-1,76422119140625E-08;-0,648529052734375;2;133;2,63579599559307E-07;-2,80797630548477E-07;100 nA
-0,70068359375;73,9210008133674;-1,790771484375E-08;-0,69854736328125;2;134;2,63579599559307E-07;-2,80797630548477E-07;100 nA
-0,750732421875;74,4214888121038;-1,85394287109375E-08;-0,748565673828125;2;135;2,63579599559307E-07;-2,80797630548477E-07;100 nA
-0,80078125;74,9219768108402;-1,94183349609375E-08;-0,79803466796875;2;136;2,63579599559307E-07;-2,80797630548477E-07;100 nA
-0,850830078125;75,4224648095766;-2,0477294921875E-08;-0,8489990234375;2;137;2,63579599559307E-07;-2,80797630548477E-07;100 nA
-0,90087890625;75,922952808313;-2,15728759765625E-08;-0,89874267578125;2;138;2,63579599559307E-07;-2,80797630548477E-07;100 nA
-0,950927734375;76,4234408070494;-2,286376953125E-08;-0,948486328125;2;139;2,63579599559307E-07;-2,80797630548477E-07;100 nA
-1,0009765625;76,9239288057857;-2,410888671875E-08;-0,99884033203125;2;140;2,63579599559307E-07;-2,80797630548477E-07;100 nA
-0,950927734375;77,4244168045221;-2,2186279296875E-08;-0,94879150390625;2;141;2,63579599559307E-07;-2,80797630548477E-07;100 nA
-0,90087890625;77,9249048032585;-2,0721435546875E-08;-0,8990478515625;2;142;2,63579599559307E-07;-2,80797630548477E-07;100 nA
-0,850830078125;78,4253928019949;-1,94366455078125E-08;-0,84869384765625;2;143;2,63579599559307E-07;-2,80797630548477E-07;100 nA
-0,80078125;78,9258808007313;-1,81915283203125E-08;-0,79864501953125;2;144;2,63579599559307E-07;-2,80797630548477E-07;100 nA
-0,750732421875;79,4263687994677;-1,6925048828125E-08;-0,748626708984375;2;145;2,63579599559307E-07;-2,80797630548477E-07;100 nA
-0,70068359375;79,9268567982041;-1,5625E-08;-0,698516845703125;2;146;2,63579599559307E-07;-2,80797630548477E-07;100 nA
-0,650634765625;80,4273447969405;-1,42242431640625E-08;-0,648529052734375;2;147;2,63579599559307E-07;-2,80797630548477E-07;100 nA
-0,6005859375;80,9278327956769;-1,28448486328125E-08;-0,59857177734375;2;148;2,63579599559307E-07;-2,80797630548477E-07;100 nA
-0,550537109375;81,4283207944133;-1,13250732421875E-08;-0,54864501953125;2;149;2,63579599559307E-07;-2,80797630548477E-07;100 nA
-0,50048828125;81,9288087931496;-9,4970703125E-09;-0,49884033203125;2;150;2,63579599559307E-07;-2,80797630548477E-07;100 nA
-0,450439453125;82,429296791886;-7,489013671875E-09;-0,449005126953125;2;151;2,63579599559307E-07;-2,80797630548477E-07;100 nA
-0,400390625;82,9297847906224;-5,6182861328125E-09;-0,3990478515625;2;152;2,63579599559307E-07;-2,80797630548477E-07;100 nA
-0,350341796875;83,4302727893588;-3,79638671875E-09;-0,349090576171875;2;153;2,63579599559307E-07;-2,80797630548477E-07;100 nA
-0,30029296875;83,9307607880952;-2,0172119140625E-09;-0,299224853515625;2;154;2,63579599559307E-07;-2,80797630548477E-07;100 nA
-0,250244140625;84,4312487868316;1,190185546875E-10;-0,249359130859375;2;155;2,63579599559307E-07;-2,80797630548477E-07;100 nA
-0,2001953125;84,931736785568;2,392578125E-09;-0,199432373046875;2;156;2,63579599559307E-07;-2,80797630548477E-07;100 nA
-0,150146484375;85,4322247843044;4,6539306640625E-09;-0,149566650390625;2;157;2,63579599559307E-07;-2,80797630548477E-07;100 nA
-0,10009765625;85,9327127830408;6,9122314453125E-09;-0,09967041015625;2;158;2,63579599559307E-07;-2,80797630548477E-07;100 nA
-0,050048828125;86,4332007817771;9,08203125E-09;-0,0498046875;2;159;2,63579599559307E-07;-2,80797630548477E-07;100 nA
0;86,9336887805135;1,11572265625E-08;0,000146484375000006;2;160;2,63579599559307E-07;-2,80797630548477E-07;100 nA
0,050048828125;87,4341767792499;1,32965087890625E-08;0,050048828125;3;161;2,63416171073914E-07;-2,80484519898892E-07;100 nA
0,10009765625;87,9346647779863;1,53533935546875E-08;0,100067138671875;3;162;2,63416171073914E-07;-2,80484519898892E-07;100 nA
0,150146484375;88,4351527767227;1,47705078125E-08;0,1500244140625;3;163;2,63416171073914E-07;-2,80484519898892E-07;100 nA
0,2001953125;88,9356407754591;1,180419921875E-08;0,199981689453125;3;164;2,63416171073914E-07;-2,80484519898892E-07;100 nA
0,250244140625;89,4361287741955;1,158447265625E-08;0,250030517578125;3;165;2,63416171073914E-07;-2,80484519898892E-07;100 nA
0,30029296875;89,9366167729319;1,1358642578125E-08;0,300048828125;3;166;2,63416171073914E-07;-2,80484519898892E-07;100 nA
0,350341796875;90,4371047716683;1,0772705078125E-08;0,350067138671875;3;167;2,63416171073914E-07;-2,80484519898892E-07;100 nA
0,400390625;90,9375927704046;1,08917236328125E-08;0,4000244140625;3;168;2,63416171073914E-07;-2,80484519898892E-07;100 nA
0,450439453125;91,438080769141;1,14288330078125E-08;0,449981689453125;3;169;2,63416171073914E-07;-2,80484519898892E-07;100 nA
0,50048828125;91,9385687678774;1,21246337890625E-08;0,5;3;170;2,63416171073914E-07;-2,80484519898892E-07;100 nA
0,550537109375;92,4390567666138;1,29730224609375E-08;0,550048828125;3;171;2,63416171073914E-07;-2,80484519898892E-07;100 nA
0,6005859375;92,9395447653502;1,38885498046875E-08;0,600067138671875;3;172;2,63416171073914E-07;-2,80484519898892E-07;100 nA
0,650634765625;93,4400327640866;1,492919921875E-08;0,6500244140625;3;173;2,63416171073914E-07;-2,80484519898892E-07;100 nA
0,70068359375;93,940520762823;1,5972900390625E-08;0,69989013671875;3;174;2,63416171073914E-07;-2,80484519898892E-07;100 nA
0,750732421875;94,4410087615594;1,702880859375E-08;0,749847412109375;3;175;2,63416171073914E-07;-2,80484519898892E-07;100 nA
0,80078125;94,9414967602958;1,80755615234375E-08;0,799560546875;3;176;2,63416171073914E-07;-2,80484519898892E-07;100 nA
0,850830078125;95,4419847590322;1,91741943359375E-08;0,84991455078125;3;177;2,63416171073914E-07;-2,80484519898892E-07;100 nA
0,90087890625;95,9424727577685;2,04132080078125E-08;0,89935302734375;3;178;2,63416171073914E-07;-2,80484519898892E-07;100 nA
0,950927734375;96,4429607565049;2,188720703125E-08;0,95001220703125;3;179;2,63416171073914E-07;-2,80484519898892E-07;100 nA
1,0009765625;96,9434487552413;2,33154296875E-08;1,00006103515625;3;180;2,63416171073914E-07;-2,80484519898892E-07;100 nA
0,950927734375;97,4439367539777;2,115478515625E-08;0,94940185546875;3;181;2,63416171073914E-07;-2,80484519898892E-07;100 nA
0,90087890625;97,9444247527141;1,94915771484375E-08;0,899658203125;3;182;2,63416171073914E-07;-2,80484519898892E-07;100 nA
0,850830078125;98,4449127514505;1,815185546875E-08;0,84930419921875;3;183;2,63416171073914E-07;-2,80484519898892E-07;100 nA
0,80078125;98,9454007501869;1,69281005859375E-08;0,79986572265625;3;184;2,63416171073914E-07;-2,80484519898892E-07;100 nA
0,750732421875;99,4458887489233;1,580810546875E-08;0,74993896484375;3;185;2,63416171073914E-07;-2,80484519898892E-07;100 nA
0,70068359375;99,9463767476597;1,46240234375E-08;0,699951171875;3;186;2,63416171073914E-07;-2,80484519898892E-07;100 nA
0,650634765625;100,446864746396;1,35162353515625E-08;0,6500244140625;3;187;2,63416171073914E-07;-2,80484519898892E-07;100 nA
0,6005859375;100,947352745132;1,23809814453125E-08;0,60015869140625;3;188;2,63416171073914E-07;-2,80484519898892E-07;100 nA
0,550537109375;101,447840743869;1,131591796875E-08;0,55010986328125;3;189;2,63416171073914E-07;-2,80484519898892E-07;100 nA
0,50048828125;101,948328742605;1,02142333984375E-08;0,500152587890625;3;190;2,63416171073914E-07;-2,80484519898892E-07;100 nA
0,450439453125;102,448816741342;9,1400146484375E-09;0,4500732421875;3;191;2,63416171073914E-07;-2,80484519898892E-07;100 nA
0,400390625;102,949304740078;7,9925537109375E-09;0,40008544921875;3;192;2,63416171073914E-07;-2,80484519898892E-07;100 nA
0,350341796875;103,449792738814;6,829833984375E-09;0,35009765625;3;193;2,63416171073914E-07;-2,80484519898892E-07;100 nA
0,30029296875;103,950280737551;5,535888671875E-09;0,300048828125;3;194;2,63416171073914E-07;-2,80484519898892E-07;100 nA
0,250244140625;104,450768736287;4,1229248046875E-09;0,250091552734375;3;195;2,63416171073914E-07;-2,80484519898892E-07;100 nA
0,2001953125;104,951256735024;2,6458740234375E-09;0,2000732421875;3;196;2,63416171073914E-07;-2,80484519898892E-07;100 nA
0,150146484375;105,45174473376;1,0711669921875E-09;0,150054931640625;3;197;2,63416171073914E-07;-2,80484519898892E-07;100 nA
0,10009765625;105,952232732496;-9,94873046875E-10;0,10009765625;3;198;2,63416171073914E-07;-2,80484519898892E-07;100 nA
0,050048828125;106,452720731233;-4,803466796875E-09;0,05010986328125;3;199;2,63416171073914E-07;-2,80484519898892E-07;100 nA
0;106,953208729969;-8,41064453125E-09;0,000125122070312497;3;200;2,63416171073914E-07;-2,80484519898892E-07;100 nA
-0,050048828125;107,453696728705;-9,4024658203125E-09;-0,049774169921875;3;201;2,63416171073914E-07;-2,80484519898892E-07;100 nA
-0,10009765625;107,954184727442;-1,2420654296875E-08;-0,099639892578125;3;202;2,63416171073914E-07;-2,80484519898892E-07;100 nA
-0,150146484375;108,454672726178;-1,6162109375E-08;-0,14959716796875;3;203;2,63416171073914E-07;-2,80484519898892E-07;100 nA
-0,2001953125;108,955160724915;-1,854248046875E-08;-0,199432373046875;3;204;2,63416171073914E-07;-2,80484519898892E-07;100 nA
-0,250244140625;109,455648723651;-1,95831298828125E-08;-0,249359130859375;3;205;2,63416171073914E-07;-2,80484519898892E-07;100 nA
-0,30029296875;109,956136722387;-2,00897216796875E-08;-0,299285888671875;3;206;2,63416171073914E-07;-2,80484519898892E-07;100 nA
-0,350341796875;110,456624721124;-1,99310302734375E-08;-0,34912109375;3;207;2,63416171073914E-07;-2,80484519898892E-07;100 nA
-0,400390625;110,95711271986;-1,8804931640625E-08;-0,39910888671875;3;208;2,63416171073914E-07;-2,80484519898892E-07;100 nA
-0,450439453125;111,457600718597;-1,7486572265625E-08;-0,448974609375;3;209;2,63416171073914E-07;-2,80484519898892E-07;100 nA
-0,50048828125;111,958088717333;-1,73431396484375E-08;-0,49884033203125;3;210;2,63416171073914E-07;-2,80484519898892E-07;100 nA
-0,550537109375;112,458576716069;-1,76025390625E-08;-0,548675537109375;3;211;2,63416171073914E-07;-2,80484519898892E-07;100 nA
-0,6005859375;112,959064714806;-1,7633056640625E-08;-0,5986328125;3;212;2,63416171073914E-07;-2,80484519898892E-07;100 nA
-0,650634765625;113,459552713542;-1,7572021484375E-08;-0,6485595703125;3;213;2,63416171073914E-07;-2,80484519898892E-07;100 nA
-0,70068359375;113,960040712279;-1,7816162109375E-08;-0,6986083984375;3;214;2,63416171073914E-07;-2,80484519898892E-07;100 nA
-0,750732421875;114,460528711015;-1,84326171875E-08;-0,748565673828125;3;215;2,63416171073914E-07;-2,80484519898892E-07;100 nA
-0,80078125;114,961016709751;-1,9317626953125E-08;-0,79925537109375;3;216;2,63416171073914E-07;-2,80484519898892E-07;100 nA
-0,850830078125;115,461504708488;-2,034912109375E-08;-0,848388671875;3;217;2,63416171073914E-07;-2,80484519898892E-07;100 nA
-0,90087890625;115,961992707224;-2,144775390625E-08;-0,89874267578125;3;218;2,63416171073914E-07;-2,80484519898892E-07;100 nA
-0,950927734375;116,462480705961;-2,27020263671875E-08;-0,9490966796875;3;219;2,63416171073914E-07;-2,80484519898892E-07;100 nA
-1,0009765625;116,962968704697;-2,3956298828125E-08;-0,99884033203125;3;220;2,63416171073914E-07;-2,80484519898892E-07;100 nA
-0,950927734375;117,463456703433;-2,2125244140625E-08;-0,94879150390625;3;221;2,63416171073914E-07;-2,80484519898892E-07;100 nA
-0,90087890625;117,96394470217;-2,06451416015625E-08;-0,8990478515625;3;222;2,63416171073914E-07;-2,80484519898892E-07;100 nA
-0,850830078125;118,464432700906;-1,92901611328125E-08;-0,84930419921875;3;223;2,63416171073914E-07;-2,80484519898892E-07;100 nA
-0,80078125;118,964920699642;-1,81365966796875E-08;-0,79833984375;3;224;2,63416171073914E-07;-2,80484519898892E-07;100 nA
-0,750732421875;119,465408698379;-1,68701171875E-08;-0,748565673828125;3;225;2,63416171073914E-07;-2,80484519898892E-07;100 nA
-0,70068359375;119,965896697115;-1,55914306640625E-08;-0,698516845703125;3;226;2,63416171073914E-07;-2,80484519898892E-07;100 nA
-0,650634765625;120,466384695852;-1,42364501953125E-08;-0,6485595703125;3;227;2,63416171073914E-07;-2,80484519898892E-07;100 nA
-0,6005859375;120,966872694588;-1,28814697265625E-08;-0,598663330078125;3;228;2,63416171073914E-07;-2,80484519898892E-07;100 nA
-0,550537109375;121,467360693324;-1,13555908203125E-08;-0,548675537109375;3;229;2,63416171073914E-07;-2,80484519898892E-07;100 nA
-0,50048828125;121,967848692061;-9,5428466796875E-09;-0,498779296875;3;230;2,63416171073914E-07;-2,80484519898892E-07;100 nA
-0,450439453125;122,468336690797;-7,5408935546875E-09;-0,448944091796875;3;231;2,63416171073914E-07;-2,80484519898892E-07;100 nA
-0,400390625;122,968824689534;-5,657958984375E-09;-0,399078369140625;3;232;2,63416171073914E-07;-2,80484519898892E-07;100 nA
-0,350341796875;123,46931268827;-3,8177490234375E-09;-0,349212646484375;3;233;2,63416171073914E-07;-2,80484519898892E-07;100 nA
-0,30029296875;123,969800687006;-1,9256591796875E-09;-0,299224853515625;3;234;2,63416171073914E-07;-2,80484519898892E-07;100 nA
-0,250244140625;124,470288685743;1,617431640625E-10;-0,249298095703125;3;235;2,63416171073914E-07;-2,80484519898892E-07;100 nA
-0,2001953125;124,970776684479;2,362060546875E-09;-0,199462890625;3;236;2,63416171073914E-07;-2,80484519898892E-07;100 nA
-0,150146484375;125,471264683216;4,6539306640625E-09;-0,1495361328125;3;237;2,63416171073914E-07;-2,80484519898892E-07;100 nA
-0,10009765625;125,971752681952;6,8878173828125E-09;-0,09967041015625;3;238;2,63416171073914E-07;-2,80484519898892E-07;100 nA
-0,050048828125;126,472240680688;9,09423828125E-09;-0,04974365234375;3;239;2,63416171073914E-07;-2,80484519898892E-07;100 nA
0;126,972728679425;1,11907958984375E-08;0,000119018554687503;3;240;2,63416171073914E-07;-2,80484519898892E-07;100 nA
0,050048828125;127,473216678161;1,3348388671875E-08;0,050079345703125;4;241;2,62417271733284E-07;-2,79551297426224E-07;100 nA
0,10009765625;127,973704676897;1,53900146484375E-08;0,10003662109375;4;242;2,62417271733284E-07;-2,79551297426224E-07;100 nA
0,150146484375;128,474192675634;1,4825439453125E-08;0,150054931640625;4;243;2,62417271733284E-07;-2,79551297426224E-07;100 nA
0,2001953125;128,97468067437;1,1846923828125E-08;0,2000732421875;4;244;2,62417271733284E-07;-2,79551297426224E-07;100 nA
0,250244140625;129,475168673107;1,16729736328125E-08;0,25006103515625;4;245;2,62417271733284E-07;-2,79551297426224E-07;100 nA
0,30029296875;129,975656671843;1,13739013671875E-08;0,300048828125;4;246;2,62417271733284E-07;-2,79551297426224E-07;100 nA
0,350341796875;130,476144670579;1,083984375E-08;0,35009765625;4;247;2,62417271733284E-07;-2,79551297426224E-07;100 nA
0,400390625;130,976632669316;1,09649658203125E-08;0,40008544921875;4;248;2,62417271733284E-07;-2,79551297426224E-07;100 nA
0,450439453125;131,477120668052;1,1419677734375E-08;0,450042724609375;4;249;2,62417271733284E-07;-2,79551297426224E-07;100 nA
0,50048828125;131,977608666789;1,214599609375E-08;0,5001220703125;4;250;2,62417271733284E-07;-2,79551297426224E-07;100 nA
0,550537109375;132,478096665525;1,298828125E-08;0,550140380859375;4;251;2,62417271733284E-07;-2,79551297426224E-07;100 nA
0,6005859375;132,978584664261;1,39373779296875E-08;0,60003662109375;4;252;2,62417271733284E-07;-2,79551297426224E-07;100 nA
0,650634765625;133,479072662998;1,49169921875E-08;0,6500244140625;4;253;2,62417271733284E-07;-2,79551297426224E-07;100 nA
0,70068359375;133,979560661734;1,59210205078125E-08;0,69989013671875;4;254;2,62417271733284E-07;-2,79551297426224E-07;100 nA
0,750732421875;134,480048660471;1,6943359375E-08;0,74981689453125;4;255;2,62417271733284E-07;-2,79551297426224E-07;100 nA
0,80078125;134,980536659207;1,7987060546875E-08;0,79986572265625;4;256;2,62417271733284E-07;-2,79551297426224E-07;100 nA
0,850830078125;135,481024657943;1,9085693359375E-08;0,84930419921875;4;257;2,62417271733284E-07;-2,79551297426224E-07;100 nA
0,90087890625;135,98151265668;2,02667236328125E-08;0,89935302734375;4;258;2,62417271733284E-07;-2,79551297426224E-07;100 nA
0,950927734375;136,482000655416;2,1710205078125E-08;0,94970703125;4;259;2,62417271733284E-07;-2,79551297426224E-07;100 nA
1,0009765625;136,982488654152;2,3162841796875E-08;1,00006103515625;4;260;2,62417271733284E-07;-2,79551297426224E-07;100 nA
0,950927734375;137,482976652889;2,0953369140625E-08;0,9503173828125;4;261;2,62417271733284E-07;-2,79551297426224E-07;100 nA
0,90087890625;137,983464651625;1,93328857421875E-08;0,899658203125;4;262;2,62417271733284E-07;-2,79551297426224E-07;100 nA
0,850830078125;138,483952650362;1,79901123046875E-08;0,84991455078125;4;263;2,62417271733284E-07;-2,79551297426224E-07;100 nA
0,80078125;138,984440649098;1,6778564453125E-08;0,79986572265625;4;264;2,62417271733284E-07;-2,79551297426224E-07;100 nA
0,750732421875;139,484928647834;1,556396484375E-08;0,74981689453125;4;265;2,62417271733284E-07;-2,79551297426224E-07;100 nA
0,70068359375;139,985416646571;1,451416015625E-08;0,69989013671875;4;266;2,62417271733284E-07;-2,79551297426224E-07;100 nA
0,650634765625;140,485904645307;1,3427734375E-08;0,6500244140625;4;267;2,62417271733284E-07;-2,79551297426224E-07;100 nA
0,6005859375;140,986392644044;1,22802734375E-08;0,600067138671875;4;268;2,62417271733284E-07;-2,79551297426224E-07;100 nA
0,550537109375;141,48688064278;1,123046875E-08;0,550048828125;4;269;2,62417271733284E-07;-2,79551297426224E-07;100 nA
0,50048828125;141,987368641516;1,01837158203125E-08;0,500030517578125;4;270;2,62417271733284E-07;-2,79551297426224E-07;100 nA
0,450439453125;142,487856640253;9,0911865234375E-09;0,450042724609375;4;271;2,62417271733284E-07;-2,79551297426224E-07;100 nA
0,400390625;142,988344638989;7,9681396484375E-09;0,4000244140625;4;272;2,62417271733284E-07;-2,79551297426224E-07;100 nA
0,350341796875;143,488832637726;6,8115234375E-09;0,35009765625;4;273;2,62417271733284E-07;-2,79551297426224E-07;100 nA
0,30029296875;143,989320636462;5,5572509765625E-09;0,300018310546875;4;274;2,62417271733284E-07;-2,79551297426224E-07;100 nA
0,250244140625;144,489808635198;4,1900634765625E-09;0,250030517578125;4;275;2,62417271733284E-07;-2,79551297426224E-07;100 nA
0,2001953125;144,990296633935;2,716064453125E-09;0,200042724609375;4;276;2,62417271733284E-07;-2,79551297426224E-07;100 nA
0,150146484375;145,490784632671;1,177978515625E-09;0,1500244140625;4;277;2,62417271733284E-07;-2,79551297426224E-07;100 nA
0,10009765625;145,991272631407;-8,209228515625E-10;0,10009765625;4;278;2,62417271733284E-07;-2,79551297426224E-07;100 nA
0,050048828125;146,491760630144;-4,6051025390625E-09;0,050140380859375;4;279;2,62417271733284E-07;-2,79551297426224E-07;100 nA
0;146,99224862888;-8,30078125E-09;0,000146484375000006;4;280;2,62417271733284E-07;-2,79551297426224E-07;100 nA
-0,050048828125;147,492736627617;-9,234619140625E-09;-0,049713134765625;4;281;2,62417271733284E-07;-2,79551297426224E-07;100 nA
-0,10009765625;147,993224626353;-1,22406005859375E-08;-0,099609375;4;282;2,62417271733284E-07;-2,79551297426224E-07;100 nA
-0,150146484375;148,493712625089;-1,60186767578125E-08;-0,1495361328125;4;283;2,62417271733284E-07;-2,79551297426224E-07;100 nA
-0,2001953125;148,994200623826;-1,84173583984375E-08;-0,199371337890625;4;284;2,62417271733284E-07;-2,79551297426224E-07;100 nA
-0,250244140625;149,494688622562;-1,94488525390625E-08;-0,249298095703125;4;285;2,62417271733284E-07;-2,79551297426224E-07;100 nA
-0,30029296875;149,995176621299;-1,98638916015625E-08;-0,299163818359375;4;286;2,62417271733284E-07;-2,79551297426224E-07;100 nA
-0,350341796875;150,495664620035;-1,973876953125E-08;-0,349090576171875;4;287;2,62417271733284E-07;-2,79551297426224E-07;100 nA
-0,400390625;150,996152618771;-1,86431884765625E-08;-0,399017333984375;4;288;2,62417271733284E-07;-2,79551297426224E-07;100 nA
-0,450439453125;151,496640617508;-1,729736328125E-08;-0,449005126953125;4;289;2,62417271733284E-07;-2,79551297426224E-07;100 nA
-0,50048828125;151,997128616244;-1,71875E-08;-0,498809814453125;4;290;2,62417271733284E-07;-2,79551297426224E-07;100 nA
-0,550537109375;152,497616614981;-1,73919677734375E-08;-0,548736572265625;4;291;2,62417271733284E-07;-2,79551297426224E-07;100 nA
-0,6005859375;152,998104613717;-1,739501953125E-08;-0,598663330078125;4;292;2,62417271733284E-07;-2,79551297426224E-07;100 nA
-0,650634765625;153,498592612453;-1,73248291015625E-08;-0,648529052734375;4;293;2,62417271733284E-07;-2,79551297426224E-07;100 nA
-0,70068359375;153,99908061119;-1,76116943359375E-08;-0,698516845703125;4;294;2,62417271733284E-07;-2,79551297426224E-07;100 nA
-0,750732421875;154,499568609926;-1,8359375E-08;-0,748504638671875;4;295;2,62417271733284E-07;-2,79551297426224E-07;100 nA
-0,80078125;155,000056608662;-1,9268798828125E-08;-0,79864501953125;4;296;2,62417271733284E-07;-2,79551297426224E-07;100 nA
-0,850830078125;155,500544607399;-2,03155517578125E-08;-0,848388671875;4;297;2,62417271733284E-07;-2,79551297426224E-07;100 nA
-0,90087890625;156,001032606135;-2,14141845703125E-08;-0,89935302734375;4;298;2,62417271733284E-07;-2,79551297426224E-07;100 nA
-0,950927734375;156,501520604872;-2,2625732421875E-08;-0,9490966796875;4;299;2,62417271733284E-07;-2,79551297426224E-07;100 nA
-1,0009765625;157,002008603608;-2,3834228515625E-08;-0,99853515625;4;300;2,62417271733284E-07;-2,79551297426224E-07;100 nA
-0,950927734375;157,502496602344;-2,2100830078125E-08;-0,9490966796875;4;301;2,62417271733284E-07;-2,79551297426224E-07;100 nA
-0,90087890625;158,002984601081;-2,0684814453125E-08;-0,8984375;4;302;2,62417271733284E-07;-2,79551297426224E-07;100 nA
-0,850830078125;158,503472599817;-1,93939208984375E-08;-0,84869384765625;4;303;2,62417271733284E-07;-2,79551297426224E-07;100 nA
-0,80078125;159,003960598554;-1,8170166015625E-08;-0,7989501953125;4;304;2,62417271733284E-07;-2,79551297426224E-07;100 nA
-0,750732421875;159,50444859729;-1,69647216796875E-08;-0,74853515625;4;305;2,62417271733284E-07;-2,79551297426224E-07;100 nA
-0,70068359375;160,004936596026;-1,571044921875E-08;-0,698577880859375;4;306;2,62417271733284E-07;-2,79551297426224E-07;100 nA
-0,650634765625;160,505424594763;-1,4349365234375E-08;-0,648590087890625;4;307;2,62417271733284E-07;-2,79551297426224E-07;100 nA
-0,6005859375;161,005912593499;-1,2957763671875E-08;-0,598663330078125;4;308;2,62417271733284E-07;-2,79551297426224E-07;100 nA
-0,550537109375;161,506400592236;-1,1517333984375E-08;-0,548736572265625;4;309;2,62417271733284E-07;-2,79551297426224E-07;100 nA
-0,50048828125;162,006888590972;-9,649658203125E-09;-0,498809814453125;4;310;2,62417271733284E-07;-2,79551297426224E-07;100 nA
-0,450439453125;162,507376589708;-7,6812744140625E-09;-0,448883056640625;4;311;2,62417271733284E-07;-2,79551297426224E-07;100 nA
-0,400390625;163,007864588445;-5,841064453125E-09;-0,399078369140625;4;312;2,62417271733284E-07;-2,79551297426224E-07;100 nA
-0,350341796875;163,508352587181;-4,022216796875E-09;-0,349212646484375;4;313;2,62417271733284E-07;-2,79551297426224E-07;100 nA
-0,30029296875;164,008840585917;-2,142333984375E-09;-0,299224853515625;4;314;2,62417271733284E-07;-2,79551297426224E-07;100 nA
-0,250244140625;164,509328584654;-1,220703125E-11;-0,249359130859375;4;315;2,62417271733284E-07;-2,79551297426224E-07;100 nA
-0,2001953125;165,00981658339;2,2735595703125E-09;-0,199462890625;4;316;2,62417271733284E-07;-2,79551297426224E-07;100 nA
-0,150146484375;165,510304582127;4,5928955078125E-09;-0,14959716796875;4;317;2,62417271733284E-07;-2,79551297426224E-07;100 nA
-0,10009765625;166,010792580863;6,82373046875E-09;-0,0997314453125;4;318;2,62417271733284E-07;-2,79551297426224E-07;100 nA
-0,050048828125;166,511280579599;9,0057373046875E-09;-0,0498046875;4;319;2,62417271733284E-07;-2,79551297426224E-07;100 nA
0;167,011768578336;1,11114501953125E-08;0,000128173828124994;4;320;2,62417271733284E-07;-2,79551297426224E-07;100 nA
0,050048828125;167,512256577072;1,33026123046875E-08;0,050079345703125;5;321;2,61980444192886E-07;-2,79604755342007E-07;100 nA
0,10009765625;168,012744575809;1,53289794921875E-08;0,100067138671875;5;322;2,61980444192886E-07;-2,79604755342007E-07;100 nA
0,150146484375;168,513232574545;1,47369384765625E-08;0,1500244140625;5;323;2,61980444192886E-07;-2,79604755342007E-07;100 nA
0,2001953125;169,013720573281;1,1798095703125E-08;0,200042724609375;5;324;2,61980444192886E-07;-2,79604755342007E-07;100 nA
0,250244140625;169,514208572018;1,158447265625E-08;0,25;5;325;2,61980444192886E-07;-2,79604755342007E-07;100 nA
0,30029296875;170,014696570754;1,1279296875E-08;0,29998779296875;5;326;2,61980444192886E-07;-2,79604755342007E-07;100 nA
0,350341796875;170,515184569491;1,07391357421875E-08;0,350006103515625;5;327;2,61980444192886E-07;-2,79604755342007E-07;100 nA
0,400390625;171,015672568227;1,09283447265625E-08;0,400054931640625;5;328;2,61980444192886E-07;-2,79604755342007E-07;100 nA
0,450439453125;171,516160566963;1,14227294921875E-08;0,4500732421875;5;329;2,61980444192886E-07;-2,79604755342007E-07;100 nA
0,50048828125;172,0166485657;1,2115478515625E-08;0,500030517578125;5;330;2,61980444192886E-07;-2,79604755342007E-07;100 nA
0,550537109375;172,517136564436;1,29302978515625E-08;0,55010986328125;5;331;2,61980444192886E-07;-2,79604755342007E-07;100 nA
0,6005859375;173,017624563172;1,38763427734375E-08;0,600067138671875;5;332;2,61980444192886E-07;-2,79604755342007E-07;100 nA
0,650634765625;173,518112561909;1,48590087890625E-08;0,650054931640625;5;333;2,61980444192886E-07;-2,79604755342007E-07;100 nA
0,70068359375;174,018600560645;1,58477783203125E-08;0,699951171875;5;334;2,61980444192886E-07;-2,79604755342007E-07;100 nA
0,750732421875;174,519088559382;1,68731689453125E-08;0,749786376953125;5;335;2,61980444192886E-07;-2,79604755342007E-07;100 nA
0,80078125;175,019576558118;1,7889404296875E-08;0,8001708984375;5;336;2,61980444192886E-07;-2,79604755342007E-07;100 nA
0,850830078125;175,520064556854;1,89727783203125E-08;0,84991455078125;5;337;2,61980444192886E-07;-2,79604755342007E-07;100 nA
0,90087890625;176,020552555591;2,02484130859375E-08;0,89996337890625;5;338;2,61980444192886E-07;-2,79604755342007E-07;100 nA
0,950927734375;176,521040554327;2,16888427734375E-08;0,94970703125;5;339;2,61980444192886E-07;-2,79604755342007E-07;100 nA
1,0009765625;177,021528553064;2,313232421875E-08;0,9991455078125;5;340;2,61980444192886E-07;-2,79604755342007E-07;100 nA
0,950927734375;177,5220165518;2,09716796875E-08;0,94970703125;5;341;2,61980444192886E-07;-2,79604755342007E-07;100 nA
0,90087890625;178,022504550536;1,93695068359375E-08;0,89996337890625;5;342;2,61980444192886E-07;-2,79604755342007E-07;100 nA
0,850830078125;178,522992549273;1,80145263671875E-08;0,84991455078125;5;343;2,61980444192886E-07;-2,79604755342007E-07;100 nA
0,80078125;179,023480548009;1,67999267578125E-08;0,79925537109375;5;344;2,61980444192886E-07;-2,79604755342007E-07;100 nA
0,750732421875;179,523968546746;1,558837890625E-08;0,74981689453125;5;345;2,61980444192886E-07;-2,79604755342007E-07;100 nA
0,70068359375;180,024456545482;1,45172119140625E-08;0,699859619140625;5;346;2,61980444192886E-07;-2,79604755342007E-07;100 nA
0,650634765625;180,524944544218;1,34368896484375E-08;0,6500244140625;5;347;2,61980444192886E-07;-2,79604755342007E-07;100 nA
0,6005859375;181,025432542955;1,2371826171875E-08;0,600128173828125;5;348;2,61980444192886E-07;-2,79604755342007E-07;100 nA
0,550537109375;181,525920541691;1,12701416015625E-08;0,550048828125;5;349;2,61980444192886E-07;-2,79604755342007E-07;100 nA
0,50048828125;182,026408540428;1,01959228515625E-08;0,500091552734375;5;350;2,61980444192886E-07;-2,79604755342007E-07;100 nA
0,450439453125;182,526896539164;9,136962890625E-09;0,45013427734375;5;351;2,61980444192886E-07;-2,79604755342007E-07;100 nA
0,400390625;183,0273845379;7,989501953125E-09;0,400115966796875;5;352;2,61980444192886E-07;-2,79604755342007E-07;100 nA
0,350341796875;183,527872536637;6,8267822265625E-09;0,350189208984375;5;353;2,61980444192886E-07;-2,79604755342007E-07;100 nA
0,30029296875;184,028360535373;5,6060791015625E-09;0,300079345703125;5;354;2,61980444192886E-07;-2,79604755342007E-07;100 nA
0,250244140625;184,528848534109;4,2144775390625E-09;0,250091552734375;5;355;2,61980444192886E-07;-2,79604755342007E-07;100 nA
0,2001953125;185,029336532846;2,7618408203125E-09;0,2000732421875;5;356;2,61980444192886E-07;-2,79604755342007E-07;100 nA
0,150146484375;185,529824531582;1,2725830078125E-09;0,15008544921875;5;357;2,61980444192886E-07;-2,79604755342007E-07;100 nA
0,10009765625;186,030312530319;-8,148193359375E-10;0,100128173828125;5;358;2,61980444192886E-07;-2,79604755342007E-07;100 nA
0,050048828125;186,530800529055;-4,55322265625E-09;0,050140380859375;5;359;2,61980444192886E-07;-2,79604755342007E-07;100 nA
0;187,031288527791;-8,26416015625E-09;0,000125122070312497;5;360;2,61980444192886E-07;-2,79604755342007E-07;100 nA
-0,050048828125;187,531776526528;-9,2315673828125E-09;-0,049713134765625;5;361;2,61980444192886E-07;-2,79604755342007E-07;100 nA
-0,10009765625;188,032264525264;-1,22650146484375E-08;-0,099639892578125;5;362;2,61980444192886E-07;-2,79604755342007E-07;100 nA
-0,150146484375;188,532752524001;-1,59759521484375E-08;-0,149566650390625;5;363;2,61980444192886E-07;-2,79604755342007E-07;100 nA
-0,2001953125;189,033240522737;-1,8450927734375E-08;-0,199371337890625;5;364;2,61980444192886E-07;-2,79604755342007E-07;100 nA
-0,250244140625;189,533728521473;-1,94061279296875E-08;-0,24932861328125;5;365;2,61980444192886E-07;-2,79604755342007E-07;100 nA
-0,30029296875;190,03421652021;-1,9903564453125E-08;-0,299224853515625;5;366;2,61980444192886E-07;-2,79604755342007E-07;100 nA
-0,350341796875;190,534704518946;-1,97174072265625E-08;-0,34912109375;5;367;2,61980444192886E-07;-2,79604755342007E-07;100 nA
-0,400390625;191,035192517683;-1,85546875E-08;-0,399017333984375;5;368;2,61980444192886E-07;-2,79604755342007E-07;100 nA
-0,450439453125;191,535680516419;-1,72760009765625E-08;-0,448883056640625;5;369;2,61980444192886E-07;-2,79604755342007E-07;100 nA
-0,50048828125;192,036168515155;-1,7156982421875E-08;-0,498809814453125;5;370;2,61980444192886E-07;-2,79604755342007E-07;100 nA
-0,550537109375;192,536656513892;-1,732177734375E-08;-0,548736572265625;5;371;2,61980444192886E-07;-2,79604755342007E-07;100 nA
-0,6005859375;193,037144512628;-1,73828125E-08;-0,598541259765625;5;372;2,61980444192886E-07;-2,79604755342007E-07;100 nA
-0,650634765625;193,537632511364;-1,73858642578125E-08;-0,648529052734375;5;373;2,61980444192886E-07;-2,79604755342007E-07;100 nA
-0,70068359375;194,038120510101;-1,76361083984375E-08;-0,698516845703125;5;374;2,61980444192886E-07;-2,79604755342007E-07;100 nA
-0,750732421875;194,538608508837;-1,8328857421875E-08;-0,74853515625;5;375;2,61980444192886E-07;-2,79604755342007E-07;100 nA
-0,80078125;195,039096507574;-1,922607421875E-08;-0,79833984375;5;376;2,61980444192886E-07;-2,79604755342007E-07;100 nA
-0,850830078125;195,53958450631;-2,0245361328125E-08;-0,84869384765625;5;377;2,61980444192886E-07;-2,79604755342007E-07;100 nA
-0,90087890625;196,040072505046;-2,142333984375E-08;-0,89874267578125;5;378;2,61980444192886E-07;-2,79604755342007E-07;100 nA
-0,950927734375;196,540560503783;-2,2607421875E-08;-0,9490966796875;5;379;2,61980444192886E-07;-2,79604755342007E-07;100 nA
-1,0009765625;197,041048502519;-2,3834228515625E-08;-0,99884033203125;5;380;2,61980444192886E-07;-2,79604755342007E-07;100 nA
-0,950927734375;197,541536501256;-2,2100830078125E-08;-0,9490966796875;5;381;2,61980444192886E-07;-2,79604755342007E-07;100 nA
-0,90087890625;198,042024499992;-2,06756591796875E-08;-0,89813232421875;5;382;2,61980444192886E-07;-2,79604755342007E-07;100 nA
-0,850830078125;198,542512498728;-1,942138671875E-08;-0,84869384765625;5;383;2,61980444192886E-07;-2,79604755342007E-07;100 nA
-0,80078125;199,043000497465;-1,82037353515625E-08;-0,79925537109375;5;384;2,61980444192886E-07;-2,79604755342007E-07;100 nA
-0,750732421875;199,543488496201;-1,69952392578125E-08;-0,74853515625;5;385;2,61980444192886E-07;-2,79604755342007E-07;100 nA
-0,70068359375;200,043976494938;-1,5728759765625E-08;-0,69854736328125;5;386;2,61980444192886E-07;-2,79604755342007E-07;100 nA
-0,650634765625;200,544464493674;-1,4361572265625E-08;-0,648590087890625;5;387;2,61980444192886E-07;-2,79604755342007E-07;100 nA
-0,6005859375;201,04495249241;-1,302490234375E-08;-0,598663330078125;5;388;2,61980444192886E-07;-2,79604755342007E-07;100 nA
-0,550537109375;201,545440491147;-1,1553955078125E-08;-0,548797607421875;5;389;2,61980444192886E-07;-2,79604755342007E-07;100 nA
-0,50048828125;202,045928489883;-9,771728515625E-09;-0,49884033203125;5;390;2,61980444192886E-07;-2,79604755342007E-07;100 nA
-0,450439453125;202,546416488619;-7,7789306640625E-09;-0,448944091796875;5;391;2,61980444192886E-07;-2,79604755342007E-07;100 nA
-0,400390625;203,046904487356;-5,8746337890625E-09;-0,3990478515625;5;392;2,61980444192886E-07;-2,79604755342007E-07;100 nA
-0,350341796875;203,547392486092;-4,04052734375E-09;-0,34918212890625;5;393;2,61980444192886E-07;-2,79604755342007E-07;100 nA
-0,30029296875;204,047880484829;-2,13623046875E-09;-0,29925537109375;5;394;2,61980444192886E-07;-2,79604755342007E-07;100 nA
-0,250244140625;204,548368483565;-3,35693359375E-11;-0,2493896484375;5;395;2,61980444192886E-07;-2,79604755342007E-07;100 nA
-0,2001953125;205,048856482301;2,1728515625E-09;-0,199493408203125;5;396;2,61980444192886E-07;-2,79604755342007E-07;100 nA
-0,150146484375;205,549344481038;4,5379638671875E-09;-0,149627685546875;5;397;2,61980444192886E-07;-2,79604755342007E-07;100 nA
-0,10009765625;206,049832479774;6,8206787109375E-09;-0,099700927734375;5;398;2,61980444192886E-07;-2,79604755342007E-07;100 nA
-0,050048828125;206,550320478511;8,9630126953125E-09;-0,049774169921875;5;399;2,61980444192886E-07;-2,79604755342007E-07;100 nA
0;207,050808477247;1,10565185546875E-08;0,000134277343750003;5;400;2,61980444192886E-07;-2,79604755342007E-07;100 nA
0,050048828125;207,551296475983;1,31988525390625E-08;0,050079345703125;6;401;2,62961015105247E-07;-2,80050747096539E-07;100 nA
0,10009765625;208,05178447472;1,52191162109375E-08;0,10003662109375;6;402;2,62961015105247E-07;-2,80050747096539E-07;100 nA
0,150146484375;208,552272473456;1,46728515625E-08;0,150054931640625;6;403;2,62961015105247E-07;-2,80050747096539E-07;100 nA
0,2001953125;209,052760472193;1,16851806640625E-08;0,20001220703125;6;404;2,62961015105247E-07;-2,80050747096539E-07;100 nA
0,250244140625;209,553248470929;1,15814208984375E-08;0,25006103515625;6;405;2,62961015105247E-07;-2,80050747096539E-07;100 nA
0,30029296875;210,053736469665;1,12548828125E-08;0,300079345703125;6;406;2,62961015105247E-07;-2,80050747096539E-07;100 nA
0,350341796875;210,554224468402;1,0748291015625E-08;0,350067138671875;6;407;2,62961015105247E-07;-2,80050747096539E-07;100 nA
0,400390625;211,054712467138;1,0943603515625E-08;0,40008544921875;6;408;2,62961015105247E-07;-2,80050747096539E-07;100 nA
0,450439453125;211,555200465874;1,14349365234375E-08;0,4500732421875;6;409;2,62961015105247E-07;-2,80050747096539E-07;100 nA
0,50048828125;212,055688464611;1,21551513671875E-08;0,50006103515625;6;410;2,62961015105247E-07;-2,80050747096539E-07;100 nA
0,550537109375;212,556176463347;1,30035400390625E-08;0,55010986328125;6;411;2,62961015105247E-07;-2,80050747096539E-07;100 nA
0,6005859375;213,056664462084;1,39617919921875E-08;0,60003662109375;6;412;2,62961015105247E-07;-2,80050747096539E-07;100 nA
0,650634765625;213,55715246082;1,5008544921875E-08;0,650115966796875;6;413;2,62961015105247E-07;-2,80050747096539E-07;100 nA
0,70068359375;214,057640459556;1,60308837890625E-08;0,699920654296875;6;414;2,62961015105247E-07;-2,80050747096539E-07;100 nA
0,750732421875;214,558128458293;1,70562744140625E-08;0,749847412109375;6;415;2,62961015105247E-07;-2,80050747096539E-07;100 nA
0,80078125;215,058616457029;1,80877685546875E-08;0,799560546875;6;416;2,62961015105247E-07;-2,80050747096539E-07;100 nA
0,850830078125;215,559104455766;1,9183349609375E-08;0,849609375;6;417;2,62961015105247E-07;-2,80050747096539E-07;100 nA
0,90087890625;216,059592454502;2,04193115234375E-08;0,899658203125;6;418;2,62961015105247E-07;-2,80050747096539E-07;100 nA
0,950927734375;216,560080453238;2,18292236328125E-08;0,94970703125;6;419;2,62961015105247E-07;-2,80050747096539E-07;100 nA
1,0009765625;217,060568451975;2,3284912109375E-08;0,999755859375;6;420;2,62961015105247E-07;-2,80050747096539E-07;100 nA
0,950927734375;217,561056450711;2,1142578125E-08;0,94970703125;6;421;2,62961015105247E-07;-2,80050747096539E-07;100 nA
0,90087890625;218,061544449448;1,95556640625E-08;0,89935302734375;6;422;2,62961015105247E-07;-2,80050747096539E-07;100 nA
0,850830078125;218,562032448184;1,820068359375E-08;0,849609375;6;423;2,62961015105247E-07;-2,80050747096539E-07;100 nA
0,80078125;219,06252044692;1,6912841796875E-08;0,79986572265625;6;424;2,62961015105247E-07;-2,80050747096539E-07;100 nA
0,750732421875;219,563008445657;1,571044921875E-08;0,74981689453125;6;425;2,62961015105247E-07;-2,80050747096539E-07;100 nA
0,70068359375;220,063496444393;1,4605712890625E-08;0,699981689453125;6;426;2,62961015105247E-07;-2,80050747096539E-07;100 nA
0,650634765625;220,563984443129;1,35101318359375E-08;0,649993896484375;6;427;2,62961015105247E-07;-2,80050747096539E-07;100 nA
0,6005859375;221,064472441866;1,2408447265625E-08;0,600067138671875;6;428;2,62961015105247E-07;-2,80050747096539E-07;100 nA
0,550537109375;221,564960440602;1,13037109375E-08;0,550140380859375;6;429;2,62961015105247E-07;-2,80050747096539E-07;100 nA
0,50048828125;222,065448439339;1,0223388671875E-08;0,5001220703125;6;430;2,62961015105247E-07;-2,80050747096539E-07;100 nA
0,450439453125;222,565936438075;9,136962890625E-09;0,4500732421875;6;431;2,62961015105247E-07;-2,80050747096539E-07;100 nA
0,400390625;223,066424436811;7,9864501953125E-09;0,400115966796875;6;432;2,62961015105247E-07;-2,80050747096539E-07;100 nA
0,350341796875;223,566912435548;6,829833984375E-09;0,35015869140625;6;433;2,62961015105247E-07;-2,80050747096539E-07;100 nA
0,30029296875;224,067400434284;5,5694580078125E-09;0,300079345703125;6;434;2,62961015105247E-07;-2,80050747096539E-07;100 nA
0,250244140625;224,567888433021;4,150390625E-09;0,25006103515625;6;435;2,62961015105247E-07;-2,80050747096539E-07;100 nA
0,2001953125;225,068376431757;2,6947021484375E-09;0,2000732421875;6;436;2,62961015105247E-07;-2,80050747096539E-07;100 nA
0,150146484375;225,568864430493;1,129150390625E-09;0,150115966796875;6;437;2,62961015105247E-07;-2,80050747096539E-07;100 nA
0,10009765625;226,06935242923;-9,124755859375E-10;0,100067138671875;6;438;2,62961015105247E-07;-2,80050747096539E-07;100 nA
0,050048828125;226,569840427966;-4,632568359375E-09;0,050079345703125;6;439;2,62961015105247E-07;-2,80050747096539E-07;100 nA
0;227,070328426703;-8,441162109375E-09;0,000152587890625;6;440;2,62961015105247E-07;-2,80050747096539E-07;100 nA
-0,050048828125;227,570816425439;-9,3963623046875E-09;-0,0498046875;6;441;2,62961015105247E-07;-2,80050747096539E-07;100 nA
-0,10009765625;228,071304424175;-1,24114990234375E-08;-0,09967041015625;6;442;2,62961015105247E-07;-2,80050747096539E-07;100 nA
-0,150146484375;228,571792422912;-1,62139892578125E-08;-0,14959716796875;6;443;2,62961015105247E-07;-2,80050747096539E-07;100 nA
-0,2001953125;229,072280421648;-1,85943603515625E-08;-0,199432373046875;6;444;2,62961015105247E-07;-2,80050747096539E-07;100 nA
-0,250244140625;229,572768420384;-1,95465087890625E-08;-0,249298095703125;6;445;2,62961015105247E-07;-2,80050747096539E-07;100 nA
-0,30029296875;230,073256419121;-1,9970703125E-08;-0,299285888671875;6;446;2,62961015105247E-07;-2,80050747096539E-07;100 nA
-0,350341796875;230,573744417857;-1,97967529296875E-08;-0,34918212890625;6;447;2,62961015105247E-07;-2,80050747096539E-07;100 nA
-0,400390625;231,074232416594;-1,86553955078125E-08;-0,399017333984375;6;448;2,62961015105247E-07;-2,80050747096539E-07;100 nA
-0,450439453125;231,57472041533;-1,73553466796875E-08;-0,448974609375;6;449;2,62961015105247E-07;-2,80050747096539E-07;100 nA
-0,50048828125;232,075208414066;-1,72210693359375E-08;-0,498809814453125;6;450;2,62961015105247E-07;-2,80050747096539E-07;100 nA
-0,550537109375;232,575696412803;-1,74163818359375E-08;-0,54876708984375;6;451;2,62961015105247E-07;-2,80050747096539E-07;100 nA
-0,6005859375;233,076184411539;-1,74163818359375E-08;-0,5986328125;6;452;2,62961015105247E-07;-2,80050747096539E-07;100 nA
-0,650634765625;233,576672410276;-1,728515625E-08;-0,64849853515625;6;453;2,62961015105247E-07;-2,80050747096539E-07;100 nA
-0,70068359375;234,077160409012;-1,75750732421875E-08;-0,698516845703125;6;454;2,62961015105247E-07;-2,80050747096539E-07;100 nA
-0,750732421875;234,577648407748;-1,82830810546875E-08;-0,748443603515625;6;455;2,62961015105247E-07;-2,80050747096539E-07;100 nA
-0,80078125;235,078136406485;-1,9171142578125E-08;-0,79833984375;6;456;2,62961015105247E-07;-2,80050747096539E-07;100 nA
-0,850830078125;235,578624405221;-2,02667236328125E-08;-0,84869384765625;6;457;2,62961015105247E-07;-2,80050747096539E-07;100 nA
-0,90087890625;236,079112403958;-2,13226318359375E-08;-0,8984375;6;458;2,62961015105247E-07;-2,80050747096539E-07;100 nA
-0,950927734375;236,579600402694;-2,2552490234375E-08;-0,9490966796875;6;459;2,62961015105247E-07;-2,80050747096539E-07;100 nA
-1,0009765625;237,08008840143;-2,3846435546875E-08;-0,99884033203125;6;460;2,62961015105247E-07;-2,80050747096539E-07;100 nA
-0,950927734375;237,580576400167;-2,19757080078125E-08;-0,94970703125;6;461;2,62961015105247E-07;-2,80050747096539E-07;100 nA
-0,90087890625;238,081064398903;-2,0556640625E-08;-0,8990478515625;6;462;2,62961015105247E-07;-2,80050747096539E-07;100 nA
-0,850830078125;238,581552397639;-1,93756103515625E-08;-0,84869384765625;6;463;2,62961015105247E-07;-2,80050747096539E-07;100 nA
-0,80078125;239,082040396376;-1,81549072265625E-08;-0,7989501953125;6;464;2,62961015105247E-07;-2,80050747096539E-07;100 nA
-0,750732421875;239,582528395112;-1,69464111328125E-08;-0,748565673828125;6;465;2,62961015105247E-07;-2,80050747096539E-07;100 nA
-0,70068359375;240,083016393849;-1,568603515625E-08;-0,69854736328125;6;466;2,62961015105247E-07;-2,80050747096539E-07;100 nA
-0,650634765625;240,583504392585;-1,43524169921875E-08;-0,6485595703125;6;467;2,62961015105247E-07;-2,80050747096539E-07;100 nA
-0,6005859375;241,083992391321;-1,297607421875E-08;-0,59857177734375;6;468;2,62961015105247E-07;-2,80050747096539E-07;100 nA
-0,550537109375;241,584480390058;-1,15386962890625E-08;-0,54876708984375;6;469;2,62961015105247E-07;-2,80050747096539E-07;100 nA
-0,50048828125;242,084968388794;-9,7412109375E-09;-0,49884033203125;6;470;2,62961015105247E-07;-2,80050747096539E-07;100 nA
-0,450439453125;242,585456387531;-7,7972412109375E-09;-0,448974609375;6;471;2,62961015105247E-07;-2,80050747096539E-07;100 nA
-0,400390625;243,085944386267;-5,908203125E-09;-0,399078369140625;6;472;2,62961015105247E-07;-2,80050747096539E-07;100 nA
-0,350341796875;243,586432385003;-4,046630859375E-09;-0,3492431640625;6;473;2,62961015105247E-07;-2,80050747096539E-07;100 nA
-0,30029296875;244,08692038374;-2,1575927734375E-09;-0,299224853515625;6;474;2,62961015105247E-07;-2,80050747096539E-07;100 nA
-0,250244140625;244,587408382476;-5,79833984375E-11;-0,249359130859375;6;475;2,62961015105247E-07;-2,80050747096539E-07;100 nA
-0,2001953125;245,087896381213;2,2491455078125E-09;-0,199493408203125;6;476;2,62961015105247E-07;-2,80050747096539E-07;100 nA
-0,150146484375;245,588384379949;4,498291015625E-09;-0,149688720703125;6;477;2,62961015105247E-07;-2,80050747096539E-07;100 nA
-0,10009765625;246,088872378685;6,805419921875E-09;-0,099700927734375;6;478;2,62961015105247E-07;-2,80050747096539E-07;100 nA
-0,050048828125;246,589360377422;8,9599609375E-09;-0,04986572265625;6;479;2,62961015105247E-07;-2,80050747096539E-07;100 nA
0;247,089848376158;1,1065673828125E-08;0,000128173828124994;6;480;2,62961015105247E-07;-2,80050747096539E-07;100 nA
0,050048828125;247,590336374894;1,32293701171875E-08;0,050048828125;7;481;2,63156518340111E-07;-2,797681838274E-07;100 nA
0,10009765625;248,090824373631;1,51885986328125E-08;0,10003662109375;7;482;2,63156518340111E-07;-2,797681838274E-07;100 nA
0,150146484375;248,591312372367;1,463623046875E-08;0,149993896484375;7;483;2,63156518340111E-07;-2,797681838274E-07;100 nA
0,2001953125;249,091800371104;1,1688232421875E-08;0,20001220703125;7;484;2,63156518340111E-07;-2,797681838274E-07;100 nA
0,250244140625;249,59228836984;1,14990234375E-08;0,250030517578125;7;485;2,63156518340111E-07;-2,797681838274E-07;100 nA
0,30029296875;250,092776368576;1,12274169921875E-08;0,300018310546875;7;486;2,63156518340111E-07;-2,797681838274E-07;100 nA
0,350341796875;250,593264367313;1,06842041015625E-08;0,35003662109375;7;487;2,63156518340111E-07;-2,797681838274E-07;100 nA
0,400390625;251,093752366049;1,08917236328125E-08;0,400054931640625;7;488;2,63156518340111E-07;-2,797681838274E-07;100 nA
0,450439453125;251,594240364786;1,141357421875E-08;0,45001220703125;7;489;2,63156518340111E-07;-2,797681838274E-07;100 nA
0,50048828125;252,094728363522;1,21124267578125E-08;0,5;7;490;2,63156518340111E-07;-2,797681838274E-07;100 nA
0,550537109375;252,595216362258;1,29608154296875E-08;0,550079345703125;7;491;2,63156518340111E-07;-2,797681838274E-07;100 nA
0,6005859375;253,095704360995;1,39068603515625E-08;0,600067138671875;7;492;2,63156518340111E-07;-2,797681838274E-07;100 nA
0,650634765625;253,596192359731;1,4910888671875E-08;0,6500244140625;7;493;2,63156518340111E-07;-2,797681838274E-07;100 nA
0,70068359375;254,096680358468;1,59454345703125E-08;0,699951171875;7;494;2,63156518340111E-07;-2,797681838274E-07;100 nA
0,750732421875;254,597168357204;1,70013427734375E-08;0,749847412109375;7;495;2,63156518340111E-07;-2,797681838274E-07;100 nA
0,80078125;255,09765635594;1,806640625E-08;0,799560546875;7;496;2,63156518340111E-07;-2,797681838274E-07;100 nA
0,850830078125;255,598144354677;1,91802978515625E-08;0,84991455078125;7;497;2,63156518340111E-07;-2,797681838274E-07;100 nA
0,90087890625;256,098632353413;2,041015625E-08;0,9002685546875;7;498;2,63156518340111E-07;-2,797681838274E-07;100 nA
0,950927734375;256,59912035215;2,18048095703125E-08;0,94970703125;7;499;2,63156518340111E-07;-2,797681838274E-07;100 nA
1,0009765625;257,099608350886;2,3284912109375E-08;0,999755859375;7;500;2,63156518340111E-07;-2,797681838274E-07;100 nA
0,950927734375;257,600096349622;2,11456298828125E-08;0,94940185546875;7;501;2,63156518340111E-07;-2,797681838274E-07;100 nA
0,90087890625;258,100584348359;1,95220947265625E-08;0,899658203125;7;502;2,63156518340111E-07;-2,797681838274E-07;100 nA
0,850830078125;258,601072347095;1,81365966796875E-08;0,84991455078125;7;503;2,63156518340111E-07;-2,797681838274E-07;100 nA
0,80078125;259,101560345831;1,6925048828125E-08;0,8001708984375;7;504;2,63156518340111E-07;-2,797681838274E-07;100 nA
0,750732421875;259,602048344568;1,57501220703125E-08;0,74981689453125;7;505;2,63156518340111E-07;-2,797681838274E-07;100 nA
0,70068359375;260,102536343304;1,463623046875E-08;0,699920654296875;7;506;2,63156518340111E-07;-2,797681838274E-07;100 nA
0,650634765625;260,603024342041;1,358642578125E-08;0,65008544921875;7;507;2,63156518340111E-07;-2,797681838274E-07;100 nA
0,6005859375;261,103512340777;1,24359130859375E-08;0,60009765625;7;508;2,63156518340111E-07;-2,797681838274E-07;100 nA
0,550537109375;261,604000339513;1,1358642578125E-08;0,55010986328125;7;509;2,63156518340111E-07;-2,797681838274E-07;100 nA
0,50048828125;262,10448833825;1,02752685546875E-08;0,500091552734375;7;510;2,63156518340111E-07;-2,797681838274E-07;100 nA
0,450439453125;262,604976336986;9,21630859375E-09;0,450103759765625;7;511;2,63156518340111E-07;-2,797681838274E-07;100 nA
0,400390625;263,105464335723;8,1390380859375E-09;0,400115966796875;7;512;2,63156518340111E-07;-2,797681838274E-07;100 nA
0,350341796875;263,605952334459;7,000732421875E-09;0,350189208984375;7;513;2,63156518340111E-07;-2,797681838274E-07;100 nA
0,30029296875;264,106440333195;5,682373046875E-09;0,30010986328125;7;514;2,63156518340111E-07;-2,797681838274E-07;100 nA
0,250244140625;264,606928331932;4,2449951171875E-09;0,250030517578125;7;515;2,63156518340111E-07;-2,797681838274E-07;100 nA
0,2001953125;265,107416330668;2,7679443359375E-09;0,20013427734375;7;516;2,63156518340111E-07;-2,797681838274E-07;100 nA
0,150146484375;265,607904329405;1,2237548828125E-09;0,150054931640625;7;517;2,63156518340111E-07;-2,797681838274E-07;100 nA
0,10009765625;266,108392328141;-8,23974609375E-10;0,10009765625;7;518;2,63156518340111E-07;-2,797681838274E-07;100 nA
0,050048828125;266,608880326877;-4,5318603515625E-09;0,050079345703125;7;519;2,63156518340111E-07;-2,797681838274E-07;100 nA
0;267,109368325614;-8,36181640625E-09;0,0001373291015625;7;520;2,63156518340111E-07;-2,797681838274E-07;100 nA
-0,050048828125;267,60985632435;-9,33837890625E-09;-0,0497222900390625;7;521;2,63156518340111E-07;-2,797681838274E-07;100 nA
-0,10009765625;268,110344323086;-1,2322998046875E-08;-0,099700927734375;7;522;2,63156518340111E-07;-2,797681838274E-07;100 nA
-0,150146484375;268,610832321823;-1,607666015625E-08;-0,149566650390625;7;523;2,63156518340111E-07;-2,797681838274E-07;100 nA
-0,2001953125;269,111320320559;-1,85546875E-08;-0,199432373046875;7;524;2,63156518340111E-07;-2,797681838274E-07;100 nA
-0,250244140625;269,611808319296;-1,951904296875E-08;-0,2493896484375;7;525;2,63156518340111E-07;-2,797681838274E-07;100 nA
-0,30029296875;270,112296318032;-1,9964599609375E-08;-0,29931640625;7;526;2,63156518340111E-07;-2,797681838274E-07;100 nA
-0,350341796875;270,612784316768;-1,971435546875E-08;-0,349151611328125;7;527;2,63156518340111E-07;-2,797681838274E-07;100 nA
-0,400390625;271,113272315505;-1,86126708984375E-08;-0,399078369140625;7;528;2,63156518340111E-07;-2,797681838274E-07;100 nA
-0,450439453125;271,613760314241;-1,73797607421875E-08;-0,448944091796875;7;529;2,63156518340111E-07;-2,797681838274E-07;100 nA
-0,50048828125;272,114248312978;-1,72637939453125E-08;-0,49884033203125;7;530;2,63156518340111E-07;-2,797681838274E-07;100 nA
-0,550537109375;272,614736311714;-1,74774169921875E-08;-0,5487060546875;7;531;2,63156518340111E-07;-2,797681838274E-07;100 nA
-0,6005859375;273,11522431045;-1,7510986328125E-08;-0,598663330078125;7;532;2,63156518340111E-07;-2,797681838274E-07;100 nA
-0,650634765625;273,615712309187;-1,74102783203125E-08;-0,6485595703125;7;533;2,63156518340111E-07;-2,797681838274E-07;100 nA
-0,70068359375;274,116200307923;-1,7718505859375E-08;-0,6986083984375;7;534;2,63156518340111E-07;-2,797681838274E-07;100 nA
-0,750732421875;274,61668830666;-1,8359375E-08;-0,74853515625;7;535;2,63156518340111E-07;-2,797681838274E-07;100 nA
-0,80078125;275,117176305396;-1,9305419921875E-08;-0,79833984375;7;536;2,63156518340111E-07;-2,797681838274E-07;100 nA
-0,850830078125;275,617664304132;-2,030029296875E-08;-0,84869384765625;7;537;2,63156518340111E-07;-2,797681838274E-07;100 nA
-0,90087890625;276,118152302869;-2,1392822265625E-08;-0,89874267578125;7;538;2,63156518340111E-07;-2,797681838274E-07;100 nA
-0,950927734375;276,618640301605;-2,25616455078125E-08;-0,948486328125;7;539;2,63156518340111E-07;-2,797681838274E-07;100 nA
-1,0009765625;277,119128300341;-2,374267578125E-08;-0,99884033203125;7;540;2,63156518340111E-07;-2,797681838274E-07;100 nA
-0,950927734375;277,619616299078;-2,20123291015625E-08;-0,948486328125;7;541;2,63156518340111E-07;-2,797681838274E-07;100 nA
-0,90087890625;278,120104297814;-2,05657958984375E-08;-0,8990478515625;7;542;2,63156518340111E-07;-2,797681838274E-07;100 nA
-0,850830078125;278,620592296551;-1,93084716796875E-08;-0,84869384765625;7;543;2,63156518340111E-07;-2,797681838274E-07;100 nA
-0,80078125;279,121080295287;-1,810302734375E-08;-0,79833984375;7;544;2,63156518340111E-07;-2,797681838274E-07;100 nA
-0,750732421875;279,621568294023;-1,690673828125E-08;-0,748504638671875;7;545;2,63156518340111E-07;-2,797681838274E-07;100 nA
-0,70068359375;280,12205629276;-1,56494140625E-08;-0,69854736328125;7;546;2,63156518340111E-07;-2,797681838274E-07;100 nA
-0,650634765625;280,622544291496;-1,43157958984375E-08;-0,64862060546875;7;547;2,63156518340111E-07;-2,797681838274E-07;100 nA
-0,6005859375;281,123032290233;-1,29425048828125E-08;-0,598602294921875;7;548;2,63156518340111E-07;-2,797681838274E-07;100 nA
-0,550537109375;281,623520288969;-1,14471435546875E-08;-0,548736572265625;7;549;2,63156518340111E-07;-2,797681838274E-07;100 nA
-0,50048828125;282,124008287705;-9,70458984375E-09;-0,498809814453125;7;550;2,63156518340111E-07;-2,797681838274E-07;100 nA
-0,450439453125;282,624496286442;-7,7606201171875E-09;-0,448883056640625;7;551;2,63156518340111E-07;-2,797681838274E-07;100 nA
-0,400390625;283,124984285178;-5,8258056640625E-09;-0,399078369140625;7;552;2,63156518340111E-07;-2,797681838274E-07;100 nA
-0,350341796875;283,625472283915;-4,022216796875E-09;-0,349151611328125;7;553;2,63156518340111E-07;-2,797681838274E-07;100 nA
-0,30029296875;284,125960282651;-2,13623046875E-09;-0,2991943359375;7;554;2,63156518340111E-07;-2,797681838274E-07;100 nA
-0,250244140625;284,626448281387;-4,57763671875E-11;-0,249298095703125;7;555;2,63156518340111E-07;-2,797681838274E-07;100 nA
-0,2001953125;285,126936280124;2,2491455078125E-09;-0,199462890625;7;556;2,63156518340111E-07;-2,797681838274E-07;100 nA
-0,150146484375;285,62742427886;4,57763671875E-09;-0,1495361328125;7;557;2,63156518340111E-07;-2,797681838274E-07;100 nA
-0,10009765625;286,127912277596;6,781005859375E-09;-0,099700927734375;7;558;2,63156518340111E-07;-2,797681838274E-07;100 nA
-0,050048828125;286,628400276333;8,9996337890625E-09;-0,0498046875;7;559;2,63156518340111E-07;-2,797681838274E-07;100 nA
0;287,128888275069;1,1102294921875E-08;0,000131225585937506;7;560;2,63156518340111E-07;-2,797681838274E-07;100 nA
0,050048828125;287,629376273806;1,3299560546875E-08;0,050079345703125;8;561;2,62892283499241E-07;-2,79725417494774E-07;100 nA
0,10009765625;288,129864272542;1,527099609375E-08;0,10003662109375;8;562;2,62892283499241E-07;-2,79725417494774E-07;100 nA
0,150146484375;288,630352271278;1,4617919921875E-08;0,150054931640625;8;563;2,62892283499241E-07;-2,79725417494774E-07;100 nA
0,2001953125;289,130840270015;1,16851806640625E-08;0,199981689453125;8;564;2,62892283499241E-07;-2,79725417494774E-07;100 nA
0,250244140625;289,631328268751;1,15325927734375E-08;0,25;8;565;2,62892283499241E-07;-2,79725417494774E-07;100 nA
0,30029296875;290,131816267488;1,11480712890625E-08;0,300018310546875;8;566;2,62892283499241E-07;-2,79725417494774E-07;100 nA
0,350341796875;290,632304266224;1,0662841796875E-08;0,350067138671875;8;567;2,62892283499241E-07;-2,79725417494774E-07;100 nA
0,400390625;291,13279226496;1,08551025390625E-08;0,40008544921875;8;568;2,62892283499241E-07;-2,79725417494774E-07;100 nA
0,450439453125;291,633280263697;1,1346435546875E-08;0,450042724609375;8;569;2,62892283499241E-07;-2,79725417494774E-07;100 nA
0,50048828125;292,133768262433;1,20849609375E-08;0,500030517578125;8;570;2,62892283499241E-07;-2,79725417494774E-07;100 nA
0,550537109375;292,63425626117;1,29241943359375E-08;0,550140380859375;8;571;2,62892283499241E-07;-2,79725417494774E-07;100 nA
0,6005859375;293,134744259906;1,3909912109375E-08;0,60009765625;8;572;2,62892283499241E-07;-2,79725417494774E-07;100 nA
0,650634765625;293,635232258642;1,490478515625E-08;0,649932861328125;8;573;2,62892283499241E-07;-2,79725417494774E-07;100 nA
0,70068359375;294,135720257379;1,59515380859375E-08;0,69989013671875;8;574;2,62892283499241E-07;-2,79725417494774E-07;100 nA
0,750732421875;294,636208256115;1,69952392578125E-08;0,74981689453125;8;575;2,62892283499241E-07;-2,79725417494774E-07;100 nA
0,80078125;295,136696254851;1,80511474609375E-08;0,799560546875;8;576;2,62892283499241E-07;-2,79725417494774E-07;100 nA
0,850830078125;295,637184253588;1,91864013671875E-08;0,84991455078125;8;577;2,62892283499241E-07;-2,79725417494774E-07;100 nA
0,90087890625;296,137672252324;2,03887939453125E-08;0,89996337890625;8;578;2,62892283499241E-07;-2,79725417494774E-07;100 nA
0,950927734375;296,638160251061;2,1826171875E-08;0,94940185546875;8;579;2,62892283499241E-07;-2,79725417494774E-07;100 nA
1,0009765625;297,138648249797;2,3284912109375E-08;0,999755859375;8;580;2,62892283499241E-07;-2,79725417494774E-07;100 nA
0,950927734375;297,639136248533;2,113037109375E-08;0,95001220703125;8;581;2,62892283499241E-07;-2,79725417494774E-07;100 nA
0,90087890625;298,13962424727;1,951904296875E-08;0,89996337890625;8;582;2,62892283499241E-07;-2,79725417494774E-07;100 nA
0,850830078125;298,640112246006;1,8133544921875E-08;0,8502197265625;8;583;2,62892283499241E-07;-2,79725417494774E-07;100 nA
0,80078125;299,140600244743;1,69403076171875E-08;0,79986572265625;8;584;2,62892283499241E-07;-2,79725417494774E-07;100 nA
0,750732421875;299,641088243479;1,5789794921875E-08;0,749847412109375;8;585;2,62892283499241E-07;-2,79725417494774E-07;100 nA
0,70068359375;300,141576242215;1,466064453125E-08;0,699981689453125;8;586;2,62892283499241E-07;-2,79725417494774E-07;100 nA
0,650634765625;300,642064240952;1,36322021484375E-08;0,65008544921875;8;587;2,62892283499241E-07;-2,79725417494774E-07;100 nA
0,6005859375;301,142552239688;1,24664306640625E-08;0,600067138671875;8;588;2,62892283499241E-07;-2,79725417494774E-07;100 nA
0,550537109375;301,643040238425;1,13372802734375E-08;0,55010986328125;8;589;2,62892283499241E-07;-2,79725417494774E-07;100 nA
0,50048828125;302,143528237161;1,02508544921875E-08;0,5001220703125;8;590;2,62892283499241E-07;-2,79725417494774E-07;100 nA
0,450439453125;302,644016235897;9,136962890625E-09;0,450103759765625;8;591;2,62892283499241E-07;-2,79725417494774E-07;100 nA
0,400390625;303,144504234634;8,0108642578125E-09;0,40008544921875;8;592;2,62892283499241E-07;-2,79725417494774E-07;100 nA
0,350341796875;303,64499223337;6,854248046875E-09;0,350128173828125;8;593;2,62892283499241E-07;-2,79725417494774E-07;100 nA
0,30029296875;304,145480232106;5,5877685546875E-09;0,300048828125;8;594;2,62892283499241E-07;-2,79725417494774E-07;100 nA
0,250244140625;304,645968230843;4,2083740234375E-09;0,250030517578125;8;595;2,62892283499241E-07;-2,79725417494774E-07;100 nA
0,2001953125;305,146456229579;2,7313232421875E-09;0,2000732421875;8;596;2,62892283499241E-07;-2,79725417494774E-07;100 nA
0,150146484375;305,646944228316;1,1749267578125E-09;0,15008544921875;8;597;2,62892283499241E-07;-2,79725417494774E-07;100 nA
0,10009765625;306,147432227052;-8,60595703125E-10;0,10009765625;8;598;2,62892283499241E-07;-2,79725417494774E-07;100 nA
0,050048828125;306,647920225788;-4,547119140625E-09;0,050048828125;8;599;2,62892283499241E-07;-2,79725417494774E-07;100 nA
0;307,148408224525;-8,45947265625E-09;0,000119018554687503;8;600;2,62892283499241E-07;-2,79725417494774E-07;100 nA
-0,050048828125;307,648896223261;-9,3963623046875E-09;-0,049774169921875;8;601;2,62892283499241E-07;-2,79725417494774E-07;100 nA
-0,10009765625;308,149384221998;-1,23626708984375E-08;-0,099700927734375;8;602;2,62892283499241E-07;-2,79725417494774E-07;100 nA
-0,150146484375;308,649872220734;-1,6082763671875E-08;-0,1495361328125;8;603;2,62892283499241E-07;-2,79725417494774E-07;100 nA
-0,2001953125;309,15036021947;-1,8560791015625E-08;-0,199371337890625;8;604;2,62892283499241E-07;-2,79725417494774E-07;100 nA
-0,250244140625;309,650848218207;-1,95281982421875E-08;-0,249359130859375;8;605;2,62892283499241E-07;-2,79725417494774E-07;100 nA
-0,30029296875;310,151336216943;-1,9964599609375E-08;-0,299224853515625;8;606;2,62892283499241E-07;-2,79725417494774E-07;100 nA
-0,350341796875;310,65182421568;-1,97296142578125E-08;-0,349151611328125;8;607;2,62892283499241E-07;-2,79725417494774E-07;100 nA
-0,400390625;311,152312214416;-1,86431884765625E-08;-0,399078369140625;8;608;2,62892283499241E-07;-2,79725417494774E-07;100 nA
-0,450439453125;311,652800213152;-1,74041748046875E-08;-0,44891357421875;8;609;2,62892283499241E-07;-2,79725417494774E-07;100 nA
-0,50048828125;312,153288211889;-1,73187255859375E-08;-0,498870849609375;8;610;2,62892283499241E-07;-2,79725417494774E-07;100 nA
-0,550537109375;312,653776210625;-1,74652099609375E-08;-0,5487060546875;8;611;2,62892283499241E-07;-2,79725417494774E-07;100 nA
-0,6005859375;313,154264209361;-1,7431640625E-08;-0,598602294921875;8;612;2,62892283499241E-07;-2,79725417494774E-07;100 nA
-0,650634765625;313,654752208098;-1,73126220703125E-08;-0,648590087890625;8;613;2,62892283499241E-07;-2,79725417494774E-07;100 nA
-0,70068359375;314,155240206834;-1,763916015625E-08;-0,698577880859375;8;614;2,62892283499241E-07;-2,79725417494774E-07;100 nA
-0,750732421875;314,655728205571;-1,83563232421875E-08;-0,748626708984375;8;615;2,62892283499241E-07;-2,79725417494774E-07;100 nA
-0,80078125;315,156216204307;-1,92352294921875E-08;-0,79864501953125;8;616;2,62892283499241E-07;-2,79725417494774E-07;100 nA
-0,850830078125;315,656704203043;-2,027587890625E-08;-0,84869384765625;8;617;2,62892283499241E-07;-2,79725417494774E-07;100 nA
-0,90087890625;316,15719220178;-2,135009765625E-08;-0,89874267578125;8;618;2,62892283499241E-07;-2,79725417494774E-07;100 nA
-0,950927734375;316,657680200516;-2,25372314453125E-08;-0,94879150390625;8;619;2,62892283499241E-07;-2,79725417494774E-07;100 nA
-1,0009765625;317,158168199253;-2,374267578125E-08;-0,9991455078125;8;620;2,62892283499241E-07;-2,79725417494774E-07;100 nA
-0,950927734375;317,658656197989;-2,2039794921875E-08;-0,948486328125;8;621;2,62892283499241E-07;-2,79725417494774E-07;100 nA
-0,90087890625;318,159144196725;-2,054443359375E-08;-0,89874267578125;8;622;2,62892283499241E-07;-2,79725417494774E-07;100 nA
-0,850830078125;318,659632195462;-1,932373046875E-08;-0,848388671875;8;623;2,62892283499241E-07;-2,79725417494774E-07;100 nA
-0,80078125;319,160120194198;-1,81182861328125E-08;-0,79803466796875;8;624;2,62892283499241E-07;-2,79725417494774E-07;100 nA
-0,750732421875;319,660608192935;-1,69158935546875E-08;-0,748504638671875;8;625;2,62892283499241E-07;-2,79725417494774E-07;100 nA
-0,70068359375;320,161096191671;-1,56097412109375E-08;-0,698516845703125;8;626;2,62892283499241E-07;-2,79725417494774E-07;100 nA
-0,650634765625;320,661584190407;-1,42913818359375E-08;-0,648529052734375;8;627;2,62892283499241E-07;-2,79725417494774E-07;100 nA
-0,6005859375;321,162072189144;-1,2982177734375E-08;-0,598663330078125;8;628;2,62892283499241E-07;-2,79725417494774E-07;100 nA
-0,550537109375;321,66256018788;-1,15203857421875E-08;-0,548736572265625;8;629;2,62892283499241E-07;-2,79725417494774E-07;100 nA
-0,50048828125;322,163048186616;-9,7198486328125E-09;-0,498809814453125;8;630;2,62892283499241E-07;-2,79725417494774E-07;100 nA
-0,450439453125;322,663536185353;-7,672119140625E-09;-0,44891357421875;8;631;2,62892283499241E-07;-2,79725417494774E-07;100 nA
-0,400390625;323,164024184089;-5,79833984375E-09;-0,398956298828125;8;632;2,62892283499241E-07;-2,79725417494774E-07;100 nA
-0,350341796875;323,664512182826;-4,01611328125E-09;-0,349151611328125;8;633;2,62892283499241E-07;-2,79725417494774E-07;100 nA
-0,30029296875;324,165000181562;-2,1209716796875E-09;-0,299224853515625;8;634;2,62892283499241E-07;-2,79725417494774E-07;100 nA
-0,250244140625;324,665488180298;-2,74658203125E-11;-0,249298095703125;8;635;2,62892283499241E-07;-2,79725417494774E-07;100 nA
-0,2001953125;325,165976179035;2,2430419921875E-09;-0,199371337890625;8;636;2,62892283499241E-07;-2,79725417494774E-07;100 nA
-0,150146484375;325,666464177771;4,5562744140625E-09;-0,14959716796875;8;637;2,62892283499241E-07;-2,79725417494774E-07;100 nA
-0,10009765625;326,166952176508;6,8145751953125E-09;-0,099639892578125;8;638;2,62892283499241E-07;-2,79725417494774E-07;100 nA
-0,050048828125;326,667440175244;9,033203125E-09;-0,0498046875;8;639;2,62892283499241E-07;-2,79725417494774E-07;100 nA
0;327,16792817398;1,11328125E-08;0,000134277343750003;8;640;2,62892283499241E-07;-2,79725417494774E-07;100 nA
0,050048828125;327,668416172717;1,33331298828125E-08;0,050079345703125;9;641;2,62418799102306E-07;-2,80081294476986E-07;100 nA
0,10009765625;328,168904171453;1,52618408203125E-08;0,100006103515625;9;642;2,62418799102306E-07;-2,80081294476986E-07;100 nA
0,150146484375;328,66939217019;1,46392822265625E-08;0,150054931640625;9;643;2,62418799102306E-07;-2,80081294476986E-07;100 nA
0,2001953125;329,169880168926;1,16790771484375E-08;0,200042724609375;9;644;2,62418799102306E-07;-2,80081294476986E-07;100 nA
0,250244140625;329,670368167662;1,15814208984375E-08;0,25;9;645;2,62418799102306E-07;-2,80081294476986E-07;100 nA
0,30029296875;330,170856166399;1,12274169921875E-08;0,300079345703125;9;646;2,62418799102306E-07;-2,80081294476986E-07;100 nA
0,350341796875;330,671344165135;1,06658935546875E-08;0,350067138671875;9;647;2,62418799102306E-07;-2,80081294476986E-07;100 nA
0,400390625;331,171832163872;1,0870361328125E-08;0,400054931640625;9;648;2,62418799102306E-07;-2,80081294476986E-07;100 nA
0,450439453125;331,672320162608;1,1334228515625E-08;0,4500732421875;9;649;2,62418799102306E-07;-2,80081294476986E-07;100 nA
0,50048828125;332,172808161344;1,19873046875E-08;0,50006103515625;9;650;2,62418799102306E-07;-2,80081294476986E-07;100 nA
0,550537109375;332,673296160081;1,28814697265625E-08;0,550048828125;9;651;2,62418799102306E-07;-2,80081294476986E-07;100 nA
0,6005859375;333,173784158817;1,38214111328125E-08;0,60003662109375;9;652;2,62418799102306E-07;-2,80081294476986E-07;100 nA
0,650634765625;333,674272157553;1,4837646484375E-08;0,64996337890625;9;653;2,62418799102306E-07;-2,80081294476986E-07;100 nA
0,70068359375;334,17476015629;1,5838623046875E-08;0,699859619140625;9;654;2,62418799102306E-07;-2,80081294476986E-07;100 nA
0,750732421875;334,675248155026;1,69677734375E-08;0,749786376953125;9;655;2,62418799102306E-07;-2,80081294476986E-07;100 nA
0,80078125;335,175736153763;1,7987060546875E-08;0,79986572265625;9;656;2,62418799102306E-07;-2,80081294476986E-07;100 nA
0,850830078125;335,676224152499;1,910400390625E-08;0,84991455078125;9;657;2,62418799102306E-07;-2,80081294476986E-07;100 nA
0,90087890625;336,176712151235;2,037353515625E-08;0,899658203125;9;658;2,62418799102306E-07;-2,80081294476986E-07;100 nA
0,950927734375;336,677200149972;2,1820068359375E-08;0,95001220703125;9;659;2,62418799102306E-07;-2,80081294476986E-07;100 nA
1,0009765625;337,177688148708;2,34039306640625E-08;0,99945068359375;9;660;2,62418799102306E-07;-2,80081294476986E-07;100 nA
0,950927734375;337,678176147445;2,1136474609375E-08;0,95001220703125;9;661;2,62418799102306E-07;-2,80081294476986E-07;100 nA
0,90087890625;338,178664146181;1,95281982421875E-08;0,89996337890625;9;662;2,62418799102306E-07;-2,80081294476986E-07;100 nA
0,850830078125;338,679152144917;1,81304931640625E-08;0,849609375;9;663;2,62418799102306E-07;-2,80081294476986E-07;100 nA
0,80078125;339,179640143654;1,695556640625E-08;0,799560546875;9;664;2,62418799102306E-07;-2,80081294476986E-07;100 nA
0,750732421875;339,68012814239;1,58172607421875E-08;0,749847412109375;9;665;2,62418799102306E-07;-2,80081294476986E-07;100 nA
0,70068359375;340,180616141127;1,4617919921875E-08;0,699920654296875;9;666;2,62418799102306E-07;-2,80081294476986E-07;100 nA
0,650634765625;340,681104139863;1,35040283203125E-08;0,649993896484375;9;667;2,62418799102306E-07;-2,80081294476986E-07;100 nA
0,6005859375;341,181592138599;1,24176025390625E-08;0,60009765625;9;668;2,62418799102306E-07;-2,80081294476986E-07;100 nA
0,550537109375;341,682080137336;1,1322021484375E-08;0,55010986328125;9;669;2,62418799102306E-07;-2,80081294476986E-07;100 nA
0,50048828125;342,182568136072;1,0260009765625E-08;0,500030517578125;9;670;2,62418799102306E-07;-2,80081294476986E-07;100 nA
0,450439453125;342,683056134808;9,0972900390625E-09;0,4500732421875;9;671;2,62418799102306E-07;-2,80081294476986E-07;100 nA
0,400390625;343,183544133545;7,952880859375E-09;0,400115966796875;9;672;2,62418799102306E-07;-2,80081294476986E-07;100 nA
0,350341796875;343,684032132281;6,82373046875E-09;0,35003662109375;9;673;2,62418799102306E-07;-2,80081294476986E-07;100 nA
0,30029296875;344,184520131018;5,5572509765625E-09;0,300079345703125;9;674;2,62418799102306E-07;-2,80081294476986E-07;100 nA
0,250244140625;344,685008129754;4,180908203125E-09;0,250030517578125;9;675;2,62418799102306E-07;-2,80081294476986E-07;100 nA
0,2001953125;345,18549612849;2,6641845703125E-09;0,20001220703125;9;676;2,62418799102306E-07;-2,80081294476986E-07;100 nA
0,150146484375;345,685984127227;1,1688232421875E-09;0,15008544921875;9;677;2,62418799102306E-07;-2,80081294476986E-07;100 nA
0,10009765625;346,186472125963;-8,941650390625E-10;0,100067138671875;9;678;2,62418799102306E-07;-2,80081294476986E-07;100 nA
0,050048828125;346,6869601247;-4,5989990234375E-09;0,050048828125;9;679;2,62418799102306E-07;-2,80081294476986E-07;100 nA
0;347,187448123436;-8,465576171875E-09;0,000131225585937506;9;680;2,62418799102306E-07;-2,80081294476986E-07;100 nA
-0,050048828125;347,687936122172;-9,4482421875E-09;-0,049774169921875;9;681;2,62418799102306E-07;-2,80081294476986E-07;100 nA
-0,10009765625;348,188424120909;-1,239013671875E-08;-0,099700927734375;9;682;2,62418799102306E-07;-2,80081294476986E-07;100 nA
-0,150146484375;348,688912119645;-1,60919189453125E-08;-0,149566650390625;9;683;2,62418799102306E-07;-2,80081294476986E-07;100 nA
-0,2001953125;349,189400118382;-1,85028076171875E-08;-0,199432373046875;9;684;2,62418799102306E-07;-2,80081294476986E-07;100 nA
-0,250244140625;349,689888117118;-1,94732666015625E-08;-0,249298095703125;9;685;2,62418799102306E-07;-2,80081294476986E-07;100 nA
-0,30029296875;350,190376115854;-1,98822021484375E-08;-0,2991943359375;9;686;2,62418799102306E-07;-2,80081294476986E-07;100 nA
-0,350341796875;350,690864114591;-1,96563720703125E-08;-0,349151611328125;9;687;2,62418799102306E-07;-2,80081294476986E-07;100 nA
-0,400390625;351,191352113327;-1,84356689453125E-08;-0,399078369140625;9;688;2,62418799102306E-07;-2,80081294476986E-07;100 nA
-0,450439453125;351,691840112063;-1,72119140625E-08;-0,448883056640625;9;689;2,62418799102306E-07;-2,80081294476986E-07;100 nA
-0,50048828125;352,1923281108;-1,71142578125E-08;-0,498809814453125;9;690;2,62418799102306E-07;-2,80081294476986E-07;100 nA
-0,550537109375;352,692816109536;-1,72821044921875E-08;-0,5487060546875;9;691;2,62418799102306E-07;-2,80081294476986E-07;100 nA
-0,6005859375;353,193304108273;-1,72637939453125E-08;-0,5986328125;9;692;2,62418799102306E-07;-2,80081294476986E-07;100 nA
-0,650634765625;353,693792107009;-1,71905517578125E-08;-0,648529052734375;9;693;2,62418799102306E-07;-2,80081294476986E-07;100 nA
-0,70068359375;354,194280105745;-1,75140380859375E-08;-0,698577880859375;9;694;2,62418799102306E-07;-2,80081294476986E-07;100 nA
-0,750732421875;354,694768104482;-1,81915283203125E-08;-0,748504638671875;9;695;2,62418799102306E-07;-2,80081294476986E-07;100 nA
-0,80078125;355,195256103218;-1,9091796875E-08;-0,79864501953125;9;696;2,62418799102306E-07;-2,80081294476986E-07;100 nA
-0,850830078125;355,695744101955;-2,01934814453125E-08;-0,8489990234375;9;697;2,62418799102306E-07;-2,80081294476986E-07;100 nA
-0,90087890625;356,196232100691;-2,1337890625E-08;-0,89813232421875;9;698;2,62418799102306E-07;-2,80081294476986E-07;100 nA
-0,950927734375;356,696720099427;-2,25555419921875E-08;-0,94879150390625;9;699;2,62418799102306E-07;-2,80081294476986E-07;100 nA
-1,0009765625;357,197208098164;-2,381591796875E-08;-0,9991455078125;9;700;2,62418799102306E-07;-2,80081294476986E-07;100 nA
-0,950927734375;357,6976960969;-2,2076416015625E-08;-0,94879150390625;9;701;2,62418799102306E-07;-2,80081294476986E-07;100 nA
-0,90087890625;358,198184095637;-2,0703125E-08;-0,8984375;9;702;2,62418799102306E-07;-2,80081294476986E-07;100 nA
-0,850830078125;358,698672094373;-1,942138671875E-08;-0,848388671875;9;703;2,62418799102306E-07;-2,80081294476986E-07;100 nA
-0,80078125;359,199160093109;-1,8218994140625E-08;-0,79833984375;9;704;2,62418799102306E-07;-2,80081294476986E-07;100 nA
-0,750732421875;359,699648091846;-1,705322265625E-08;-0,74859619140625;9;705;2,62418799102306E-07;-2,80081294476986E-07;100 nA
-0,70068359375;360,200136090582;-1,578369140625E-08;-0,698577880859375;9;706;2,62418799102306E-07;-2,80081294476986E-07;100 nA
-0,650634765625;360,700624089318;-1,4434814453125E-08;-0,648529052734375;9;707;2,62418799102306E-07;-2,80081294476986E-07;100 nA
-0,6005859375;361,201112088055;-1,3092041015625E-08;-0,598663330078125;9;708;2,62418799102306E-07;-2,80081294476986E-07;100 nA
-0,550537109375;361,701600086791;-1,1712646484375E-08;-0,5487060546875;9;709;2,62418799102306E-07;-2,80081294476986E-07;100 nA
-0,50048828125;362,202088085528;-9,906005859375E-09;-0,498870849609375;9;710;2,62418799102306E-07;-2,80081294476986E-07;100 nA
-0,450439453125;362,702576084264;-7,940673828125E-09;-0,449005126953125;9;711;2,62418799102306E-07;-2,80081294476986E-07;100 nA
-0,400390625;363,203064083;-6,048583984375E-09;-0,399078369140625;9;712;2,62418799102306E-07;-2,80081294476986E-07;100 nA
-0,350341796875;363,703552081737;-4,229736328125E-09;-0,3492431640625;9;713;2,62418799102306E-07;-2,80081294476986E-07;100 nA
-0,30029296875;364,204040080473;-2,2705078125E-09;-0,299224853515625;9;714;2,62418799102306E-07;-2,80081294476986E-07;100 nA
-0,250244140625;364,70452807921;-1,220703125E-10;-0,2493896484375;9;715;2,62418799102306E-07;-2,80081294476986E-07;100 nA
-0,2001953125;365,205016077946;2,117919921875E-09;-0,199432373046875;9;716;2,62418799102306E-07;-2,80081294476986E-07;100 nA
-0,150146484375;365,705504076682;4,5074462890625E-09;-0,149566650390625;9;717;2,62418799102306E-07;-2,80081294476986E-07;100 nA
-0,10009765625;366,205992075419;6,793212890625E-09;-0,099700927734375;9;718;2,62418799102306E-07;-2,80081294476986E-07;100 nA
-0,050048828125;366,706480074155;9,0118408203125E-09;-0,0498046875;9;719;2,62418799102306E-07;-2,80081294476986E-07;100 nA
0;367,206968072892;1,114501953125E-08;0,000140380859374997;9;720;2,62418799102306E-07;-2,80081294476986E-07;100 nA
0,050048828125;367,707456071628;1,34246826171875E-08;0,05010986328125;10;721;2,62907557189465E-07;-2,79844552278519E-07;100 nA
0,10009765625;368,207944070364;1,53564453125E-08;0,100067138671875;10;722;2,62907557189465E-07;-2,79844552278519E-07;100 nA
0,150146484375;368,708432069101;1,4727783203125E-08;0,15008544921875;10;723;2,62907557189465E-07;-2,79844552278519E-07;100 nA
0,2001953125;369,208920067837;1,1785888671875E-08;0,2000732421875;10;724;2,62907557189465E-07;-2,79844552278519E-07;100 nA
0,250244140625;369,709408066573;1,1663818359375E-08;0,250091552734375;10;725;2,62907557189465E-07;-2,79844552278519E-07;100 nA
0,30029296875;370,20989606531;1,13189697265625E-08;0,300079345703125;10;726;2,62907557189465E-07;-2,79844552278519E-07;100 nA
0,350341796875;370,710384064046;1,0809326171875E-08;0,350128173828125;10;727;2,62907557189465E-07;-2,79844552278519E-07;100 nA
0,400390625;371,210872062783;1,1029052734375E-08;0,400177001953125;10;728;2,62907557189465E-07;-2,79844552278519E-07;100 nA
0,450439453125;371,711360061519;1,14105224609375E-08;0,450103759765625;10;729;2,62907557189465E-07;-2,79844552278519E-07;100 nA
0,50048828125;372,211848060255;1,21551513671875E-08;0,500091552734375;10;730;2,62907557189465E-07;-2,79844552278519E-07;100 nA
0,550537109375;372,712336058992;1,3006591796875E-08;0,550140380859375;10;731;2,62907557189465E-07;-2,79844552278519E-07;100 nA
0,6005859375;373,212824057728;1,3909912109375E-08;0,600128173828125;10;732;2,62907557189465E-07;-2,79844552278519E-07;100 nA
0,650634765625;373,713312056465;1,4935302734375E-08;0,649993896484375;10;733;2,62907557189465E-07;-2,79844552278519E-07;100 nA
0,70068359375;374,213800055201;1,59149169921875E-08;0,699951171875;10;734;2,62907557189465E-07;-2,79844552278519E-07;100 nA
0,750732421875;374,714288053937;1,69677734375E-08;0,749847412109375;10;735;2,62907557189465E-07;-2,79844552278519E-07;100 nA
0,80078125;375,214776052674;1,79718017578125E-08;0,799560546875;10;736;2,62907557189465E-07;-2,79844552278519E-07;100 nA
0,850830078125;375,71526405141;1,90521240234375E-08;0,84991455078125;10;737;2,62907557189465E-07;-2,79844552278519E-07;100 nA
0,90087890625;376,215752050147;2,02545166015625E-08;0,899658203125;10;738;2,62907557189465E-07;-2,79844552278519E-07;100 nA
0,950927734375;376,716240048883;2,166748046875E-08;0,95001220703125;10;739;2,62907557189465E-07;-2,79844552278519E-07;100 nA
1,0009765625;377,216728047619;2,3101806640625E-08;0,999755859375;10;740;2,62907557189465E-07;-2,79844552278519E-07;100 nA
0,950927734375;377,717216046356;2,100830078125E-08;0,94940185546875;10;741;2,62907557189465E-07;-2,79844552278519E-07;100 nA
0,90087890625;378,217704045092;1,93695068359375E-08;0,899658203125;10;742;2,62907557189465E-07;-2,79844552278519E-07;100 nA
0,850830078125;378,718192043828;1,7901611328125E-08;0,849609375;10;743;2,62907557189465E-07;-2,79844552278519E-07;100 nA
0,80078125;379,218680042565;1,6754150390625E-08;0,8001708984375;10;744;2,62907557189465E-07;-2,79844552278519E-07;100 nA
0,750732421875;379,719168041301;1,56219482421875E-08;0,749786376953125;10;745;2,62907557189465E-07;-2,79844552278519E-07;100 nA
0,70068359375;380,219656040038;1,4495849609375E-08;0,69989013671875;10;746;2,62907557189465E-07;-2,79844552278519E-07;100 nA
0,650634765625;380,720144038774;1,3427734375E-08;0,649993896484375;10;747;2,62907557189465E-07;-2,79844552278519E-07;100 nA
0,6005859375;381,22063203751;1,23626708984375E-08;0,600067138671875;10;748;2,62907557189465E-07;-2,79844552278519E-07;100 nA
0,550537109375;381,721120036247;1,12945556640625E-08;0,550048828125;10;749;2,62907557189465E-07;-2,79844552278519E-07;100 nA
0,50048828125;382,221608034983;1,02294921875E-08;0,500091552734375;10;750;2,62907557189465E-07;-2,79844552278519E-07;100 nA
0,450439453125;382,72209603372;9,2071533203125E-09;0,45013427734375;10;751;2,62907557189465E-07;-2,79844552278519E-07;100 nA
0,400390625;383,222584032456;8,0474853515625E-09;0,400146484375;10;752;2,62907557189465E-07;-2,79844552278519E-07;100 nA
0,350341796875;383,723072031192;6,9244384765625E-09;0,35009765625;10;753;2,62907557189465E-07;-2,79844552278519E-07;100 nA
0,30029296875;384,223560029929;5,670166015625E-09;0,30010986328125;10;754;2,62907557189465E-07;-2,79844552278519E-07;100 nA
0,250244140625;384,724048028665;4,28466796875E-09;0,250091552734375;10;755;2,62907557189465E-07;-2,79844552278519E-07;100 nA
0,2001953125;385,224536027402;2,8106689453125E-09;0,200103759765625;10;756;2,62907557189465E-07;-2,79844552278519E-07;100 nA
0,150146484375;385,725024026138;1,30615234375E-09;0,15008544921875;10;757;2,62907557189465E-07;-2,79844552278519E-07;100 nA
0,10009765625;386,225512024874;-6,53076171875E-10;0,10009765625;10;758;2,62907557189465E-07;-2,79844552278519E-07;100 nA
0,050048828125;386,726000023611;-4,38232421875E-09;0,0501708984375;10;759;2,62907557189465E-07;-2,79844552278519E-07;100 nA
0;387,226488022347;-8,3282470703125E-09;0,000143432617187494;10;760;2,62907557189465E-07;-2,79844552278519E-07;100 nA
-0,050048828125;387,726976021083;-9,3048095703125E-09;-0,0497161865234375;10;761;2,62907557189465E-07;-2,79844552278519E-07;100 nA
-0,10009765625;388,22746401982;-1,226806640625E-08;-0,099639892578125;10;762;2,62907557189465E-07;-2,79844552278519E-07;100 nA
-0,150146484375;388,727952018556;-1,6021728515625E-08;-0,149566650390625;10;763;2,62907557189465E-07;-2,79844552278519E-07;100 nA
-0,2001953125;389,228440017293;-1,84967041015625E-08;-0,1993408203125;10;764;2,62907557189465E-07;-2,79844552278519E-07;100 nA
-0,250244140625;389,728928016029;-1,9464111328125E-08;-0,24932861328125;10;765;2,62907557189465E-07;-2,79844552278519E-07;100 nA
-0,30029296875;390,229416014765;-1,9866943359375E-08;-0,29925537109375;10;766;2,62907557189465E-07;-2,79844552278519E-07;100 nA
-0,350341796875;390,729904013502;-1,96868896484375E-08;-0,34918212890625;10;767;2,62907557189465E-07;-2,79844552278519E-07;100 nA
-0,400390625;391,230392012238;-1,85150146484375E-08;-0,399017333984375;10;768;2,62907557189465E-07;-2,79844552278519E-07;100 nA
-0,450439453125;391,730880010975;-1,732177734375E-08;-0,449005126953125;10;769;2,62907557189465E-07;-2,79844552278519E-07;100 nA
-0,50048828125;392,231368009711;-1,72119140625E-08;-0,498870849609375;10;770;2,62907557189465E-07;-2,79844552278519E-07;100 nA
-0,550537109375;392,731856008447;-1,73736572265625E-08;-0,548736572265625;10;771;2,62907557189465E-07;-2,79844552278519E-07;100 nA
-0,6005859375;393,232344007184;-1,732177734375E-08;-0,5986328125;10;772;2,62907557189465E-07;-2,79844552278519E-07;100 nA
-0,650634765625;393,73283200592;-1,7254638671875E-08;-0,6485595703125;10;773;2,62907557189465E-07;-2,79844552278519E-07;100 nA
-0,70068359375;394,233320004657;-1,76025390625E-08;-0,69854736328125;10;774;2,62907557189465E-07;-2,79844552278519E-07;100 nA
-0,750732421875;394,733808003393;-1,8377685546875E-08;-0,74859619140625;10;775;2,62907557189465E-07;-2,79844552278519E-07;100 nA
-0,80078125;395,234296002129;-1,93115234375E-08;-0,79864501953125;10;776;2,62907557189465E-07;-2,79844552278519E-07;100 nA
-0,850830078125;395,734784000866;-2,03369140625E-08;-0,848388671875;10;777;2,62907557189465E-07;-2,79844552278519E-07;100 nA
-0,90087890625;396,235271999602;-2,138671875E-08;-0,89874267578125;10;778;2,62907557189465E-07;-2,79844552278519E-07;100 nA
-0,950927734375;396,735759998338;-2,2613525390625E-08;-0,94879150390625;10;779;2,62907557189465E-07;-2,79844552278519E-07;100 nA
-1,0009765625;397,236247997075;-2,38037109375E-08;-0,99884033203125;10;780;2,62907557189465E-07;-2,79844552278519E-07;100 nA
-0,950927734375;397,736735995811;-2,2137451171875E-08;-0,94879150390625;10;781;2,62907557189465E-07;-2,79844552278519E-07;100 nA
-0,90087890625;398,237223994548;-2,07672119140625E-08;-0,89874267578125;10;782;2,62907557189465E-07;-2,79844552278519E-07;100 nA
-0,850830078125;398,737711993284;-1,94854736328125E-08;-0,848388671875;10;783;2,62907557189465E-07;-2,79844552278519E-07;100 nA
-0,80078125;399,23819999202;-1,822509765625E-08;-0,79803466796875;10;784;2,62907557189465E-07;-2,79844552278519E-07;100 nA
-0,750732421875;399,738687990757;-1,70135498046875E-08;-0,748565673828125;10;785;2,62907557189465E-07;-2,79844552278519E-07;100 nA
-0,70068359375;400,239175989493;-1,5777587890625E-08;-0,69854736328125;10;786;2,62907557189465E-07;-2,79844552278519E-07;100 nA
-0,650634765625;400,73966398823;-1,44012451171875E-08;-0,648590087890625;10;787;2,62907557189465E-07;-2,79844552278519E-07;100 nA
-0,6005859375;401,240151986966;-1,30615234375E-08;-0,598663330078125;10;788;2,62907557189465E-07;-2,79844552278519E-07;100 nA
-0,550537109375;401,740639985702;-1,16455078125E-08;-0,548736572265625;10;789;2,62907557189465E-07;-2,79844552278519E-07;100 nA
-0,50048828125;402,241127984439;-9,857177734375E-09;-0,498779296875;10;790;2,62907557189465E-07;-2,79844552278519E-07;100 nA
-0,450439453125;402,741615983175;-7,855224609375E-09;-0,449005126953125;10;791;2,62907557189465E-07;-2,79844552278519E-07;100 nA
-0,400390625;403,242103981912;-5,877685546875E-09;-0,39910888671875;10;792;2,62907557189465E-07;-2,79844552278519E-07;100 nA
-0,350341796875;403,742591980648;-3,997802734375E-09;-0,349151611328125;10;793;2,62907557189465E-07;-2,79844552278519E-07;100 nA
-0,30029296875;404,243079979384;-2,1148681640625E-09;-0,299163818359375;10;794;2,62907557189465E-07;-2,79844552278519E-07;100 nA
-0,250244140625;404,743567978121;-2,13623046875E-11;-0,24932861328125;10;795;2,62907557189465E-07;-2,79844552278519E-07;100 nA
-0,2001953125;405,244055976857;2,294921875E-09;-0,199432373046875;10;796;2,62907557189465E-07;-2,79844552278519E-07;100 nA
-0,150146484375;405,744543975594;4,632568359375E-09;-0,149566650390625;10;797;2,62907557189465E-07;-2,79844552278519E-07;100 nA
-0,10009765625;406,24503197433;6,87255859375E-09;-0,099700927734375;10;798;2,62907557189465E-07;-2,79844552278519E-07;100 nA
-0,050048828125;406,745519973066;9,1033935546875E-09;-0,0498046875;10;799;2,62907557189465E-07;-2,79844552278519E-07;100 nA
0;407,246007971803;1,121826171875E-08;0,000152587890625;10;800;2,62907557189465E-07;-2,79844552278519E-07;100 nA
