Potential applied (V);Time (s);WE(1).Current (A);WE(1).Potential (V);Scan;Index;Q+;Q-;Current range
0,050048828125;7,37049798139128;2,06939697265625E-08;0,050048828125;1;1;3,54861587285995E-06;-3,92591420561075E-06;100 nA
0,10009765625;7,87098598012767;4,010009765625E-08;0,10003662109375;1;2;3,54861587285995E-06;-3,92591420561075E-06;100 nA
0,150146484375;8,37147397886406;5,8990478515625E-08;0,149993896484375;1;3;3,54861587285995E-06;-3,92591420561075E-06;100 nA
0,2001953125;8,87196197760045;7,574462890625E-08;0,199920654296875;1;4;3,54861587285995E-06;-3,92591420561075E-06;100 nA
0,250244140625;9,37244997633684;9,2529296875E-08;0,2498779296875;1;5;3,54861587285995E-06;-3,92591420561075E-06;100 nA
0,30029296875;9,87293797507323;1,0968017578125E-07;0,29986572265625;1;6;3,54861587285995E-06;-3,92591420561075E-06;100 nA
0,350341796875;10,3734259738096;1,26739501953125E-07;0,34991455078125;1;7;3,54861587285995E-06;-3,92591420561075E-06;100 nA
0,400390625;10,873913972546;1,43829345703125E-07;0,39990234375;1;8;3,54861587285995E-06;-3,92591420561075E-06;100 nA
0,450439453125;11,3744019712824;1,60980224609375E-07;0,4498291015625;1;9;3,54861587285995E-06;-3,92591420561075E-06;100 nA
0,50048828125;11,8748899700188;1,78253173828125E-07;0,499847412109375;1;10;3,54861587285995E-06;-3,92591420561075E-06;100 nA
0,550537109375;12,3753779687552;1,9561767578125E-07;0,549713134765625;1;11;3,54861587285995E-06;-3,92591420561075E-06;100 nA
0,6005859375;12,8758659674916;2,13104248046875E-07;0,599700927734375;1;12;3,54861587285995E-06;-3,92591420561075E-06;100 nA
0,650634765625;13,376353966228;2,3065185546875E-07;0,64959716796875;1;13;3,54861587285995E-06;-3,92591420561075E-06;100 nA
0,70068359375;13,8768419649643;2,481689453125E-07;0,699432373046875;1;14;3,54861587285995E-06;-3,92591420561075E-06;100 nA
0,750732421875;14,3773299637007;2,65594482421875E-07;0,749298095703125;1;15;3,54861587285995E-06;-3,92591420561075E-06;100 nA
0,80078125;14,8778179624371;2,83050537109375E-07;0,79986572265625;1;16;3,54861587285995E-06;-3,92591420561075E-06;100 nA
0,850830078125;15,3783059611735;3,0072021484375E-07;0,849609375;1;17;3,54861587285995E-06;-3,92591420561075E-06;100 nA
0,90087890625;15,8787939599099;3,18634033203125E-07;0,9002685546875;1;18;3,54861587285995E-06;-3,92591420561075E-06;1 µA
0,950927734375;16,3792819586463;3,365478515625E-07;0,94970703125;1;19;3,54861587285995E-06;-3,92591420561075E-06;1 µA
1,0009765625;16,8797699573827;3,548583984375E-07;0,99945068359375;1;20;3,54861587285995E-06;-3,92591420561075E-06;1 µA
0,950927734375;17,3802579561191;3,359375E-07;0,94940185546875;1;21;3,54861587285995E-06;-3,92591420561075E-06;1 µA
0,90087890625;17,8807459548555;3,17626953125E-07;0,89996337890625;1;22;3,54861587285995E-06;-3,92591420561075E-06;1 µA
0,850830078125;18,3812339535918;2,9974365234375E-07;0,84930419921875;1;23;3,54861587285995E-06;-3,92591420561075E-06;1 µA
0,80078125;18,8817219523282;2,8204345703125E-07;0,79986572265625;1;24;3,54861587285995E-06;-3,92591420561075E-06;1 µA
0,750732421875;19,3822099510646;2,642822265625E-07;0,74981689453125;1;25;3,54861587285995E-06;-3,92591420561075E-06;1 µA
0,70068359375;19,882697949801;2,4664306640625E-07;0,699981689453125;1;26;3,54861587285995E-06;-3,92591420561075E-06;1 µA
0,650634765625;20,3831859485374;2,29034423828125E-07;0,650054931640625;1;27;3,54861587285995E-06;-3,92591420561075E-06;1 µA
0,6005859375;20,8836739472738;2,113037109375E-07;0,600067138671875;1;28;3,54861587285995E-06;-3,92591420561075E-06;1 µA
0,550537109375;21,3841619460102;1,93634033203125E-07;0,550079345703125;1;29;3,54861587285995E-06;-3,92591420561075E-06;1 µA
0,50048828125;21,8846499447466;1,75933837890625E-07;0,500091552734375;1;30;3,54861587285995E-06;-3,92591420561075E-06;1 µA
0,450439453125;22,385137943483;1,58203125E-07;0,450103759765625;1;31;3,54861587285995E-06;-3,92591420561075E-06;1 µA
0,400390625;22,8856259422193;1,40472412109375E-07;0,400146484375;1;32;3,54861587285995E-06;-3,92591420561075E-06;1 µA
0,350341796875;23,3861139409557;1,2274169921875E-07;0,35009765625;1;33;3,54861587285995E-06;-3,92591420561075E-06;1 µA
0,30029296875;23,8866019396921;1,04827880859375E-07;0,30010986328125;1;34;3,54861587285995E-06;-3,92591420561075E-06;1 µA
0,250244140625;24,3870899384285;8,70361328125E-08;0,25006103515625;1;35;3,54861587285995E-06;-3,92591420561075E-06;1 µA
0,2001953125;24,8875779371649;6,903076171875E-08;0,2000732421875;1;36;3,54861587285995E-06;-3,92591420561075E-06;1 µA
0,150146484375;25,3880659359013;5,0262451171875E-08;0,15008544921875;1;37;3,54861587285995E-06;-3,92591420561075E-06;1 µA
0,10009765625;25,8885539346377;2,9937744140625E-08;0,100067138671875;1;38;3,54861587285995E-06;-3,92591420561075E-06;1 µA
0,050048828125;26,3890419333741;1,24542236328125E-08;0,050079345703125;1;39;3,54861587285995E-06;-3,92591420561075E-06;1 µA
0;26,8895299321105;-4,5135498046875E-09;0,000155639648437497;1;40;3,54861587285995E-06;-3,92591420561075E-06;100 nA
-0,050048828125;27,3900179308469;-2,2772216796875E-08;-0,0496917724609375;1;41;3,54861587285995E-06;-3,92591420561075E-06;100 nA
-0,10009765625;27,8905059295832;-4,16259765625E-08;-0,099609375;1;42;3,54861587285995E-06;-3,92591420561075E-06;100 nA
-0,150146484375;28,3909939283196;-6,121826171875E-08;-0,14947509765625;1;43;3,54861587285995E-06;-3,92591420561075E-06;100 nA
-0,2001953125;28,891481927056;-8,0780029296875E-08;-0,1993408203125;1;44;3,54861587285995E-06;-3,92591420561075E-06;100 nA
-0,250244140625;29,3919699257924;-1,00738525390625E-07;-0,24920654296875;1;45;3,54861587285995E-06;-3,92591420561075E-06;100 nA
-0,30029296875;29,8924579245288;-1,2054443359375E-07;-0,29901123046875;1;46;3,54861587285995E-06;-3,92591420561075E-06;100 nA
-0,350341796875;30,3929459232652;-1,3970947265625E-07;-0,348907470703125;1;47;3,54861587285995E-06;-3,92591420561075E-06;100 nA
-0,400390625;30,8934339220016;-1,585693359375E-07;-0,398773193359375;1;48;3,54861587285995E-06;-3,92591420561075E-06;100 nA
-0,450439453125;31,393921920738;-1,77947998046875E-07;-0,448638916015625;1;49;3,54861587285995E-06;-3,92591420561075E-06;100 nA
-0,50048828125;31,8944099194744;-1,976318359375E-07;-0,49853515625;1;50;3,54861587285995E-06;-3,92591420561075E-06;100 nA
-0,550537109375;32,3948979182107;-2,1728515625E-07;-0,54833984375;1;51;3,54861587285995E-06;-3,92591420561075E-06;100 nA
-0,6005859375;32,8953859169471;-2,36846923828125E-07;-0,598175048828125;1;52;3,54861587285995E-06;-3,92591420561075E-06;100 nA
-0,650634765625;33,3958739156835;-2,56103515625E-07;-0,648101806640625;1;53;3,54861587285995E-06;-3,92591420561075E-06;100 nA
-0,70068359375;33,8963619144199;-2,75390625E-07;-0,697998046875;1;54;3,54861587285995E-06;-3,92591420561075E-06;100 nA
-0,750732421875;34,3968499131563;-2,94830322265625E-07;-0,748046875;1;55;3,54861587285995E-06;-3,92591420561075E-06;100 nA
-0,80078125;34,8973379118927;-3,14453125E-07;-0,79803466796875;1;56;3,54861587285995E-06;-3,92591420561075E-06;100 nA
-0,850830078125;35,3978259106291;-3,33740234375E-07;-0,84869384765625;1;57;3,54861587285995E-06;-3,92591420561075E-06;1 µA
-0,90087890625;35,8983139093655;-3,53485107421875E-07;-0,89874267578125;1;58;3,54861587285995E-06;-3,92591420561075E-06;1 µA
-0,950927734375;36,3988019081019;-3,73291015625E-07;-0,9490966796875;1;59;3,54861587285995E-06;-3,92591420561075E-06;1 µA
-1,0009765625;36,8992899068382;-3,9324951171875E-07;-0,99884033203125;1;60;3,54861587285995E-06;-3,92591420561075E-06;1 µA
-0,950927734375;37,3997779055746;-3,73046875E-07;-0,9490966796875;1;61;3,54861587285995E-06;-3,92591420561075E-06;1 µA
-0,90087890625;37,900265904311;-3,53302001953125E-07;-0,8984375;1;62;3,54861587285995E-06;-3,92591420561075E-06;1 µA
-0,850830078125;38,4007539030474;-3,3367919921875E-07;-0,8489990234375;1;63;3,54861587285995E-06;-3,92591420561075E-06;1 µA
-0,80078125;38,9012419017838;-3,1402587890625E-07;-0,79864501953125;1;64;3,54861587285995E-06;-3,92591420561075E-06;1 µA
-0,750732421875;39,4017299005202;-2,94342041015625E-07;-0,748565673828125;1;65;3,54861587285995E-06;-3,92591420561075E-06;1 µA
-0,70068359375;39,9022178992566;-2,74688720703125E-07;-0,698516845703125;1;66;3,54861587285995E-06;-3,92591420561075E-06;1 µA
-0,650634765625;40,402705897993;-2,5494384765625E-07;-0,6485595703125;1;67;3,54861587285995E-06;-3,92591420561075E-06;1 µA
-0,6005859375;40,9031938967294;-2,352294921875E-07;-0,598663330078125;1;68;3,54861587285995E-06;-3,92591420561075E-06;1 µA
-0,550537109375;41,4036818954658;-2,15301513671875E-07;-0,54876708984375;1;69;3,54861587285995E-06;-3,92591420561075E-06;1 µA
-0,50048828125;41,9041698942021;-1,95098876953125E-07;-0,498809814453125;1;70;3,54861587285995E-06;-3,92591420561075E-06;1 µA
-0,450439453125;42,4046578929385;-1,7498779296875E-07;-0,449005126953125;1;71;3,54861587285995E-06;-3,92591420561075E-06;1 µA
-0,400390625;42,9051458916749;-1,54937744140625E-07;-0,399078369140625;1;72;3,54861587285995E-06;-3,92591420561075E-06;1 µA
-0,350341796875;43,4056338904113;-1,34796142578125E-07;-0,34912109375;1;73;3,54861587285995E-06;-3,92591420561075E-06;1 µA
-0,30029296875;43,9061218891477;-1,142578125E-07;-0,299224853515625;1;74;3,54861587285995E-06;-3,92591420561075E-06;1 µA
-0,250244140625;44,4066098878841;-9,356689453125E-08;-0,24932861328125;1;75;3,54861587285995E-06;-3,92591420561075E-06;1 µA
-0,2001953125;44,9070978866205;-7,281494140625E-08;-0,199432373046875;1;76;3,54861587285995E-06;-3,92591420561075E-06;1 µA
-0,150146484375;45,4075858853569;-5,2825927734375E-08;-0,149505615234375;1;77;3,54861587285995E-06;-3,92591420561075E-06;1 µA
-0,10009765625;45,9080738840933;-3,3416748046875E-08;-0,099700927734375;1;78;3,54861587285995E-06;-3,92591420561075E-06;1 µA
-0,050048828125;46,4085618828296;-1,4178466796875E-08;-0,049774169921875;1;79;3,54861587285995E-06;-3,92591420561075E-06;1 µA
0;46,909049881566;4,669189453125E-09;0,000149536132812503;1;80;3,54861587285995E-06;-3,92591420561075E-06;100 nA
0,050048828125;47,4095378803024;2,347412109375E-08;0,050079345703125;2;81;3,55433434247971E-06;-3,92908502370119E-06;100 nA
0,10009765625;47,9100258790388;4,193115234375E-08;0,100067138671875;2;82;3,55433434247971E-06;-3,92908502370119E-06;100 nA
0,150146484375;48,4105138777752;6,0150146484375E-08;0,149993896484375;2;83;3,55433434247971E-06;-3,92908502370119E-06;100 nA
0,2001953125;48,9110018765116;7,659912109375E-08;0,199920654296875;2;84;3,55433434247971E-06;-3,92908502370119E-06;100 nA
0,250244140625;49,411489875248;9,326171875E-08;0,249908447265625;2;85;3,55433434247971E-06;-3,92908502370119E-06;100 nA
0,30029296875;49,9119778739844;1,10198974609375E-07;0,299896240234375;2;86;3,55433434247971E-06;-3,92908502370119E-06;100 nA
0,350341796875;50,4124658727208;1,27227783203125E-07;0,349945068359375;2;87;3,55433434247971E-06;-3,92908502370119E-06;100 nA
0,400390625;50,9129538714571;1,44287109375E-07;0,399810791015625;2;88;3,55433434247971E-06;-3,92908502370119E-06;100 nA
0,450439453125;51,4134418701935;1,6143798828125E-07;0,44989013671875;2;89;3,55433434247971E-06;-3,92908502370119E-06;100 nA
0,50048828125;51,9139298689299;1,78680419921875E-07;0,4998779296875;2;90;3,55433434247971E-06;-3,92908502370119E-06;100 nA
0,550537109375;52,4144178676663;1,96075439453125E-07;0,5498046875;2;91;3,55433434247971E-06;-3,92908502370119E-06;100 nA
0,6005859375;52,9149058664027;2,13470458984375E-07;0,59979248046875;2;92;3,55433434247971E-06;-3,92908502370119E-06;100 nA
0,650634765625;53,4153938651391;2,3095703125E-07;0,649658203125;2;93;3,55433434247971E-06;-3,92908502370119E-06;100 nA
0,70068359375;53,9158818638755;2,48443603515625E-07;0,699462890625;2;94;3,55433434247971E-06;-3,92908502370119E-06;100 nA
0,750732421875;54,4163698626119;2,6593017578125E-07;0,74932861328125;2;95;3,55433434247971E-06;-3,92908502370119E-06;100 nA
0,80078125;54,9168578613483;2,83416748046875E-07;0,799560546875;2;96;3,55433434247971E-06;-3,92908502370119E-06;100 nA
0,850830078125;55,4173458600847;3,0096435546875E-07;0,849609375;2;97;3,55433434247971E-06;-3,92908502370119E-06;100 nA
0,90087890625;55,917833858821;3,1890869140625E-07;0,89996337890625;2;98;3,55433434247971E-06;-3,92908502370119E-06;1 µA
0,950927734375;56,4183218575574;3,3673095703125E-07;0,95001220703125;2;99;3,55433434247971E-06;-3,92908502370119E-06;1 µA
1,0009765625;56,9188098562938;3,54949951171875E-07;0,99945068359375;2;100;3,55433434247971E-06;-3,92908502370119E-06;1 µA
0,950927734375;57,4192978550302;3,360595703125E-07;0,94940185546875;2;101;3,55433434247971E-06;-3,92908502370119E-06;1 µA
0,90087890625;57,9197858537666;3,177490234375E-07;0,89996337890625;2;102;3,55433434247971E-06;-3,92908502370119E-06;1 µA
0,850830078125;58,420273852503;2,999267578125E-07;0,84991455078125;2;103;3,55433434247971E-06;-3,92908502370119E-06;1 µA
0,80078125;58,9207618512394;2,8204345703125E-07;0,8001708984375;2;104;3,55433434247971E-06;-3,92908502370119E-06;1 µA
0,750732421875;59,4212498499758;2,64312744140625E-07;0,7498779296875;2;105;3,55433434247971E-06;-3,92908502370119E-06;1 µA
0,70068359375;59,9217378487122;2,4664306640625E-07;0,699951171875;2;106;3,55433434247971E-06;-3,92908502370119E-06;1 µA
0,650634765625;60,4222258474485;2,288818359375E-07;0,649993896484375;2;107;3,55433434247971E-06;-3,92908502370119E-06;1 µA
0,6005859375;60,9227138461849;2,1124267578125E-07;0,60009765625;2;108;3,55433434247971E-06;-3,92908502370119E-06;1 µA
0,550537109375;61,4232018449213;1,93572998046875E-07;0,55010986328125;2;109;3,55433434247971E-06;-3,92908502370119E-06;1 µA
0,50048828125;61,9236898436577;1,75872802734375E-07;0,500091552734375;2;110;3,55433434247971E-06;-3,92908502370119E-06;1 µA
0,450439453125;62,4241778423941;1,58172607421875E-07;0,450042724609375;2;111;3,55433434247971E-06;-3,92908502370119E-06;1 µA
0,400390625;62,9246658411305;1,4044189453125E-07;0,400115966796875;2;112;3,55433434247971E-06;-3,92908502370119E-06;1 µA
0,350341796875;63,4251538398669;1,2261962890625E-07;0,35015869140625;2;113;3,55433434247971E-06;-3,92908502370119E-06;1 µA
0,30029296875;63,9256418386033;1,04736328125E-07;0,300079345703125;2;114;3,55433434247971E-06;-3,92908502370119E-06;1 µA
0,250244140625;64,4261298373397;8,6883544921875E-08;0,25006103515625;2;115;3,55433434247971E-06;-3,92908502370119E-06;1 µA
0,2001953125;64,926617836076;6,8939208984375E-08;0,200103759765625;2;116;3,55433434247971E-06;-3,92908502370119E-06;1 µA
0,150146484375;65,4271058348124;5,01708984375E-08;0,150146484375;2;117;3,55433434247971E-06;-3,92908502370119E-06;1 µA
0,10009765625;65,9275938335488;2,9693603515625E-08;0,100067138671875;2;118;3,55433434247971E-06;-3,92908502370119E-06;1 µA
0,050048828125;66,4280818322852;1,2060546875E-08;0,05010986328125;2;119;3,55433434247971E-06;-3,92908502370119E-06;1 µA
0;66,9285698310216;-4,852294921875E-09;0,000149536132812503;2;120;3,55433434247971E-06;-3,92908502370119E-06;100 nA
-0,050048828125;67,429057829758;-2,30499267578125E-08;-0,0496978759765625;2;121;3,55433434247971E-06;-3,92908502370119E-06;100 nA
-0,10009765625;67,9295458284944;-4,180908203125E-08;-0,099609375;2;122;3,55433434247971E-06;-3,92908502370119E-06;100 nA
-0,150146484375;68,4300338272308;-6,121826171875E-08;-0,14947509765625;2;123;3,55433434247971E-06;-3,92908502370119E-06;100 nA
-0,2001953125;68,9305218259672;-8,0718994140625E-08;-0,1993408203125;2;124;3,55433434247971E-06;-3,92908502370119E-06;100 nA
-0,250244140625;69,4310098247036;-1,005859375E-07;-0,249176025390625;2;125;3,55433434247971E-06;-3,92908502370119E-06;100 nA
-0,30029296875;69,9314978234399;-1,2030029296875E-07;-0,299072265625;2;126;3,55433434247971E-06;-3,92908502370119E-06;100 nA
-0,350341796875;70,4319858221763;-1,39495849609375E-07;-0,348968505859375;2;127;3,55433434247971E-06;-3,92908502370119E-06;100 nA
-0,400390625;70,9324738209127;-1,58447265625E-07;-0,3988037109375;2;128;3,55433434247971E-06;-3,92908502370119E-06;100 nA
-0,450439453125;71,4329618196491;-1,778564453125E-07;-0,448638916015625;2;129;3,55433434247971E-06;-3,92908502370119E-06;100 nA
-0,50048828125;71,9334498183855;-1,97540283203125E-07;-0,49847412109375;2;130;3,55433434247971E-06;-3,92908502370119E-06;100 nA
-0,550537109375;72,4339378171219;-2,1722412109375E-07;-0,548370361328125;2;131;3,55433434247971E-06;-3,92908502370119E-06;100 nA
-0,6005859375;72,9344258158583;-2,366943359375E-07;-0,59820556640625;2;132;3,55433434247971E-06;-3,92908502370119E-06;100 nA
-0,650634765625;73,4349138145947;-2,559814453125E-07;-0,648101806640625;2;133;3,55433434247971E-06;-3,92908502370119E-06;100 nA
-0,70068359375;73,9354018133311;-2,75299072265625E-07;-0,698028564453125;2;134;3,55433434247971E-06;-3,92908502370119E-06;100 nA
-0,750732421875;74,4358898120674;-2,947998046875E-07;-0,748016357421875;2;135;3,55433434247971E-06;-3,92908502370119E-06;100 nA
-0,80078125;74,9363778108038;-3,14422607421875E-07;-0,79833984375;2;136;3,55433434247971E-06;-3,92908502370119E-06;100 nA
-0,850830078125;75,4368658095402;-3,33648681640625E-07;-0,8489990234375;2;137;3,55433434247971E-06;-3,92908502370119E-06;1 µA
-0,90087890625;75,9373538082766;-3,533935546875E-07;-0,8984375;2;138;3,55433434247971E-06;-3,92908502370119E-06;1 µA
-0,950927734375;76,437841807013;-3,73260498046875E-07;-0,94879150390625;2;139;3,55433434247971E-06;-3,92908502370119E-06;1 µA
-1,0009765625;76,9383298057494;-3,9324951171875E-07;-0,99853515625;2;140;3,55433434247971E-06;-3,92908502370119E-06;1 µA
-0,950927734375;77,4388178044858;-3,731689453125E-07;-0,948486328125;2;141;3,55433434247971E-06;-3,92908502370119E-06;1 µA
-0,90087890625;77,9393058032222;-3,53424072265625E-07;-0,8984375;2;142;3,55433434247971E-06;-3,92908502370119E-06;1 µA
-0,850830078125;78,4397938019586;-3,3380126953125E-07;-0,84869384765625;2;143;3,55433434247971E-06;-3,92908502370119E-06;1 µA
-0,80078125;78,9402818006949;-3,14361572265625E-07;-0,7989501953125;2;144;3,55433434247971E-06;-3,92908502370119E-06;1 µA
-0,750732421875;79,4407697994313;-2,947998046875E-07;-0,748565673828125;2;145;3,55433434247971E-06;-3,92908502370119E-06;1 µA
-0,70068359375;79,9412577981677;-2,7520751953125E-07;-0,698577880859375;2;146;3,55433434247971E-06;-3,92908502370119E-06;1 µA
-0,650634765625;80,4417457969041;-2,55462646484375E-07;-0,6485595703125;2;147;3,55433434247971E-06;-3,92908502370119E-06;1 µA
-0,6005859375;80,9422337956405;-2,35748291015625E-07;-0,59869384765625;2;148;3,55433434247971E-06;-3,92908502370119E-06;1 µA
-0,550537109375;81,4427217943769;-2,15850830078125E-07;-0,54876708984375;2;149;3,55433434247971E-06;-3,92908502370119E-06;1 µA
-0,50048828125;81,9432097931133;-1,956787109375E-07;-0,4989013671875;2;150;3,55433434247971E-06;-3,92908502370119E-06;1 µA
-0,450439453125;82,4436977918497;-1,75537109375E-07;-0,448974609375;2;151;3,55433434247971E-06;-3,92908502370119E-06;1 µA
-0,400390625;82,9441857905861;-1,55548095703125E-07;-0,399017333984375;2;152;3,55433434247971E-06;-3,92908502370119E-06;1 µA
-0,350341796875;83,4446737893225;-1,3531494140625E-07;-0,349151611328125;2;153;3,55433434247971E-06;-3,92908502370119E-06;1 µA
-0,30029296875;83,9451617880588;-1,14776611328125E-07;-0,29925537109375;2;154;3,55433434247971E-06;-3,92908502370119E-06;1 µA
-0,250244140625;84,4456497867952;-9,3963623046875E-08;-0,249359130859375;2;155;3,55433434247971E-06;-3,92908502370119E-06;1 µA
-0,2001953125;84,9461377855316;-7,31201171875E-08;-0,199493408203125;2;156;3,55433434247971E-06;-3,92908502370119E-06;1 µA
-0,150146484375;85,446625784268;-5,3131103515625E-08;-0,149566650390625;2;157;3,55433434247971E-06;-3,92908502370119E-06;1 µA
-0,10009765625;85,9471137830044;-3,3538818359375E-08;-0,0997314453125;2;158;3,55433434247971E-06;-3,92908502370119E-06;1 µA
-0,050048828125;86,4476017817408;-1,422119140625E-08;-0,0498046875;2;159;3,55433434247971E-06;-3,92908502370119E-06;1 µA
0;86,9480897804772;4,6142578125E-09;0,0001373291015625;2;160;3,55433434247971E-06;-3,92908502370119E-06;100 nA
0,050048828125;87,4485777792136;2,34405517578125E-08;0,050048828125;3;161;3,55429463088512E-06;-3,92967000603676E-06;100 nA
0,10009765625;87,94906577795;4,18701171875E-08;0,0999755859375;3;162;3,55429463088512E-06;-3,92967000603676E-06;100 nA
0,150146484375;88,4495537766863;6,011962890625E-08;0,14996337890625;3;163;3,55429463088512E-06;-3,92967000603676E-06;100 nA
0,2001953125;88,9500417754227;7,6568603515625E-08;0,199920654296875;3;164;3,55429463088512E-06;-3,92967000603676E-06;100 nA
0,250244140625;89,4505297741591;9,3231201171875E-08;0,249908447265625;3;165;3,55429463088512E-06;-3,92967000603676E-06;100 nA
0,30029296875;89,9510177728955;1,1016845703125E-07;0,299896240234375;3;166;3,55429463088512E-06;-3,92967000603676E-06;100 nA
0,350341796875;90,4515057716319;1,2713623046875E-07;0,349945068359375;3;167;3,55429463088512E-06;-3,92967000603676E-06;100 nA
0,400390625;90,9519937703683;1,44195556640625E-07;0,399932861328125;3;168;3,55429463088512E-06;-3,92967000603676E-06;100 nA
0,450439453125;91,4524817691047;1,61346435546875E-07;0,449859619140625;3;169;3,55429463088512E-06;-3,92967000603676E-06;100 nA
0,50048828125;91,9529697678411;1,78619384765625E-07;0,49981689453125;3;170;3,55429463088512E-06;-3,92967000603676E-06;100 nA
0,550537109375;92,4534577665775;1,96014404296875E-07;0,5498046875;3;171;3,55429463088512E-06;-3,92967000603676E-06;100 nA
0,6005859375;92,9539457653138;2,1337890625E-07;0,599700927734375;3;172;3,55429463088512E-06;-3,92967000603676E-06;100 nA
0,650634765625;93,4544337640502;2,3089599609375E-07;0,64959716796875;3;173;3,55429463088512E-06;-3,92967000603676E-06;100 nA
0,70068359375;93,9549217627866;2,48382568359375E-07;0,699462890625;3;174;3,55429463088512E-06;-3,92967000603676E-06;100 nA
0,750732421875;94,455409761523;2,65838623046875E-07;0,74932861328125;3;175;3,55429463088512E-06;-3,92967000603676E-06;100 nA
0,80078125;94,9558977602594;2,83477783203125E-07;0,80047607421875;3;176;3,55429463088512E-06;-3,92967000603676E-06;100 nA
0,850830078125;95,4563857589958;3,01025390625E-07;0,8502197265625;3;177;3,55429463088512E-06;-3,92967000603676E-06;100 nA
0,90087890625;95,9568737577322;3,1890869140625E-07;0,89996337890625;3;178;3,55429463088512E-06;-3,92967000603676E-06;1 µA
0,950927734375;96,4573617564686;3,36883544921875E-07;0,94970703125;3;179;3,55429463088512E-06;-3,92967000603676E-06;1 µA
1,0009765625;96,957849755205;3,5491943359375E-07;1,00006103515625;3;180;3,55429463088512E-06;-3,92967000603676E-06;1 µA
0,950927734375;97,4583377539414;3,36029052734375E-07;0,94940185546875;3;181;3,55429463088512E-06;-3,92967000603676E-06;1 µA
0,90087890625;97,9588257526777;3,1781005859375E-07;0,899658203125;3;182;3,55429463088512E-06;-3,92967000603676E-06;1 µA
0,850830078125;98,4593137514141;2,99896240234375E-07;0,8502197265625;3;183;3,55429463088512E-06;-3,92967000603676E-06;1 µA
0,80078125;98,9598017501505;2,82073974609375E-07;0,79986572265625;3;184;3,55429463088512E-06;-3,92967000603676E-06;1 µA
0,750732421875;99,4602897488869;2,64373779296875E-07;0,74981689453125;3;185;3,55429463088512E-06;-3,92967000603676E-06;1 µA
0,70068359375;99,9607777476233;2,46673583984375E-07;0,699920654296875;3;186;3,55429463088512E-06;-3,92967000603676E-06;1 µA
0,650634765625;100,46126574636;2,29034423828125E-07;0,6500244140625;3;187;3,55429463088512E-06;-3,92967000603676E-06;1 µA
0,6005859375;100,961753745096;2,11334228515625E-07;0,60009765625;3;188;3,55429463088512E-06;-3,92967000603676E-06;1 µA
0,550537109375;101,462241743832;1,93603515625E-07;0,550079345703125;3;189;3,55429463088512E-06;-3,92967000603676E-06;1 µA
0,50048828125;101,962729742569;1,759033203125E-07;0,500152587890625;3;190;3,55429463088512E-06;-3,92967000603676E-06;1 µA
0,450439453125;102,463217741305;1,5814208984375E-07;0,450103759765625;3;191;3,55429463088512E-06;-3,92967000603676E-06;1 µA
0,400390625;102,963705740042;1,405029296875E-07;0,40008544921875;3;192;3,55429463088512E-06;-3,92967000603676E-06;1 µA
0,350341796875;103,464193738778;1,22650146484375E-07;0,35015869140625;3;193;3,55429463088512E-06;-3,92967000603676E-06;1 µA
0,30029296875;103,964681737514;1,04766845703125E-07;0,30010986328125;3;194;3,55429463088512E-06;-3,92967000603676E-06;1 µA
0,250244140625;104,465169736251;8,69140625E-08;0,250091552734375;3;195;3,55429463088512E-06;-3,92967000603676E-06;1 µA
0,2001953125;104,965657734987;6,89697265625E-08;0,200103759765625;3;196;3,55429463088512E-06;-3,92967000603676E-06;1 µA
0,150146484375;105,466145733724;5,0201416015625E-08;0,150115966796875;3;197;3,55429463088512E-06;-3,92967000603676E-06;1 µA
0,10009765625;105,96663373246;2,96630859375E-08;0,10009765625;3;198;3,55429463088512E-06;-3,92967000603676E-06;1 µA
0,050048828125;106,467121731196;1,2091064453125E-08;0,05010986328125;3;199;3,55429463088512E-06;-3,92967000603676E-06;1 µA
0;106,967609729933;-4,8126220703125E-09;0,000149536132812503;3;200;3,55429463088512E-06;-3,92967000603676E-06;100 nA
-0,050048828125;107,468097728669;-2,30224609375E-08;-0,04969482421875;3;201;3,55429463088512E-06;-3,92967000603676E-06;100 nA
-0,10009765625;107,968585727406;-4,180908203125E-08;-0,099639892578125;3;202;3,55429463088512E-06;-3,92967000603676E-06;100 nA
-0,150146484375;108,469073726142;-6,121826171875E-08;-0,1494140625;3;203;3,55429463088512E-06;-3,92967000603676E-06;100 nA
-0,2001953125;108,969561724878;-8,06884765625E-08;-0,199310302734375;3;204;3,55429463088512E-06;-3,92967000603676E-06;100 nA
-0,250244140625;109,470049723615;-1,00555419921875E-07;-0,249176025390625;3;205;3,55429463088512E-06;-3,92967000603676E-06;100 nA
-0,30029296875;109,970537722351;-1,202392578125E-07;-0,29901123046875;3;206;3,55429463088512E-06;-3,92967000603676E-06;100 nA
-0,350341796875;110,471025721087;-1,3946533203125E-07;-0,3489990234375;3;207;3,55429463088512E-06;-3,92967000603676E-06;100 nA
-0,400390625;110,971513719824;-1,58416748046875E-07;-0,3988037109375;3;208;3,55429463088512E-06;-3,92967000603676E-06;100 nA
-0,450439453125;111,47200171856;-1,77825927734375E-07;-0,44866943359375;3;209;3,55429463088512E-06;-3,92967000603676E-06;100 nA
-0,50048828125;111,972489717297;-1,97509765625E-07;-0,498565673828125;3;210;3,55429463088512E-06;-3,92967000603676E-06;100 nA
-0,550537109375;112,472977716033;-2,171630859375E-07;-0,548370361328125;3;211;3,55429463088512E-06;-3,92967000603676E-06;100 nA
-0,6005859375;112,973465714769;-2,36602783203125E-07;-0,598236083984375;3;212;3,55429463088512E-06;-3,92967000603676E-06;100 nA
-0,650634765625;113,473953713506;-2,5592041015625E-07;-0,648101806640625;3;213;3,55429463088512E-06;-3,92967000603676E-06;100 nA
-0,70068359375;113,974441712242;-2,75238037109375E-07;-0,697967529296875;3;214;3,55429463088512E-06;-3,92967000603676E-06;100 nA
-0,750732421875;114,474929710979;-2,94677734375E-07;-0,748016357421875;3;215;3,55429463088512E-06;-3,92967000603676E-06;100 nA
-0,80078125;114,975417709715;-3,14300537109375E-07;-0,79833984375;3;216;3,55429463088512E-06;-3,92967000603676E-06;100 nA
-0,850830078125;115,475905708451;-3,33587646484375E-07;-0,84869384765625;3;217;3,55429463088512E-06;-3,92967000603676E-06;1 µA
-0,90087890625;115,976393707188;-3,5333251953125E-07;-0,89874267578125;3;218;3,55429463088512E-06;-3,92967000603676E-06;1 µA
-0,950927734375;116,476881705924;-3,73199462890625E-07;-0,94879150390625;3;219;3,55429463088512E-06;-3,92967000603676E-06;1 µA
-1,0009765625;116,977369704661;-3,9312744140625E-07;-0,99884033203125;3;220;3,55429463088512E-06;-3,92967000603676E-06;1 µA
-0,950927734375;117,477857703397;-3,731689453125E-07;-0,9490966796875;3;221;3,55429463088512E-06;-3,92967000603676E-06;1 µA
-0,90087890625;117,978345702133;-3,53485107421875E-07;-0,8990478515625;3;222;3,55429463088512E-06;-3,92967000603676E-06;1 µA
-0,850830078125;118,47883370087;-3,3392333984375E-07;-0,8489990234375;3;223;3,55429463088512E-06;-3,92967000603676E-06;1 µA
-0,80078125;118,979321699606;-3,1439208984375E-07;-0,79833984375;3;224;3,55429463088512E-06;-3,92967000603676E-06;1 µA
-0,750732421875;119,479809698342;-2,94830322265625E-07;-0,74859619140625;3;225;3,55429463088512E-06;-3,92967000603676E-06;1 µA
-0,70068359375;119,980297697079;-2,752685546875E-07;-0,6986083984375;3;226;3,55429463088512E-06;-3,92967000603676E-06;1 µA
-0,650634765625;120,480785695815;-2,55615234375E-07;-0,648590087890625;3;227;3,55429463088512E-06;-3,92967000603676E-06;1 µA
-0,6005859375;120,981273694552;-2,359619140625E-07;-0,5986328125;3;228;3,55429463088512E-06;-3,92967000603676E-06;1 µA
-0,550537109375;121,481761693288;-2,16064453125E-07;-0,548797607421875;3;229;3,55429463088512E-06;-3,92967000603676E-06;1 µA
-0,50048828125;121,982249692024;-1,9598388671875E-07;-0,49884033203125;3;230;3,55429463088512E-06;-3,92967000603676E-06;1 µA
-0,450439453125;122,482737690761;-1,7578125E-07;-0,448974609375;3;231;3,55429463088512E-06;-3,92967000603676E-06;1 µA
-0,400390625;122,983225689497;-1,55670166015625E-07;-0,399139404296875;3;232;3,55429463088512E-06;-3,92967000603676E-06;1 µA
-0,350341796875;123,483713688234;-1,35528564453125E-07;-0,349212646484375;3;233;3,55429463088512E-06;-3,92967000603676E-06;1 µA
-0,30029296875;123,98420168697;-1,1492919921875E-07;-0,299285888671875;3;234;3,55429463088512E-06;-3,92967000603676E-06;1 µA
-0,250244140625;124,484689685706;-9,417724609375E-08;-0,249359130859375;3;235;3,55429463088512E-06;-3,92967000603676E-06;1 µA
-0,2001953125;124,985177684443;-7,3150634765625E-08;-0,199493408203125;3;236;3,55429463088512E-06;-3,92967000603676E-06;1 µA
-0,150146484375;125,485665683179;-5,316162109375E-08;-0,14959716796875;3;237;3,55429463088512E-06;-3,92967000603676E-06;1 µA
-0,10009765625;125,986153681916;-3,3599853515625E-08;-0,09967041015625;3;238;3,55429463088512E-06;-3,92967000603676E-06;1 µA
-0,050048828125;126,486641680652;-1,42669677734375E-08;-0,049835205078125;3;239;3,55429463088512E-06;-3,92967000603676E-06;1 µA
0;126,987129679388;4,5989990234375E-09;0,0001373291015625;3;240;3,55429463088512E-06;-3,92967000603676E-06;100 nA
0,050048828125;127,487617678125;2,34344482421875E-08;0,050048828125;4;241;3,55311550199985E-06;-3,930369541049E-06;100 nA
0,10009765625;127,988105676861;4,1900634765625E-08;0,099945068359375;4;242;3,55311550199985E-06;-3,930369541049E-06;100 nA
0,150146484375;128,488593675597;6,0150146484375E-08;0,14996337890625;4;243;3,55311550199985E-06;-3,930369541049E-06;100 nA
0,2001953125;128,989081674334;7,65380859375E-08;0,199920654296875;4;244;3,55311550199985E-06;-3,930369541049E-06;100 nA
0,250244140625;129,48956967307;9,320068359375E-08;0,2498779296875;4;245;3,55311550199985E-06;-3,930369541049E-06;100 nA
0,30029296875;129,990057671807;1,10137939453125E-07;0,29986572265625;4;246;3,55311550199985E-06;-3,930369541049E-06;100 nA
0,350341796875;130,490545670543;1,270751953125E-07;0,349945068359375;4;247;3,55311550199985E-06;-3,930369541049E-06;100 nA
0,400390625;130,991033669279;1,4410400390625E-07;0,399810791015625;4;248;3,55311550199985E-06;-3,930369541049E-06;100 nA
0,450439453125;131,491521668016;1,6119384765625E-07;0,4498291015625;4;249;3,55311550199985E-06;-3,930369541049E-06;100 nA
0,50048828125;131,992009666752;1,78466796875E-07;0,499725341796875;4;250;3,55311550199985E-06;-3,930369541049E-06;100 nA
0,550537109375;132,492497665489;1,95831298828125E-07;0,5496826171875;4;251;3,55311550199985E-06;-3,930369541049E-06;100 nA
0,6005859375;132,992985664225;2,132568359375E-07;0,599639892578125;4;252;3,55311550199985E-06;-3,930369541049E-06;100 nA
0,650634765625;133,493473662961;2,30804443359375E-07;0,649566650390625;4;253;3,55311550199985E-06;-3,930369541049E-06;100 nA
0,70068359375;133,993961661698;2,48321533203125E-07;0,69940185546875;4;254;3,55311550199985E-06;-3,930369541049E-06;100 nA
0,750732421875;134,494449660434;2,6580810546875E-07;0,749298095703125;4;255;3,55311550199985E-06;-3,930369541049E-06;100 nA
0,80078125;134,994937659171;2,833251953125E-07;0,799560546875;4;256;3,55311550199985E-06;-3,930369541049E-06;100 nA
0,850830078125;135,495425657907;3,0096435546875E-07;0,84991455078125;4;257;3,55311550199985E-06;-3,930369541049E-06;100 nA
0,90087890625;135,995913656643;3,18756103515625E-07;0,89996337890625;4;258;3,55311550199985E-06;-3,930369541049E-06;1 µA
0,950927734375;136,49640165538;3,36761474609375E-07;0,94940185546875;4;259;3,55311550199985E-06;-3,930369541049E-06;1 µA
1,0009765625;136,996889654116;3,548583984375E-07;0,999755859375;4;260;3,55311550199985E-06;-3,930369541049E-06;1 µA
0,950927734375;137,497377652852;3,359375E-07;0,94970703125;4;261;3,55311550199985E-06;-3,930369541049E-06;1 µA
0,90087890625;137,997865651589;3,177490234375E-07;0,899658203125;4;262;3,55311550199985E-06;-3,930369541049E-06;1 µA
0,850830078125;138,498353650325;2,99835205078125E-07;0,8502197265625;4;263;3,55311550199985E-06;-3,930369541049E-06;1 µA
0,80078125;138,998841649062;2,81951904296875E-07;0,8001708984375;4;264;3,55311550199985E-06;-3,930369541049E-06;1 µA
0,750732421875;139,499329647798;2,6422119140625E-07;0,7498779296875;4;265;3,55311550199985E-06;-3,930369541049E-06;1 µA
0,70068359375;139,999817646534;2,4658203125E-07;0,699920654296875;4;266;3,55311550199985E-06;-3,930369541049E-06;1 µA
0,650634765625;140,500305645271;2,2894287109375E-07;0,649993896484375;4;267;3,55311550199985E-06;-3,930369541049E-06;1 µA
0,6005859375;141,000793644007;2,11273193359375E-07;0,60009765625;4;268;3,55311550199985E-06;-3,930369541049E-06;1 µA
0,550537109375;141,501281642744;1,93603515625E-07;0,550079345703125;4;269;3,55311550199985E-06;-3,930369541049E-06;1 µA
0,50048828125;142,00176964148;1,75933837890625E-07;0,50006103515625;4;270;3,55311550199985E-06;-3,930369541049E-06;1 µA
0,450439453125;142,502257640216;1,58203125E-07;0,450103759765625;4;271;3,55311550199985E-06;-3,930369541049E-06;1 µA
0,400390625;143,002745638953;1,40411376953125E-07;0,400115966796875;4;272;3,55311550199985E-06;-3,930369541049E-06;1 µA
0,350341796875;143,503233637689;1,22650146484375E-07;0,350128173828125;4;273;3,55311550199985E-06;-3,930369541049E-06;1 µA
0,30029296875;144,003721636426;1,04705810546875E-07;0,300079345703125;4;274;3,55311550199985E-06;-3,930369541049E-06;1 µA
0,250244140625;144,504209635162;8,69140625E-08;0,2501220703125;4;275;3,55311550199985E-06;-3,930369541049E-06;1 µA
0,2001953125;145,004697633898;6,89697265625E-08;0,200103759765625;4;276;3,55311550199985E-06;-3,930369541049E-06;1 µA
0,150146484375;145,505185632635;5,0140380859375E-08;0,150054931640625;4;277;3,55311550199985E-06;-3,930369541049E-06;1 µA
0,10009765625;146,005673631371;2,9632568359375E-08;0,10009765625;4;278;3,55311550199985E-06;-3,930369541049E-06;1 µA
0,050048828125;146,506161630108;1,201171875E-08;0,050079345703125;4;279;3,55311550199985E-06;-3,930369541049E-06;1 µA
0;147,006649628844;-4,8583984375E-09;0,000149536132812503;4;280;3,55311550199985E-06;-3,930369541049E-06;100 nA
-0,050048828125;147,50713762758;-2,3028564453125E-08;-0,0497039794921875;4;281;3,55311550199985E-06;-3,930369541049E-06;100 nA
-0,10009765625;148,007625626317;-4,1839599609375E-08;-0,099578857421875;4;282;3,55311550199985E-06;-3,930369541049E-06;100 nA
-0,150146484375;148,508113625053;-6,121826171875E-08;-0,14947509765625;4;283;3,55311550199985E-06;-3,930369541049E-06;100 nA
-0,2001953125;149,008601623789;-8,0718994140625E-08;-0,199310302734375;4;284;3,55311550199985E-06;-3,930369541049E-06;100 nA
-0,250244140625;149,509089622526;-1,005859375E-07;-0,24920654296875;4;285;3,55311550199985E-06;-3,930369541049E-06;100 nA
-0,30029296875;150,009577621262;-1,2030029296875E-07;-0,29901123046875;4;286;3,55311550199985E-06;-3,930369541049E-06;100 nA
-0,350341796875;150,510065619999;-1,395263671875E-07;-0,348968505859375;4;287;3,55311550199985E-06;-3,930369541049E-06;100 nA
-0,400390625;151,010553618735;-1,58477783203125E-07;-0,3988037109375;4;288;3,55311550199985E-06;-3,930369541049E-06;100 nA
-0,450439453125;151,511041617471;-1,77825927734375E-07;-0,44866943359375;4;289;3,55311550199985E-06;-3,930369541049E-06;100 nA
-0,50048828125;152,011529616208;-1,97509765625E-07;-0,49847412109375;4;290;3,55311550199985E-06;-3,930369541049E-06;100 nA
-0,550537109375;152,512017614944;-2,171630859375E-07;-0,548370361328125;4;291;3,55311550199985E-06;-3,930369541049E-06;100 nA
-0,6005859375;153,012505613681;-2,366943359375E-07;-0,598236083984375;4;292;3,55311550199985E-06;-3,930369541049E-06;100 nA
-0,650634765625;153,512993612417;-2,559814453125E-07;-0,648101806640625;4;293;3,55311550199985E-06;-3,930369541049E-06;100 nA
-0,70068359375;154,013481611153;-2,752685546875E-07;-0,698089599609375;4;294;3,55311550199985E-06;-3,930369541049E-06;100 nA
-0,750732421875;154,51396960989;-2,9473876953125E-07;-0,748016357421875;4;295;3,55311550199985E-06;-3,930369541049E-06;100 nA
-0,80078125;155,014457608626;-3,143310546875E-07;-0,7989501953125;4;296;3,55311550199985E-06;-3,930369541049E-06;100 nA
-0,850830078125;155,514945607363;-3,33648681640625E-07;-0,8489990234375;4;297;3,55311550199985E-06;-3,930369541049E-06;1 µA
-0,90087890625;156,015433606099;-3,53515625E-07;-0,89874267578125;4;298;3,55311550199985E-06;-3,930369541049E-06;1 µA
-0,950927734375;156,515921604835;-3,73382568359375E-07;-0,94879150390625;4;299;3,55311550199985E-06;-3,930369541049E-06;1 µA
-1,0009765625;157,016409603572;-3,93280029296875E-07;-0,9991455078125;4;300;3,55311550199985E-06;-3,930369541049E-06;1 µA
-0,950927734375;157,516897602308;-3,7322998046875E-07;-0,94879150390625;4;301;3,55311550199985E-06;-3,930369541049E-06;1 µA
-0,90087890625;158,017385601044;-3,53485107421875E-07;-0,8990478515625;4;302;3,55311550199985E-06;-3,930369541049E-06;1 µA
-0,850830078125;158,517873599781;-3,3404541015625E-07;-0,8489990234375;4;303;3,55311550199985E-06;-3,930369541049E-06;1 µA
-0,80078125;159,018361598517;-3,14422607421875E-07;-0,79864501953125;4;304;3,55311550199985E-06;-3,930369541049E-06;1 µA
-0,750732421875;159,518849597254;-2,94952392578125E-07;-0,74859619140625;4;305;3,55311550199985E-06;-3,930369541049E-06;1 µA
-0,70068359375;160,01933759599;-2,7545166015625E-07;-0,698577880859375;4;306;3,55311550199985E-06;-3,930369541049E-06;1 µA
-0,650634765625;160,519825594726;-2,5567626953125E-07;-0,648590087890625;4;307;3,55311550199985E-06;-3,930369541049E-06;1 µA
-0,6005859375;161,020313593463;-2,36053466796875E-07;-0,59869384765625;4;308;3,55311550199985E-06;-3,930369541049E-06;1 µA
-0,550537109375;161,520801592199;-2,16156005859375E-07;-0,548736572265625;4;309;3,55311550199985E-06;-3,930369541049E-06;1 µA
-0,50048828125;162,021289590936;-1,95953369140625E-07;-0,498931884765625;4;310;3,55311550199985E-06;-3,930369541049E-06;1 µA
-0,450439453125;162,521777589672;-1,75811767578125E-07;-0,448944091796875;4;311;3,55311550199985E-06;-3,930369541049E-06;1 µA
-0,400390625;163,022265588408;-1,55731201171875E-07;-0,3990478515625;4;312;3,55311550199985E-06;-3,930369541049E-06;1 µA
-0,350341796875;163,522753587145;-1,35498046875E-07;-0,349151611328125;4;313;3,55311550199985E-06;-3,930369541049E-06;1 µA
-0,30029296875;164,023241585881;-1,14837646484375E-07;-0,29931640625;4;314;3,55311550199985E-06;-3,930369541049E-06;1 µA
-0,250244140625;164,523729584618;-9,3963623046875E-08;-0,249359130859375;4;315;3,55311550199985E-06;-3,930369541049E-06;1 µA
-0,2001953125;165,024217583354;-7,31201171875E-08;-0,199493408203125;4;316;3,55311550199985E-06;-3,930369541049E-06;1 µA
-0,150146484375;165,52470558209;-5,303955078125E-08;-0,14959716796875;4;317;3,55311550199985E-06;-3,930369541049E-06;1 µA
-0,10009765625;166,025193580827;-3,3538818359375E-08;-0,0997314453125;4;318;3,55311550199985E-06;-3,930369541049E-06;1 µA
-0,050048828125;166,525681579563;-1,4208984375E-08;-0,049835205078125;4;319;3,55311550199985E-06;-3,930369541049E-06;1 µA
0;167,026169578299;4,7393798828125E-09;0,000152587890625;4;320;3,55311550199985E-06;-3,930369541049E-06;100 nA
0,050048828125;167,526657577036;2,3553466796875E-08;0,050048828125;5;321;3,55173170566559E-06;-3,92783105373383E-06;100 nA
0,10009765625;168,027145575772;4,19921875E-08;0,100006103515625;5;322;3,55173170566559E-06;-3,92783105373383E-06;100 nA
0,150146484375;168,527633574509;6,024169921875E-08;0,14996337890625;5;323;3,55173170566559E-06;-3,92783105373383E-06;100 nA
0,2001953125;169,028121573245;7,672119140625E-08;0,199951171875;5;324;3,55173170566559E-06;-3,92783105373383E-06;100 nA
0,250244140625;169,528609571981;9,3414306640625E-08;0,24993896484375;5;325;3,55173170566559E-06;-3,92783105373383E-06;100 nA
0,30029296875;170,029097570718;1,1029052734375E-07;0,299896240234375;5;326;3,55173170566559E-06;-3,92783105373383E-06;100 nA
0,350341796875;170,529585569454;1,27197265625E-07;0,34991455078125;5;327;3,55173170566559E-06;-3,92783105373383E-06;100 nA
0,400390625;171,030073568191;1,44195556640625E-07;0,39990234375;5;328;3,55173170566559E-06;-3,92783105373383E-06;100 nA
0,450439453125;171,530561566927;1,61285400390625E-07;0,449859619140625;5;329;3,55173170566559E-06;-3,92783105373383E-06;100 nA
0,50048828125;172,031049565663;1,78497314453125E-07;0,49981689453125;5;330;3,55173170566559E-06;-3,92783105373383E-06;100 nA
0,550537109375;172,5315375644;1,9586181640625E-07;0,549713134765625;5;331;3,55173170566559E-06;-3,92783105373383E-06;100 nA
0,6005859375;173,032025563136;2,132568359375E-07;0,599700927734375;5;332;3,55173170566559E-06;-3,92783105373383E-06;100 nA
0,650634765625;173,532513561873;2,30712890625E-07;0,649566650390625;5;333;3,55173170566559E-06;-3,92783105373383E-06;100 nA
0,70068359375;174,033001560609;2,48199462890625E-07;0,699432373046875;5;334;3,55173170566559E-06;-3,92783105373383E-06;100 nA
0,750732421875;174,533489559345;2,65716552734375E-07;0,74920654296875;5;335;3,55173170566559E-06;-3,92783105373383E-06;100 nA
0,80078125;175,033977558082;2,83233642578125E-07;0,8001708984375;5;336;3,55173170566559E-06;-3,92783105373383E-06;100 nA
0,850830078125;175,534465556818;3,0078125E-07;0,8502197265625;5;337;3,55173170566559E-06;-3,92783105373383E-06;100 nA
0,90087890625;176,034953555554;3,18634033203125E-07;0,899658203125;5;338;3,55173170566559E-06;-3,92783105373383E-06;1 µA
0,950927734375;176,535441554291;3,365478515625E-07;0,94940185546875;5;339;3,55173170566559E-06;-3,92783105373383E-06;1 µA
1,0009765625;177,035929553027;3,54644775390625E-07;0,999755859375;5;340;3,55173170566559E-06;-3,92783105373383E-06;1 µA
0,950927734375;177,536417551764;3,35784912109375E-07;0,95001220703125;5;341;3,55173170566559E-06;-3,92783105373383E-06;1 µA
0,90087890625;178,0369055505;3,1756591796875E-07;0,89996337890625;5;342;3,55173170566559E-06;-3,92783105373383E-06;1 µA
0,850830078125;178,537393549236;2,99652099609375E-07;0,84991455078125;5;343;3,55173170566559E-06;-3,92783105373383E-06;1 µA
0,80078125;179,037881547973;2,81829833984375E-07;0,79986572265625;5;344;3,55173170566559E-06;-3,92783105373383E-06;1 µA
0,750732421875;179,538369546709;2,64129638671875E-07;0,749847412109375;5;345;3,55173170566559E-06;-3,92783105373383E-06;1 µA
0,70068359375;180,038857545446;2,4639892578125E-07;0,699981689453125;5;346;3,55173170566559E-06;-3,92783105373383E-06;1 µA
0,650634765625;180,539345544182;2,2869873046875E-07;0,650054931640625;5;347;3,55173170566559E-06;-3,92783105373383E-06;1 µA
0,6005859375;181,039833542918;2,1099853515625E-07;0,600067138671875;5;348;3,55173170566559E-06;-3,92783105373383E-06;1 µA
0,550537109375;181,540321541655;1,93328857421875E-07;0,55010986328125;5;349;3,55173170566559E-06;-3,92783105373383E-06;1 µA
0,50048828125;182,040809540391;1,75689697265625E-07;0,50006103515625;5;350;3,55173170566559E-06;-3,92783105373383E-06;1 µA
0,450439453125;182,541297539128;1,5802001953125E-07;0,45013427734375;5;351;3,55173170566559E-06;-3,92783105373383E-06;1 µA
0,400390625;183,041785537864;1,4031982421875E-07;0,400054931640625;5;352;3,55173170566559E-06;-3,92783105373383E-06;1 µA
0,350341796875;183,5422735366;1,22467041015625E-07;0,35009765625;5;353;3,55173170566559E-06;-3,92783105373383E-06;1 µA
0,30029296875;184,042761535337;1,04644775390625E-07;0,300048828125;5;354;3,55173170566559E-06;-3,92783105373383E-06;1 µA
0,250244140625;184,543249534073;8,67919921875E-08;0,250091552734375;5;355;3,55173170566559E-06;-3,92783105373383E-06;1 µA
0,2001953125;185,043737532809;6,8878173828125E-08;0,2000732421875;5;356;3,55173170566559E-06;-3,92783105373383E-06;1 µA
0,150146484375;185,544225531546;5,010986328125E-08;0,150115966796875;5;357;3,55173170566559E-06;-3,92783105373383E-06;1 µA
0,10009765625;186,044713530282;2,9632568359375E-08;0,100128173828125;5;358;3,55173170566559E-06;-3,92783105373383E-06;1 µA
0,050048828125;186,545201529019;1,197509765625E-08;0,050140380859375;5;359;3,55173170566559E-06;-3,92783105373383E-06;1 µA
0;187,045689527755;-4,8187255859375E-09;0,000155639648437497;5;360;3,55173170566559E-06;-3,92783105373383E-06;100 nA
-0,050048828125;187,546177526491;-2,2955322265625E-08;-0,049688720703125;5;361;3,55173170566559E-06;-3,92783105373383E-06;100 nA
-0,10009765625;188,046665525228;-4,1717529296875E-08;-0,099578857421875;5;362;3,55173170566559E-06;-3,92783105373383E-06;100 nA
-0,150146484375;188,547153523964;-6,11572265625E-08;-0,149444580078125;5;363;3,55173170566559E-06;-3,92783105373383E-06;100 nA
-0,2001953125;189,047641522701;-8,056640625E-08;-0,1993408203125;5;364;3,55173170566559E-06;-3,92783105373383E-06;100 nA
-0,250244140625;189,548129521437;-1,00372314453125E-07;-0,249176025390625;5;365;3,55173170566559E-06;-3,92783105373383E-06;100 nA
-0,30029296875;190,048617520173;-1,2017822265625E-07;-0,299041748046875;5;366;3,55173170566559E-06;-3,92783105373383E-06;100 nA
-0,350341796875;190,54910551891;-1,392822265625E-07;-0,34893798828125;5;367;3,55173170566559E-06;-3,92783105373383E-06;100 nA
-0,400390625;191,049593517646;-1,58294677734375E-07;-0,39874267578125;5;368;3,55173170566559E-06;-3,92783105373383E-06;100 nA
-0,450439453125;191,550081516383;-1,77642822265625E-07;-0,448638916015625;5;369;3,55173170566559E-06;-3,92783105373383E-06;100 nA
-0,50048828125;192,050569515119;-1,9732666015625E-07;-0,498504638671875;5;370;3,55173170566559E-06;-3,92783105373383E-06;100 nA
-0,550537109375;192,551057513855;-2,1697998046875E-07;-0,548370361328125;5;371;3,55173170566559E-06;-3,92783105373383E-06;100 nA
-0,6005859375;193,051545512592;-2,36419677734375E-07;-0,598175048828125;5;372;3,55173170566559E-06;-3,92783105373383E-06;100 nA
-0,650634765625;193,552033511328;-2,557373046875E-07;-0,648040771484375;5;373;3,55173170566559E-06;-3,92783105373383E-06;100 nA
-0,70068359375;194,052521510064;-2,7496337890625E-07;-0,697998046875;5;374;3,55173170566559E-06;-3,92783105373383E-06;100 nA
-0,750732421875;194,553009508801;-2,9443359375E-07;-0,748016357421875;5;375;3,55173170566559E-06;-3,92783105373383E-06;100 nA
-0,80078125;195,053497507537;-3,1396484375E-07;-0,7989501953125;5;376;3,55173170566559E-06;-3,92783105373383E-06;100 nA
-0,850830078125;195,553985506274;-3,33343505859375E-07;-0,84869384765625;5;377;3,55173170566559E-06;-3,92783105373383E-06;1 µA
-0,90087890625;196,05447350501;-3,531494140625E-07;-0,8984375;5;378;3,55173170566559E-06;-3,92783105373383E-06;1 µA
-0,950927734375;196,554961503746;-3,73016357421875E-07;-0,94879150390625;5;379;3,55173170566559E-06;-3,92783105373383E-06;1 µA
-1,0009765625;197,055449502483;-3,9300537109375E-07;-0,99884033203125;5;380;3,55173170566559E-06;-3,92783105373383E-06;1 µA
-0,950927734375;197,555937501219;-3,72955322265625E-07;-0,948486328125;5;381;3,55173170566559E-06;-3,92783105373383E-06;1 µA
-0,90087890625;198,056425499956;-3,5333251953125E-07;-0,89935302734375;5;382;3,55173170566559E-06;-3,92783105373383E-06;1 µA
-0,850830078125;198,556913498692;-3,33831787109375E-07;-0,84869384765625;5;383;3,55173170566559E-06;-3,92783105373383E-06;1 µA
-0,80078125;199,057401497428;-3,14361572265625E-07;-0,7989501953125;5;384;3,55173170566559E-06;-3,92783105373383E-06;1 µA
-0,750732421875;199,557889496165;-2,94891357421875E-07;-0,748565673828125;5;385;3,55173170566559E-06;-3,92783105373383E-06;1 µA
-0,70068359375;200,058377494901;-2,7532958984375E-07;-0,6986083984375;5;386;3,55173170566559E-06;-3,92783105373383E-06;1 µA
-0,650634765625;200,558865493638;-2,55645751953125E-07;-0,648590087890625;5;387;3,55173170566559E-06;-3,92783105373383E-06;1 µA
-0,6005859375;201,059353492374;-2,359619140625E-07;-0,598602294921875;5;388;3,55173170566559E-06;-3,92783105373383E-06;1 µA
-0,550537109375;201,55984149111;-2,16156005859375E-07;-0,548736572265625;5;389;3,55173170566559E-06;-3,92783105373383E-06;1 µA
-0,50048828125;202,060329489847;-1,95953369140625E-07;-0,498870849609375;5;390;3,55173170566559E-06;-3,92783105373383E-06;1 µA
-0,450439453125;202,560817488583;-1,7584228515625E-07;-0,44891357421875;5;391;3,55173170566559E-06;-3,92783105373383E-06;1 µA
-0,400390625;203,061305487319;-1,55731201171875E-07;-0,399078369140625;5;392;3,55173170566559E-06;-3,92783105373383E-06;1 µA
-0,350341796875;203,561793486056;-1,35528564453125E-07;-0,349151611328125;5;393;3,55173170566559E-06;-3,92783105373383E-06;1 µA
-0,30029296875;204,062281484792;-1,14959716796875E-07;-0,299285888671875;5;394;3,55173170566559E-06;-3,92783105373383E-06;1 µA
-0,250244140625;204,562769483529;-9,405517578125E-08;-0,249359130859375;5;395;3,55173170566559E-06;-3,92783105373383E-06;1 µA
-0,2001953125;205,063257482265;-7,3150634765625E-08;-0,199432373046875;5;396;3,55173170566559E-06;-3,92783105373383E-06;1 µA
-0,150146484375;205,563745481001;-5,316162109375E-08;-0,149566650390625;5;397;3,55173170566559E-06;-3,92783105373383E-06;1 µA
-0,10009765625;206,064233479738;-3,3599853515625E-08;-0,09967041015625;5;398;3,55173170566559E-06;-3,92783105373383E-06;1 µA
-0,050048828125;206,564721478474;-1,42242431640625E-08;-0,0498046875;5;399;3,55173170566559E-06;-3,92783105373383E-06;1 µA
0;207,065209477211;4,638671875E-09;0,0001220703125;5;400;3,55173170566559E-06;-3,92783105373383E-06;100 nA
0,050048828125;207,565697475947;2,34619140625E-08;0,04998779296875;6;401;3,54982554912567E-06;-3,92838090658188E-06;100 nA
0,10009765625;208,066185474683;4,1900634765625E-08;0,0999755859375;6;402;3,54982554912567E-06;-3,92838090658188E-06;100 nA
0,150146484375;208,56667347342;6,01806640625E-08;0,14996337890625;6;403;3,54982554912567E-06;-3,92838090658188E-06;100 nA
0,2001953125;209,067161472156;7,6507568359375E-08;0,199920654296875;6;404;3,54982554912567E-06;-3,92838090658188E-06;100 nA
0,250244140625;209,567649470893;9,3170166015625E-08;0,249908447265625;6;405;3,54982554912567E-06;-3,92838090658188E-06;100 nA
0,30029296875;210,068137469629;1,10076904296875E-07;0,29986572265625;6;406;3,54982554912567E-06;-3,92838090658188E-06;100 nA
0,350341796875;210,568625468365;1,2701416015625E-07;0,34991455078125;6;407;3,54982554912567E-06;-3,92838090658188E-06;100 nA
0,400390625;211,069113467102;1,44012451171875E-07;0,39984130859375;6;408;3,54982554912567E-06;-3,92838090658188E-06;100 nA
0,450439453125;211,569601465838;1,6107177734375E-07;0,449737548828125;6;409;3,54982554912567E-06;-3,92838090658188E-06;100 nA
0,50048828125;212,070089464574;1,78314208984375E-07;0,49981689453125;6;410;3,54982554912567E-06;-3,92838090658188E-06;100 nA
0,550537109375;212,570577463311;1,95709228515625E-07;0,54974365234375;6;411;3,54982554912567E-06;-3,92838090658188E-06;100 nA
0,6005859375;213,071065462047;2,13104248046875E-07;0,59967041015625;6;412;3,54982554912567E-06;-3,92838090658188E-06;100 nA
0,650634765625;213,571553460784;2,305908203125E-07;0,649566650390625;6;413;3,54982554912567E-06;-3,92838090658188E-06;100 nA
0,70068359375;214,07204145952;2,48016357421875E-07;0,699432373046875;6;414;3,54982554912567E-06;-3,92838090658188E-06;100 nA
0,750732421875;214,572529458256;2,655029296875E-07;0,749267578125;6;415;3,54982554912567E-06;-3,92838090658188E-06;100 nA
0,80078125;215,073017456993;2,83050537109375E-07;0,79986572265625;6;416;3,54982554912567E-06;-3,92838090658188E-06;100 nA
0,850830078125;215,573505455729;3,00567626953125E-07;0,84991455078125;6;417;3,54982554912567E-06;-3,92838090658188E-06;100 nA
0,90087890625;216,073993454466;3,1842041015625E-07;0,89996337890625;6;418;3,54982554912567E-06;-3,92838090658188E-06;1 µA
0,950927734375;216,574481453202;3,36395263671875E-07;0,94970703125;6;419;3,54982554912567E-06;-3,92838090658188E-06;1 µA
1,0009765625;217,074969451938;3,544921875E-07;0,9991455078125;6;420;3,54982554912567E-06;-3,92838090658188E-06;1 µA
0,950927734375;217,575457450675;3,35662841796875E-07;0,94940185546875;6;421;3,54982554912567E-06;-3,92838090658188E-06;1 µA
0,90087890625;218,075945449411;3,1744384765625E-07;0,899658203125;6;422;3,54982554912567E-06;-3,92838090658188E-06;1 µA
0,850830078125;218,576433448148;2,99652099609375E-07;0,849609375;6;423;3,54982554912567E-06;-3,92838090658188E-06;1 µA
0,80078125;219,076921446884;2,81768798828125E-07;0,79986572265625;6;424;3,54982554912567E-06;-3,92838090658188E-06;1 µA
0,750732421875;219,57740944562;2,64007568359375E-07;0,74981689453125;6;425;3,54982554912567E-06;-3,92838090658188E-06;1 µA
0,70068359375;220,077897444357;2,4639892578125E-07;0,699920654296875;6;426;3,54982554912567E-06;-3,92838090658188E-06;1 µA
0,650634765625;220,578385443093;2,2869873046875E-07;0,650054931640625;6;427;3,54982554912567E-06;-3,92838090658188E-06;1 µA
0,6005859375;221,07887344183;2,11029052734375E-07;0,60009765625;6;428;3,54982554912567E-06;-3,92838090658188E-06;1 µA
0,550537109375;221,579361440566;1,93267822265625E-07;0,550079345703125;6;429;3,54982554912567E-06;-3,92838090658188E-06;1 µA
0,50048828125;222,079849439302;1,756591796875E-07;0,500091552734375;6;430;3,54982554912567E-06;-3,92838090658188E-06;1 µA
0,450439453125;222,580337438039;1,5802001953125E-07;0,450042724609375;6;431;3,54982554912567E-06;-3,92838090658188E-06;1 µA
0,400390625;223,080825436775;1,40350341796875E-07;0,400054931640625;6;432;3,54982554912567E-06;-3,92838090658188E-06;1 µA
0,350341796875;223,581313435511;1,2255859375E-07;0,35015869140625;6;433;3,54982554912567E-06;-3,92838090658188E-06;1 µA
0,30029296875;224,081801434248;1,04644775390625E-07;0,300048828125;6;434;3,54982554912567E-06;-3,92838090658188E-06;1 µA
0,250244140625;224,582289432984;8,6822509765625E-08;0,2501220703125;6;435;3,54982554912567E-06;-3,92838090658188E-06;1 µA
0,2001953125;225,082777431721;6,8878173828125E-08;0,2000732421875;6;436;3,54982554912567E-06;-3,92838090658188E-06;1 µA
0,150146484375;225,583265430457;5,0079345703125E-08;0,15008544921875;6;437;3,54982554912567E-06;-3,92838090658188E-06;1 µA
0,10009765625;226,083753429193;2,9632568359375E-08;0,10003662109375;6;438;3,54982554912567E-06;-3,92838090658188E-06;1 µA
0,050048828125;226,58424142793;1,1932373046875E-08;0,050079345703125;6;439;3,54982554912567E-06;-3,92838090658188E-06;1 µA
0;227,084729426666;-4,864501953125E-09;0,000140380859374997;6;440;3,54982554912567E-06;-3,92838090658188E-06;100 nA
-0,050048828125;227,585217425403;-2,30499267578125E-08;-0,049688720703125;6;441;3,54982554912567E-06;-3,92838090658188E-06;100 nA
-0,10009765625;228,085705424139;-4,1778564453125E-08;-0,099578857421875;6;442;3,54982554912567E-06;-3,92838090658188E-06;100 nA
-0,150146484375;228,586193422875;-6,109619140625E-08;-0,14947509765625;6;443;3,54982554912567E-06;-3,92838090658188E-06;100 nA
-0,2001953125;229,086681421612;-8,056640625E-08;-0,19927978515625;6;444;3,54982554912567E-06;-3,92838090658188E-06;100 nA
-0,250244140625;229,587169420348;-1,00433349609375E-07;-0,2491455078125;6;445;3,54982554912567E-06;-3,92838090658188E-06;100 nA
-0,30029296875;230,087657419085;-1,20147705078125E-07;-0,299041748046875;6;446;3,54982554912567E-06;-3,92838090658188E-06;100 nA
-0,350341796875;230,588145417821;-1,3934326171875E-07;-0,34893798828125;6;447;3,54982554912567E-06;-3,92838090658188E-06;100 nA
-0,400390625;231,088633416557;-1,5826416015625E-07;-0,3988037109375;6;448;3,54982554912567E-06;-3,92838090658188E-06;100 nA
-0,450439453125;231,589121415294;-1,7767333984375E-07;-0,448577880859375;6;449;3,54982554912567E-06;-3,92838090658188E-06;100 nA
-0,50048828125;232,08960941403;-1,97265625E-07;-0,498443603515625;6;450;3,54982554912567E-06;-3,92838090658188E-06;100 nA
-0,550537109375;232,590097412766;-2,1697998046875E-07;-0,548309326171875;6;451;3,54982554912567E-06;-3,92838090658188E-06;100 nA
-0,6005859375;233,090585411503;-2,36358642578125E-07;-0,598175048828125;6;452;3,54982554912567E-06;-3,92838090658188E-06;100 nA
-0,650634765625;233,591073410239;-2,55706787109375E-07;-0,648040771484375;6;453;3,54982554912567E-06;-3,92838090658188E-06;100 nA
-0,70068359375;234,091561408976;-2,750244140625E-07;-0,697967529296875;6;454;3,54982554912567E-06;-3,92838090658188E-06;100 nA
-0,750732421875;234,592049407712;-2,94464111328125E-07;-0,747955322265625;6;455;3,54982554912567E-06;-3,92838090658188E-06;100 nA
-0,80078125;235,092537406448;-3,1402587890625E-07;-0,79833984375;6;456;3,54982554912567E-06;-3,92838090658188E-06;100 nA
-0,850830078125;235,593025405185;-3,33465576171875E-07;-0,84930419921875;6;457;3,54982554912567E-06;-3,92838090658188E-06;1 µA
-0,90087890625;236,093513403921;-3,531494140625E-07;-0,8984375;6;458;3,54982554912567E-06;-3,92838090658188E-06;1 µA
-0,950927734375;236,594001402658;-3,73046875E-07;-0,94879150390625;6;459;3,54982554912567E-06;-3,92838090658188E-06;1 µA
-1,0009765625;237,094489401394;-3,9300537109375E-07;-0,99884033203125;6;460;3,54982554912567E-06;-3,92838090658188E-06;1 µA
-0,950927734375;237,59497740013;-3,73046875E-07;-0,94879150390625;6;461;3,54982554912567E-06;-3,92838090658188E-06;1 µA
-0,90087890625;238,095465398867;-3,533935546875E-07;-0,8990478515625;6;462;3,54982554912567E-06;-3,92838090658188E-06;1 µA
-0,850830078125;238,595953397603;-3,33892822265625E-07;-0,848388671875;6;463;3,54982554912567E-06;-3,92838090658188E-06;1 µA
-0,80078125;239,09644139634;-3,1439208984375E-07;-0,79864501953125;6;464;3,54982554912567E-06;-3,92838090658188E-06;1 µA
-0,750732421875;239,596929395076;-2,94891357421875E-07;-0,74859619140625;6;465;3,54982554912567E-06;-3,92838090658188E-06;1 µA
-0,70068359375;240,097417393812;-2,75299072265625E-07;-0,698516845703125;6;466;3,54982554912567E-06;-3,92838090658188E-06;1 µA
-0,650634765625;240,597905392549;-2,5567626953125E-07;-0,648590087890625;6;467;3,54982554912567E-06;-3,92838090658188E-06;1 µA
-0,6005859375;241,098393391285;-2,3602294921875E-07;-0,598541259765625;6;468;3,54982554912567E-06;-3,92838090658188E-06;1 µA
-0,550537109375;241,598881390021;-2,16156005859375E-07;-0,548736572265625;6;469;3,54982554912567E-06;-3,92838090658188E-06;1 µA
-0,50048828125;242,099369388758;-1,96044921875E-07;-0,498809814453125;6;470;3,54982554912567E-06;-3,92838090658188E-06;1 µA
-0,450439453125;242,599857387494;-1,75872802734375E-07;-0,448974609375;6;471;3,54982554912567E-06;-3,92838090658188E-06;1 µA
-0,400390625;243,100345386231;-1,55792236328125E-07;-0,399017333984375;6;472;3,54982554912567E-06;-3,92838090658188E-06;1 µA
-0,350341796875;243,600833384967;-1,35589599609375E-07;-0,34912109375;6;473;3,54982554912567E-06;-3,92838090658188E-06;1 µA
-0,30029296875;244,101321383703;-1,15020751953125E-07;-0,299285888671875;6;474;3,54982554912567E-06;-3,92838090658188E-06;1 µA
-0,250244140625;244,60180938244;-9,4085693359375E-08;-0,2493896484375;6;475;3,54982554912567E-06;-3,92838090658188E-06;1 µA
-0,2001953125;245,102297381176;-7,318115234375E-08;-0,199462890625;6;476;3,54982554912567E-06;-3,92838090658188E-06;1 µA
-0,150146484375;245,602785379913;-5,3192138671875E-08;-0,149566650390625;6;477;3,54982554912567E-06;-3,92838090658188E-06;1 µA
-0,10009765625;246,103273378649;-3,3599853515625E-08;-0,0997314453125;6;478;3,54982554912567E-06;-3,92838090658188E-06;1 µA
-0,050048828125;246,603761377385;-1,42364501953125E-08;-0,0498046875;6;479;3,54982554912567E-06;-3,92838090658188E-06;1 µA
0;247,104249376122;4,656982421875E-09;0,000146484375000006;6;480;3,54982554912567E-06;-3,92838090658188E-06;100 nA
0,050048828125;247,604737374858;2,34771728515625E-08;0,050048828125;7;481;3,54972168803215E-06;-3,92819914966822E-06;100 nA
0,10009765625;248,105225373595;4,193115234375E-08;0,100067138671875;7;482;3,54972168803215E-06;-3,92819914966822E-06;100 nA
0,150146484375;248,605713372331;6,01806640625E-08;0,149871826171875;7;483;3,54972168803215E-06;-3,92819914966822E-06;100 nA
0,2001953125;249,106201371067;7,6568603515625E-08;0,19989013671875;7;484;3,54972168803215E-06;-3,92819914966822E-06;100 nA
0,250244140625;249,606689369804;9,320068359375E-08;0,2498779296875;7;485;3,54972168803215E-06;-3,92819914966822E-06;100 nA
0,30029296875;250,10717736854;1,10076904296875E-07;0,29986572265625;7;486;3,54972168803215E-06;-3,92819914966822E-06;100 nA
0,350341796875;250,607665367276;1,26953125E-07;0,3499755859375;7;487;3,54972168803215E-06;-3,92819914966822E-06;100 nA
0,400390625;251,108153366013;1,4398193359375E-07;0,399871826171875;7;488;3,54972168803215E-06;-3,92819914966822E-06;100 nA
0,450439453125;251,608641364749;1,61102294921875E-07;0,449798583984375;7;489;3,54972168803215E-06;-3,92819914966822E-06;100 nA
0,50048828125;252,109129363486;1,78314208984375E-07;0,499725341796875;7;490;3,54972168803215E-06;-3,92819914966822E-06;100 nA
0,550537109375;252,609617362222;1,95648193359375E-07;0,54962158203125;7;491;3,54972168803215E-06;-3,92819914966822E-06;100 nA
0,6005859375;253,110105360958;2,12982177734375E-07;0,59967041015625;7;492;3,54972168803215E-06;-3,92819914966822E-06;100 nA
0,650634765625;253,610593359695;2,30438232421875E-07;0,6495361328125;7;493;3,54972168803215E-06;-3,92819914966822E-06;100 nA
0,70068359375;254,111081358431;2,47955322265625E-07;0,699371337890625;7;494;3,54972168803215E-06;-3,92819914966822E-06;100 nA
0,750732421875;254,611569357168;2,6544189453125E-07;0,749176025390625;7;495;3,54972168803215E-06;-3,92819914966822E-06;100 nA
0,80078125;255,112057355904;2,82989501953125E-07;0,79986572265625;7;496;3,54972168803215E-06;-3,92819914966822E-06;100 nA
0,850830078125;255,61254535464;3,00567626953125E-07;0,85052490234375;7;497;3,54972168803215E-06;-3,92819914966822E-06;100 nA
0,90087890625;256,113033353377;3,18359375E-07;0,89996337890625;7;498;3,54972168803215E-06;-3,92819914966822E-06;1 µA
0,950927734375;256,613521352113;3,3642578125E-07;0,94940185546875;7;499;3,54972168803215E-06;-3,92819914966822E-06;1 µA
1,0009765625;257,11400935085;3,54461669921875E-07;0,999755859375;7;500;3,54972168803215E-06;-3,92819914966822E-06;1 µA
0,950927734375;257,614497349586;3,3563232421875E-07;0,94879150390625;7;501;3,54972168803215E-06;-3,92819914966822E-06;1 µA
0,90087890625;258,114985348322;3,173828125E-07;0,89996337890625;7;502;3,54972168803215E-06;-3,92819914966822E-06;1 µA
0,850830078125;258,615473347059;2,9949951171875E-07;0,8502197265625;7;503;3,54972168803215E-06;-3,92819914966822E-06;1 µA
0,80078125;259,115961345795;2,8179931640625E-07;0,79986572265625;7;504;3,54972168803215E-06;-3,92819914966822E-06;1 µA
0,750732421875;259,616449344531;2,6409912109375E-07;0,749847412109375;7;505;3,54972168803215E-06;-3,92819914966822E-06;1 µA
0,70068359375;260,116937343268;2,4639892578125E-07;0,69989013671875;7;506;3,54972168803215E-06;-3,92819914966822E-06;1 µA
0,650634765625;260,617425342004;2,2869873046875E-07;0,6500244140625;7;507;3,54972168803215E-06;-3,92819914966822E-06;1 µA
0,6005859375;261,117913340741;2,11029052734375E-07;0,600128173828125;7;508;3,54972168803215E-06;-3,92819914966822E-06;1 µA
0,550537109375;261,618401339477;1,93389892578125E-07;0,550140380859375;7;509;3,54972168803215E-06;-3,92819914966822E-06;1 µA
0,50048828125;262,118889338213;1,7572021484375E-07;0,50006103515625;7;510;3,54972168803215E-06;-3,92819914966822E-06;1 µA
0,450439453125;262,61937733695;1,58050537109375E-07;0,4500732421875;7;511;3,54972168803215E-06;-3,92819914966822E-06;1 µA
0,400390625;263,119865335686;1,40350341796875E-07;0,400115966796875;7;512;3,54972168803215E-06;-3,92819914966822E-06;1 µA
0,350341796875;263,620353334423;1,2255859375E-07;0,35015869140625;7;513;3,54972168803215E-06;-3,92819914966822E-06;1 µA
0,30029296875;264,120841333159;1,04736328125E-07;0,300140380859375;7;514;3,54972168803215E-06;-3,92819914966822E-06;1 µA
0,250244140625;264,621329331895;8,6883544921875E-08;0,25006103515625;7;515;3,54972168803215E-06;-3,92819914966822E-06;1 µA
0,2001953125;265,121817330632;6,8939208984375E-08;0,200103759765625;7;516;3,54972168803215E-06;-3,92819914966822E-06;1 µA
0,150146484375;265,622305329368;5,0140380859375E-08;0,150054931640625;7;517;3,54972168803215E-06;-3,92819914966822E-06;1 µA
0,10009765625;266,122793328105;2,960205078125E-08;0,10003662109375;7;518;3,54972168803215E-06;-3,92819914966822E-06;1 µA
0,050048828125;266,623281326841;1,19476318359375E-08;0,050079345703125;7;519;3,54972168803215E-06;-3,92819914966822E-06;1 µA
0;267,123769325577;-4,7882080078125E-09;0,000161743164062506;7;520;3,54972168803215E-06;-3,92819914966822E-06;100 nA
-0,050048828125;267,624257324314;-2,29461669921875E-08;-0,0497039794921875;7;521;3,54972168803215E-06;-3,92819914966822E-06;100 nA
-0,10009765625;268,12474532305;-4,1717529296875E-08;-0,099578857421875;7;522;3,54972168803215E-06;-3,92819914966822E-06;100 nA
-0,150146484375;268,625233321786;-6,109619140625E-08;-0,14947509765625;7;523;3,54972168803215E-06;-3,92819914966822E-06;100 nA
-0,2001953125;269,125721320523;-8,0596923828125E-08;-0,1993408203125;7;524;3,54972168803215E-06;-3,92819914966822E-06;100 nA
-0,250244140625;269,626209319259;-1,0040283203125E-07;-0,249176025390625;7;525;3,54972168803215E-06;-3,92819914966822E-06;100 nA
-0,30029296875;270,126697317996;-1,2017822265625E-07;-0,299072265625;7;526;3,54972168803215E-06;-3,92819914966822E-06;100 nA
-0,350341796875;270,627185316732;-1,39373779296875E-07;-0,348907470703125;7;527;3,54972168803215E-06;-3,92819914966822E-06;100 nA
-0,400390625;271,127673315468;-1,58294677734375E-07;-0,3988037109375;7;528;3,54972168803215E-06;-3,92819914966822E-06;100 nA
-0,450439453125;271,628161314205;-1,77642822265625E-07;-0,44866943359375;7;529;3,54972168803215E-06;-3,92819914966822E-06;100 nA
-0,50048828125;272,128649312941;-1,97296142578125E-07;-0,498443603515625;7;530;3,54972168803215E-06;-3,92819914966822E-06;100 nA
-0,550537109375;272,629137311678;-2,169189453125E-07;-0,54833984375;7;531;3,54972168803215E-06;-3,92819914966822E-06;100 nA
-0,6005859375;273,129625310414;-2,36297607421875E-07;-0,59820556640625;7;532;3,54972168803215E-06;-3,92819914966822E-06;100 nA
-0,650634765625;273,63011330915;-2,55584716796875E-07;-0,648040771484375;7;533;3,54972168803215E-06;-3,92819914966822E-06;100 nA
-0,70068359375;274,130601307887;-2,74871826171875E-07;-0,697998046875;7;534;3,54972168803215E-06;-3,92819914966822E-06;100 nA
-0,750732421875;274,631089306623;-2,94342041015625E-07;-0,747955322265625;7;535;3,54972168803215E-06;-3,92819914966822E-06;100 nA
-0,80078125;275,13157730536;-3,14056396484375E-07;-0,7989501953125;7;536;3,54972168803215E-06;-3,92819914966822E-06;100 nA
-0,850830078125;275,632065304096;-3,333740234375E-07;-0,848388671875;7;537;3,54972168803215E-06;-3,92819914966822E-06;1 µA
-0,90087890625;276,132553302832;-3,531494140625E-07;-0,89874267578125;7;538;3,54972168803215E-06;-3,92819914966822E-06;1 µA
-0,950927734375;276,633041301569;-3,7310791015625E-07;-0,94940185546875;7;539;3,54972168803215E-06;-3,92819914966822E-06;1 µA
-1,0009765625;277,133529300305;-3,9306640625E-07;-0,99853515625;7;540;3,54972168803215E-06;-3,92819914966822E-06;1 µA
-0,950927734375;277,634017299041;-3,73046875E-07;-0,9490966796875;7;541;3,54972168803215E-06;-3,92819914966822E-06;1 µA
-0,90087890625;278,134505297778;-3,53424072265625E-07;-0,8990478515625;7;542;3,54972168803215E-06;-3,92819914966822E-06;1 µA
-0,850830078125;278,634993296514;-3,338623046875E-07;-0,84869384765625;7;543;3,54972168803215E-06;-3,92819914966822E-06;1 µA
-0,80078125;279,135481295251;-3,143310546875E-07;-0,79833984375;7;544;3,54972168803215E-06;-3,92819914966822E-06;1 µA
-0,750732421875;279,635969293987;-2,94921875E-07;-0,74853515625;7;545;3,54972168803215E-06;-3,92819914966822E-06;1 µA
-0,70068359375;280,136457292723;-2,7532958984375E-07;-0,698516845703125;7;546;3,54972168803215E-06;-3,92819914966822E-06;1 µA
-0,650634765625;280,63694529146;-2,5567626953125E-07;-0,648590087890625;7;547;3,54972168803215E-06;-3,92819914966822E-06;1 µA
-0,6005859375;281,137433290196;-2,36053466796875E-07;-0,5986328125;7;548;3,54972168803215E-06;-3,92819914966822E-06;1 µA
-0,550537109375;281,637921288933;-2,16217041015625E-07;-0,548736572265625;7;549;3,54972168803215E-06;-3,92819914966822E-06;1 µA
-0,50048828125;282,138409287669;-1,9610595703125E-07;-0,498870849609375;7;550;3,54972168803215E-06;-3,92819914966822E-06;1 µA
-0,450439453125;282,638897286405;-1,7596435546875E-07;-0,448944091796875;7;551;3,54972168803215E-06;-3,92819914966822E-06;1 µA
-0,400390625;283,139385285142;-1,55792236328125E-07;-0,399078369140625;7;552;3,54972168803215E-06;-3,92819914966822E-06;1 µA
-0,350341796875;283,639873283878;-1,35650634765625E-07;-0,349212646484375;7;553;3,54972168803215E-06;-3,92819914966822E-06;1 µA
-0,30029296875;284,140361282615;-1,14990234375E-07;-0,29925537109375;7;554;3,54972168803215E-06;-3,92819914966822E-06;1 µA
-0,250244140625;284,640849281351;-9,41162109375E-08;-0,249359130859375;7;555;3,54972168803215E-06;-3,92819914966822E-06;1 µA
-0,2001953125;285,141337280087;-7,318115234375E-08;-0,199493408203125;7;556;3,54972168803215E-06;-3,92819914966822E-06;1 µA
-0,150146484375;285,641825278824;-5,3131103515625E-08;-0,149566650390625;7;557;3,54972168803215E-06;-3,92819914966822E-06;1 µA
-0,10009765625;286,14231327756;-3,3599853515625E-08;-0,0997314453125;7;558;3,54972168803215E-06;-3,92819914966822E-06;1 µA
-0,050048828125;286,642801276297;-1,42364501953125E-08;-0,0498046875;7;559;3,54972168803215E-06;-3,92819914966822E-06;1 µA
0;287,143289275033;4,60205078125E-09;0,000140380859374997;7;560;3,54972168803215E-06;-3,92819914966822E-06;100 nA
0,050048828125;287,643777273769;2,34588623046875E-08;0,050018310546875;8;561;3,54967128485441E-06;-3,92800517380238E-06;100 nA
0,10009765625;288,144265272506;4,18701171875E-08;0,10003662109375;8;562;3,54967128485441E-06;-3,92800517380238E-06;100 nA
0,150146484375;288,644753271242;6,0150146484375E-08;0,14990234375;8;563;3,54967128485441E-06;-3,92800517380238E-06;100 nA
0,2001953125;289,145241269978;7,647705078125E-08;0,19989013671875;8;564;3,54967128485441E-06;-3,92800517380238E-06;100 nA
0,250244140625;289,645729268715;9,307861328125E-08;0,249908447265625;8;565;3,54967128485441E-06;-3,92800517380238E-06;100 nA
0,30029296875;290,146217267451;1,0992431640625E-07;0,29986572265625;8;566;3,54967128485441E-06;-3,92800517380238E-06;100 nA
0,350341796875;290,646705266188;1,268310546875E-07;0,349853515625;8;567;3,54967128485441E-06;-3,92800517380238E-06;100 nA
0,400390625;291,147193264924;1,4385986328125E-07;0,39984130859375;8;568;3,54967128485441E-06;-3,92800517380238E-06;100 nA
0,450439453125;291,64768126366;1,610107421875E-07;0,44976806640625;8;569;3,54967128485441E-06;-3,92800517380238E-06;100 nA
0,50048828125;292,148169262397;1,78253173828125E-07;0,499755859375;8;570;3,54967128485441E-06;-3,92800517380238E-06;100 nA
0,550537109375;292,648657261133;1,95587158203125E-07;0,549652099609375;8;571;3,54967128485441E-06;-3,92800517380238E-06;100 nA
0,6005859375;293,14914525987;2,12982177734375E-07;0,599639892578125;8;572;3,54967128485441E-06;-3,92800517380238E-06;100 nA
0,650634765625;293,649633258606;2,30499267578125E-07;0,6495361328125;8;573;3,54967128485441E-06;-3,92800517380238E-06;100 nA
0,70068359375;294,150121257342;2,48016357421875E-07;0,69927978515625;8;574;3,54967128485441E-06;-3,92800517380238E-06;100 nA
0,750732421875;294,650609256079;2,6544189453125E-07;0,749267578125;8;575;3,54967128485441E-06;-3,92800517380238E-06;100 nA
0,80078125;295,151097254815;2,8302001953125E-07;0,799560546875;8;576;3,54967128485441E-06;-3,92800517380238E-06;100 nA
0,850830078125;295,651585253552;3,0059814453125E-07;0,84930419921875;8;577;3,54967128485441E-06;-3,92800517380238E-06;100 nA
0,90087890625;296,152073252288;3,1842041015625E-07;0,89935302734375;8;578;3,54967128485441E-06;-3,92800517380238E-06;1 µA
0,950927734375;296,652561251024;3,36334228515625E-07;0,94940185546875;8;579;3,54967128485441E-06;-3,92800517380238E-06;1 µA
1,0009765625;297,153049249761;3,54461669921875E-07;0,999755859375;8;580;3,54967128485441E-06;-3,92800517380238E-06;1 µA
0,950927734375;297,653537248497;3,3563232421875E-07;0,94970703125;8;581;3,54967128485441E-06;-3,92800517380238E-06;1 µA
0,90087890625;298,154025247233;3,17474365234375E-07;0,89996337890625;8;582;3,54967128485441E-06;-3,92800517380238E-06;1 µA
0,850830078125;298,65451324597;2,99560546875E-07;0,84991455078125;8;583;3,54967128485441E-06;-3,92800517380238E-06;1 µA
0,80078125;299,155001244706;2,8179931640625E-07;0,79986572265625;8;584;3,54967128485441E-06;-3,92800517380238E-06;1 µA
0,750732421875;299,655489243443;2,64129638671875E-07;0,749847412109375;8;585;3,54967128485441E-06;-3,92800517380238E-06;1 µA
0,70068359375;300,155977242179;2,46429443359375E-07;0,69989013671875;8;586;3,54967128485441E-06;-3,92800517380238E-06;1 µA
0,650634765625;300,656465240915;2,28790283203125E-07;0,650054931640625;8;587;3,54967128485441E-06;-3,92800517380238E-06;1 µA
0,6005859375;301,156953239652;2,1112060546875E-07;0,600067138671875;8;588;3,54967128485441E-06;-3,92800517380238E-06;1 µA
0,550537109375;301,657441238388;1,93450927734375E-07;0,550079345703125;8;589;3,54967128485441E-06;-3,92800517380238E-06;1 µA
0,50048828125;302,157929237125;1,75811767578125E-07;0,50006103515625;8;590;3,54967128485441E-06;-3,92800517380238E-06;1 µA
0,450439453125;302,658417235861;1,580810546875E-07;0,450103759765625;8;591;3,54967128485441E-06;-3,92800517380238E-06;1 µA
0,400390625;303,158905234597;1,40380859375E-07;0,40008544921875;8;592;3,54967128485441E-06;-3,92800517380238E-06;1 µA
0,350341796875;303,659393233334;1,2255859375E-07;0,350128173828125;8;593;3,54967128485441E-06;-3,92800517380238E-06;1 µA
0,30029296875;304,15988123207;1,04705810546875E-07;0,300048828125;8;594;3,54967128485441E-06;-3,92800517380238E-06;1 µA
0,250244140625;304,660369230807;8,6883544921875E-08;0,2501220703125;8;595;3,54967128485441E-06;-3,92800517380238E-06;1 µA
0,2001953125;305,160857229543;6,8939208984375E-08;0,200103759765625;8;596;3,54967128485441E-06;-3,92800517380238E-06;1 µA
0,150146484375;305,661345228279;5,0140380859375E-08;0,150115966796875;8;597;3,54967128485441E-06;-3,92800517380238E-06;1 µA
0,10009765625;306,161833227016;2,960205078125E-08;0,10009765625;8;598;3,54967128485441E-06;-3,92800517380238E-06;1 µA
0,050048828125;306,662321225752;1,1962890625E-08;0,050079345703125;8;599;3,54967128485441E-06;-3,92800517380238E-06;1 µA
0;307,162809224488;-4,77294921875E-09;0,000161743164062506;8;600;3,54967128485441E-06;-3,92800517380238E-06;100 nA
-0,050048828125;307,663297223225;-2,2979736328125E-08;-0,04969482421875;8;601;3,54967128485441E-06;-3,92800517380238E-06;100 nA
-0,10009765625;308,163785221961;-4,1748046875E-08;-0,099609375;8;602;3,54967128485441E-06;-3,92800517380238E-06;100 nA
-0,150146484375;308,664273220698;-6,1126708984375E-08;-0,149505615234375;8;603;3,54967128485441E-06;-3,92800517380238E-06;100 nA
-0,2001953125;309,164761219434;-8,0596923828125E-08;-0,1993408203125;8;604;3,54967128485441E-06;-3,92800517380238E-06;100 nA
-0,250244140625;309,66524921817;-1,004638671875E-07;-0,249114990234375;8;605;3,54967128485441E-06;-3,92800517380238E-06;100 nA
-0,30029296875;310,165737216907;-1,20208740234375E-07;-0,29913330078125;8;606;3,54967128485441E-06;-3,92800517380238E-06;100 nA
-0,350341796875;310,666225215643;-1,39373779296875E-07;-0,3489990234375;8;607;3,54967128485441E-06;-3,92800517380238E-06;100 nA
-0,400390625;311,16671321438;-1,58294677734375E-07;-0,398773193359375;8;608;3,54967128485441E-06;-3,92800517380238E-06;100 nA
-0,450439453125;311,667201213116;-1,7767333984375E-07;-0,448638916015625;8;609;3,54967128485441E-06;-3,92800517380238E-06;100 nA
-0,50048828125;312,167689211852;-1,9732666015625E-07;-0,498443603515625;8;610;3,54967128485441E-06;-3,92800517380238E-06;100 nA
-0,550537109375;312,668177210589;-2,16888427734375E-07;-0,548370361328125;8;611;3,54967128485441E-06;-3,92800517380238E-06;100 nA
-0,6005859375;313,168665209325;-2,36328125E-07;-0,598114013671875;8;612;3,54967128485441E-06;-3,92800517380238E-06;100 nA
-0,650634765625;313,669153208062;-2,55615234375E-07;-0,648101806640625;8;613;3,54967128485441E-06;-3,92800517380238E-06;100 nA
-0,70068359375;314,169641206798;-2,74932861328125E-07;-0,697967529296875;8;614;3,54967128485441E-06;-3,92800517380238E-06;100 nA
-0,750732421875;314,670129205534;-2,9443359375E-07;-0,7479248046875;8;615;3,54967128485441E-06;-3,92800517380238E-06;100 nA
-0,80078125;315,170617204271;-3,1402587890625E-07;-0,79864501953125;8;616;3,54967128485441E-06;-3,92800517380238E-06;100 nA
-0,850830078125;315,671105203007;-3,333740234375E-07;-0,8489990234375;8;617;3,54967128485441E-06;-3,92800517380238E-06;1 µA
-0,90087890625;316,171593201743;-3,53179931640625E-07;-0,8990478515625;8;618;3,54967128485441E-06;-3,92800517380238E-06;1 µA
-0,950927734375;316,67208120048;-3,73046875E-07;-0,948486328125;8;619;3,54967128485441E-06;-3,92800517380238E-06;1 µA
-1,0009765625;317,172569199216;-3,929443359375E-07;-0,99884033203125;8;620;3,54967128485441E-06;-3,92800517380238E-06;1 µA
-0,950927734375;317,673057197953;-3,73016357421875E-07;-0,94879150390625;8;621;3,54967128485441E-06;-3,92800517380238E-06;1 µA
-0,90087890625;318,173545196689;-3,53363037109375E-07;-0,89874267578125;8;622;3,54967128485441E-06;-3,92800517380238E-06;1 µA
-0,850830078125;318,674033195425;-3,3380126953125E-07;-0,84930419921875;8;623;3,54967128485441E-06;-3,92800517380238E-06;1 µA
-0,80078125;319,174521194162;-3,1439208984375E-07;-0,7989501953125;8;624;3,54967128485441E-06;-3,92800517380238E-06;1 µA
-0,750732421875;319,675009192898;-2,94830322265625E-07;-0,74859619140625;8;625;3,54967128485441E-06;-3,92800517380238E-06;1 µA
-0,70068359375;320,175497191635;-2,75299072265625E-07;-0,698577880859375;8;626;3,54967128485441E-06;-3,92800517380238E-06;1 µA
-0,650634765625;320,675985190371;-2,55645751953125E-07;-0,6485595703125;8;627;3,54967128485441E-06;-3,92800517380238E-06;1 µA
-0,6005859375;321,176473189107;-2,3602294921875E-07;-0,598663330078125;8;628;3,54967128485441E-06;-3,92800517380238E-06;1 µA
-0,550537109375;321,676961187844;-2,161865234375E-07;-0,548736572265625;8;629;3,54967128485441E-06;-3,92800517380238E-06;1 µA
-0,50048828125;322,17744918658;-1,96044921875E-07;-0,49884033203125;8;630;3,54967128485441E-06;-3,92800517380238E-06;1 µA
-0,450439453125;322,677937185317;-1,75872802734375E-07;-0,448944091796875;8;631;3,54967128485441E-06;-3,92800517380238E-06;1 µA
-0,400390625;323,178425184053;-1,55792236328125E-07;-0,399078369140625;8;632;3,54967128485441E-06;-3,92800517380238E-06;1 µA
-0,350341796875;323,678913182789;-1,35589599609375E-07;-0,349212646484375;8;633;3,54967128485441E-06;-3,92800517380238E-06;1 µA
-0,30029296875;324,179401181526;-1,14990234375E-07;-0,29925537109375;8;634;3,54967128485441E-06;-3,92800517380238E-06;1 µA
-0,250244140625;324,679889180262;-9,4085693359375E-08;-0,2493896484375;8;635;3,54967128485441E-06;-3,92800517380238E-06;1 µA
-0,2001953125;325,180377178998;-7,3150634765625E-08;-0,199432373046875;8;636;3,54967128485441E-06;-3,92800517380238E-06;1 µA
-0,150146484375;325,680865177735;-5,3131103515625E-08;-0,149627685546875;8;637;3,54967128485441E-06;-3,92800517380238E-06;1 µA
-0,10009765625;326,181353176471;-3,35693359375E-08;-0,09967041015625;8;638;3,54967128485441E-06;-3,92800517380238E-06;1 µA
-0,050048828125;326,681841175208;-1,4227294921875E-08;-0,0498046875;8;639;3,54967128485441E-06;-3,92800517380238E-06;1 µA
0;327,182329173944;4,6875E-09;0,000146484375000006;8;640;3,54967128485441E-06;-3,92800517380238E-06;100 nA
0,050048828125;327,68281717268;2,3529052734375E-08;0,050048828125;9;641;3,54909546673298E-06;-3,92808306962252E-06;100 nA
0,10009765625;328,183305171417;4,193115234375E-08;0,0999755859375;9;642;3,54909546673298E-06;-3,92808306962252E-06;100 nA
0,150146484375;328,683793170153;6,024169921875E-08;0,14990234375;9;643;3,54909546673298E-06;-3,92808306962252E-06;100 nA
0,2001953125;329,18428116889;7,6568603515625E-08;0,199920654296875;9;644;3,54909546673298E-06;-3,92808306962252E-06;100 nA
0,250244140625;329,684769167626;9,320068359375E-08;0,2498779296875;9;645;3,54909546673298E-06;-3,92808306962252E-06;100 nA
0,30029296875;330,185257166362;1,10076904296875E-07;0,299896240234375;9;646;3,54909546673298E-06;-3,92808306962252E-06;100 nA
0,350341796875;330,685745165099;1,2701416015625E-07;0,349945068359375;9;647;3,54909546673298E-06;-3,92808306962252E-06;100 nA
0,400390625;331,186233163835;1,44012451171875E-07;0,39990234375;9;648;3,54909546673298E-06;-3,92808306962252E-06;100 nA
0,450439453125;331,686721162572;1,611328125E-07;0,449798583984375;9;649;3,54909546673298E-06;-3,92808306962252E-06;100 nA
0,50048828125;332,187209161308;1,783447265625E-07;0,499786376953125;9;650;3,54909546673298E-06;-3,92808306962252E-06;100 nA
0,550537109375;332,687697160044;1,956787109375E-07;0,54974365234375;9;651;3,54909546673298E-06;-3,92808306962252E-06;100 nA
0,6005859375;333,188185158781;2,13043212890625E-07;0,599639892578125;9;652;3,54909546673298E-06;-3,92808306962252E-06;100 nA
0,650634765625;333,688673157517;2,30499267578125E-07;0,64959716796875;9;653;3,54909546673298E-06;-3,92808306962252E-06;100 nA
0,70068359375;334,189161156253;2,48016357421875E-07;0,699371337890625;9;654;3,54909546673298E-06;-3,92808306962252E-06;100 nA
0,750732421875;334,68964915499;2,655029296875E-07;0,74932861328125;9;655;3,54909546673298E-06;-3,92808306962252E-06;100 nA
0,80078125;335,190137153726;2,8302001953125E-07;0,79986572265625;9;656;3,54909546673298E-06;-3,92808306962252E-06;100 nA
0,850830078125;335,690625152463;3,00628662109375E-07;0,849609375;9;657;3,54909546673298E-06;-3,92808306962252E-06;100 nA
0,90087890625;336,191113151199;3,18450927734375E-07;0,90057373046875;9;658;3,54909546673298E-06;-3,92808306962252E-06;1 µA
0,950927734375;336,691601149935;3,363037109375E-07;0,94940185546875;9;659;3,54909546673298E-06;-3,92808306962252E-06;1 µA
1,0009765625;337,192089148672;3,543701171875E-07;0,999755859375;9;660;3,54909546673298E-06;-3,92808306962252E-06;1 µA
0,950927734375;337,692577147408;3,35540771484375E-07;0,95001220703125;9;661;3,54909546673298E-06;-3,92808306962252E-06;1 µA
0,90087890625;338,193065146145;3,17413330078125E-07;0,89996337890625;9;662;3,54909546673298E-06;-3,92808306962252E-06;1 µA
0,850830078125;338,693553144881;2,9949951171875E-07;0,849609375;9;663;3,54909546673298E-06;-3,92808306962252E-06;1 µA
0,80078125;339,194041143617;2,8173828125E-07;0,79986572265625;9;664;3,54909546673298E-06;-3,92808306962252E-06;1 µA
0,750732421875;339,694529142354;2,6397705078125E-07;0,749786376953125;9;665;3,54909546673298E-06;-3,92808306962252E-06;1 µA
0,70068359375;340,19501714109;2,46337890625E-07;0,699920654296875;9;666;3,54909546673298E-06;-3,92808306962252E-06;1 µA
0,650634765625;340,695505139827;2,28607177734375E-07;0,650054931640625;9;667;3,54909546673298E-06;-3,92808306962252E-06;1 µA
0,6005859375;341,195993138563;2,10968017578125E-07;0,600067138671875;9;668;3,54909546673298E-06;-3,92808306962252E-06;1 µA
0,550537109375;341,696481137299;1,93267822265625E-07;0,550079345703125;9;669;3,54909546673298E-06;-3,92808306962252E-06;1 µA
0,50048828125;342,196969136036;1,756591796875E-07;0,5001220703125;9;670;3,54909546673298E-06;-3,92808306962252E-06;1 µA
0,450439453125;342,697457134772;1,5789794921875E-07;0,450042724609375;9;671;3,54909546673298E-06;-3,92808306962252E-06;1 µA
0,400390625;343,197945133508;1,4019775390625E-07;0,400115966796875;9;672;3,54909546673298E-06;-3,92808306962252E-06;1 µA
0,350341796875;343,698433132245;1,22467041015625E-07;0,350128173828125;9;673;3,54909546673298E-06;-3,92808306962252E-06;1 µA
0,30029296875;344,198921130981;1,04583740234375E-07;0,300048828125;9;674;3,54909546673298E-06;-3,92808306962252E-06;1 µA
0,250244140625;344,699409129718;8,673095703125E-08;0,25006103515625;9;675;3,54909546673298E-06;-3,92808306962252E-06;1 µA
0,2001953125;345,199897128454;6,878662109375E-08;0,200042724609375;9;676;3,54909546673298E-06;-3,92808306962252E-06;1 µA
0,150146484375;345,70038512719;4,9957275390625E-08;0,150054931640625;9;677;3,54909546673298E-06;-3,92808306962252E-06;1 µA
0,10009765625;346,200873125927;2,947998046875E-08;0,100067138671875;9;678;3,54909546673298E-06;-3,92808306962252E-06;1 µA
0,050048828125;346,701361124663;1,18255615234375E-08;0,050079345703125;9;679;3,54909546673298E-06;-3,92808306962252E-06;1 µA
0;347,2018491234;-5,0201416015625E-09;0,000158691406249994;9;680;3,54909546673298E-06;-3,92808306962252E-06;100 nA
-0,050048828125;347,702337122136;-2,31475830078125E-08;-0,049774169921875;9;681;3,54909546673298E-06;-3,92808306962252E-06;100 nA
-0,10009765625;348,202825120872;-4,193115234375E-08;-0,09967041015625;9;682;3,54909546673298E-06;-3,92808306962252E-06;100 nA
-0,150146484375;348,703313119609;-6,1309814453125E-08;-0,149505615234375;9;683;3,54909546673298E-06;-3,92808306962252E-06;100 nA
-0,2001953125;349,203801118345;-8,0780029296875E-08;-0,1993408203125;9;684;3,54909546673298E-06;-3,92808306962252E-06;100 nA
-0,250244140625;349,704289117082;-1,00677490234375E-07;-0,249237060546875;9;685;3,54909546673298E-06;-3,92808306962252E-06;100 nA
-0,30029296875;350,204777115818;-1,20391845703125E-07;-0,299072265625;9;686;3,54909546673298E-06;-3,92808306962252E-06;100 nA
-0,350341796875;350,705265114554;-1,395263671875E-07;-0,348968505859375;9;687;3,54909546673298E-06;-3,92808306962252E-06;100 nA
-0,400390625;351,205753113291;-1,58477783203125E-07;-0,3988037109375;9;688;3,54909546673298E-06;-3,92808306962252E-06;100 nA
-0,450439453125;351,706241112027;-1,77825927734375E-07;-0,448638916015625;9;689;3,54909546673298E-06;-3,92808306962252E-06;100 nA
-0,50048828125;352,206729110763;-1,97418212890625E-07;-0,49853515625;9;690;3,54909546673298E-06;-3,92808306962252E-06;100 nA
-0,550537109375;352,7072171095;-2,1697998046875E-07;-0,54840087890625;9;691;3,54909546673298E-06;-3,92808306962252E-06;100 nA
-0,6005859375;353,207705108236;-2,3638916015625E-07;-0,59814453125;9;692;3,54909546673298E-06;-3,92808306962252E-06;100 nA
-0,650634765625;353,708193106973;-2,55645751953125E-07;-0,6480712890625;9;693;3,54909546673298E-06;-3,92808306962252E-06;100 nA
-0,70068359375;354,208681105709;-2,7496337890625E-07;-0,69805908203125;9;694;3,54909546673298E-06;-3,92808306962252E-06;100 nA
-0,750732421875;354,709169104445;-2,94403076171875E-07;-0,747955322265625;9;695;3,54909546673298E-06;-3,92808306962252E-06;100 nA
-0,80078125;355,209657103182;-3,1396484375E-07;-0,79833984375;9;696;3,54909546673298E-06;-3,92808306962252E-06;100 nA
-0,850830078125;355,710145101918;-3,33343505859375E-07;-0,84869384765625;9;697;3,54909546673298E-06;-3,92808306962252E-06;1 µA
-0,90087890625;356,210633100655;-3,53118896484375E-07;-0,89874267578125;9;698;3,54909546673298E-06;-3,92808306962252E-06;1 µA
-0,950927734375;356,711121099391;-3,7298583984375E-07;-0,94879150390625;9;699;3,54909546673298E-06;-3,92808306962252E-06;1 µA
-1,0009765625;357,211609098127;-3,9288330078125E-07;-0,9991455078125;9;700;3,54909546673298E-06;-3,92808306962252E-06;1 µA
-0,950927734375;357,712097096864;-3,7286376953125E-07;-0,948486328125;9;701;3,54909546673298E-06;-3,92808306962252E-06;1 µA
-0,90087890625;358,2125850956;-3,53240966796875E-07;-0,8984375;9;702;3,54909546673298E-06;-3,92808306962252E-06;1 µA
-0,850830078125;358,713073094337;-3,33740234375E-07;-0,8489990234375;9;703;3,54909546673298E-06;-3,92808306962252E-06;1 µA
-0,80078125;359,213561093073;-3,14239501953125E-07;-0,79864501953125;9;704;3,54909546673298E-06;-3,92808306962252E-06;1 µA
-0,750732421875;359,714049091809;-2,94769287109375E-07;-0,748565673828125;9;705;3,54909546673298E-06;-3,92808306962252E-06;1 µA
-0,70068359375;360,214537090546;-2,7520751953125E-07;-0,698638916015625;9;706;3,54909546673298E-06;-3,92808306962252E-06;1 µA
-0,650634765625;360,715025089282;-2,5555419921875E-07;-0,648529052734375;9;707;3,54909546673298E-06;-3,92808306962252E-06;1 µA
-0,6005859375;361,215513088019;-2,359619140625E-07;-0,598602294921875;9;708;3,54909546673298E-06;-3,92808306962252E-06;1 µA
-0,550537109375;361,716001086755;-2,16094970703125E-07;-0,548736572265625;9;709;3,54909546673298E-06;-3,92808306962252E-06;1 µA
-0,50048828125;362,216489085491;-1,96044921875E-07;-0,498870849609375;9;710;3,54909546673298E-06;-3,92808306962252E-06;1 µA
-0,450439453125;362,716977084228;-1,7578125E-07;-0,448944091796875;9;711;3,54909546673298E-06;-3,92808306962252E-06;1 µA
-0,400390625;363,217465082964;-1,5576171875E-07;-0,3990478515625;9;712;3,54909546673298E-06;-3,92808306962252E-06;1 µA
-0,350341796875;363,7179530817;-1,35528564453125E-07;-0,3492431640625;9;713;3,54909546673298E-06;-3,92808306962252E-06;1 µA
-0,30029296875;364,218441080437;-1,1492919921875E-07;-0,299224853515625;9;714;3,54909546673298E-06;-3,92808306962252E-06;1 µA
-0,250244140625;364,718929079173;-9,393310546875E-08;-0,2493896484375;9;715;3,54909546673298E-06;-3,92808306962252E-06;1 µA
-0,2001953125;365,21941707791;-7,305908203125E-08;-0,199432373046875;9;716;3,54909546673298E-06;-3,92808306962252E-06;1 µA
-0,150146484375;365,719905076646;-5,3009033203125E-08;-0,149505615234375;9;717;3,54909546673298E-06;-3,92808306962252E-06;1 µA
-0,10009765625;366,220393075382;-3,3447265625E-08;-0,099639892578125;9;718;3,54909546673298E-06;-3,92808306962252E-06;1 µA
-0,050048828125;366,720881074119;-1,41510009765625E-08;-0,0498046875;9;719;3,54909546673298E-06;-3,92808306962252E-06;1 µA
0;367,221369072855;4,7637939453125E-09;0,000149536132812503;9;720;3,54909546673298E-06;-3,92808306962252E-06;100 nA
0,050048828125;367,721857071592;2,3565673828125E-08;0,050018310546875;10;721;3,54790564626455E-06;-3,92687033861875E-06;100 nA
0,10009765625;368,222345070328;4,1961669921875E-08;0,100006103515625;10;722;3,54790564626455E-06;-3,92687033861875E-06;100 nA
0,150146484375;368,722833069064;6,0272216796875E-08;0,149871826171875;10;723;3,54790564626455E-06;-3,92687033861875E-06;100 nA
0,2001953125;369,223321067801;7,6629638671875E-08;0,199981689453125;10;724;3,54790564626455E-06;-3,92687033861875E-06;100 nA
0,250244140625;369,723809066537;9,3231201171875E-08;0,24993896484375;10;725;3,54790564626455E-06;-3,92687033861875E-06;100 nA
0,30029296875;370,224297065274;1,10076904296875E-07;0,299896240234375;10;726;3,54790564626455E-06;-3,92687033861875E-06;100 nA
0,350341796875;370,72478506401;1,2701416015625E-07;0,34991455078125;10;727;3,54790564626455E-06;-3,92687033861875E-06;100 nA
0,400390625;371,225273062746;1,44012451171875E-07;0,39990234375;10;728;3,54790564626455E-06;-3,92687033861875E-06;100 nA
0,450439453125;371,725761061483;1,61102294921875E-07;0,449859619140625;10;729;3,54790564626455E-06;-3,92687033861875E-06;100 nA
0,50048828125;372,226249060219;1,78314208984375E-07;0,499786376953125;10;730;3,54790564626455E-06;-3,92687033861875E-06;100 nA
0,550537109375;372,726737058955;1,95648193359375E-07;0,54974365234375;10;731;3,54790564626455E-06;-3,92687033861875E-06;100 nA
0,6005859375;373,227225057692;2,130126953125E-07;0,59967041015625;10;732;3,54790564626455E-06;-3,92687033861875E-06;100 nA
0,650634765625;373,727713056428;2,3046875E-07;0,64959716796875;10;733;3,54790564626455E-06;-3,92687033861875E-06;100 nA
0,70068359375;374,228201055165;2,47955322265625E-07;0,699462890625;10;734;3,54790564626455E-06;-3,92687033861875E-06;100 nA
0,750732421875;374,728689053901;2,65411376953125E-07;0,7491455078125;10;735;3,54790564626455E-06;-3,92687033861875E-06;100 nA
0,80078125;375,229177052637;2,82958984375E-07;0,799560546875;10;736;3,54790564626455E-06;-3,92687033861875E-06;100 nA
0,850830078125;375,729665051374;3,0047607421875E-07;0,84991455078125;10;737;3,54790564626455E-06;-3,92687033861875E-06;100 nA
0,90087890625;376,23015305011;3,1829833984375E-07;0,9002685546875;10;738;3,54790564626455E-06;-3,92687033861875E-06;1 µA
0,950927734375;376,730641048847;3,3612060546875E-07;0,94970703125;10;739;3,54790564626455E-06;-3,92687033861875E-06;1 µA
1,0009765625;377,231129047583;3,54248046875E-07;1,00006103515625;10;740;3,54790564626455E-06;-3,92687033861875E-06;1 µA
0,950927734375;377,731617046319;3,3544921875E-07;0,94970703125;10;741;3,54790564626455E-06;-3,92687033861875E-06;1 µA
0,90087890625;378,232105045056;3,17291259765625E-07;0,89996337890625;10;742;3,54790564626455E-06;-3,92687033861875E-06;1 µA
0,850830078125;378,732593043792;2,9931640625E-07;0,84991455078125;10;743;3,54790564626455E-06;-3,92687033861875E-06;1 µA
0,80078125;379,233081042529;2,816162109375E-07;0,79986572265625;10;744;3,54790564626455E-06;-3,92687033861875E-06;1 µA
0,750732421875;379,733569041265;2,63916015625E-07;0,74981689453125;10;745;3,54790564626455E-06;-3,92687033861875E-06;1 µA
0,70068359375;380,234057040001;2,462158203125E-07;0,699951171875;10;746;3,54790564626455E-06;-3,92687033861875E-06;1 µA
0,650634765625;380,734545038738;2,28515625E-07;0,6500244140625;10;747;3,54790564626455E-06;-3,92687033861875E-06;1 µA
0,6005859375;381,235033037474;2,1087646484375E-07;0,60009765625;10;748;3,54790564626455E-06;-3,92687033861875E-06;1 µA
0,550537109375;381,73552103621;1,9317626953125E-07;0,550048828125;10;749;3,54790564626455E-06;-3,92687033861875E-06;1 µA
0,50048828125;382,236009034947;1,75506591796875E-07;0,500091552734375;10;750;3,54790564626455E-06;-3,92687033861875E-06;1 µA
0,450439453125;382,736497033683;1,578369140625E-07;0,45013427734375;10;751;3,54790564626455E-06;-3,92687033861875E-06;1 µA
0,400390625;383,23698503242;1,4013671875E-07;0,400115966796875;10;752;3,54790564626455E-06;-3,92687033861875E-06;1 µA
0,350341796875;383,737473031156;1,2237548828125E-07;0,350067138671875;10;753;3,54790564626455E-06;-3,92687033861875E-06;1 µA
0,30029296875;384,237961029892;1,04522705078125E-07;0,30010986328125;10;754;3,54790564626455E-06;-3,92687033861875E-06;1 µA
0,250244140625;384,738449028629;8,673095703125E-08;0,2501220703125;10;755;3,54790564626455E-06;-3,92687033861875E-06;1 µA
0,2001953125;385,238937027365;6,866455078125E-08;0,2000732421875;10;756;3,54790564626455E-06;-3,92687033861875E-06;1 µA
0,150146484375;385,739425026102;4,998779296875E-08;0,150115966796875;10;757;3,54790564626455E-06;-3,92687033861875E-06;1 µA
0,10009765625;386,239913024838;2,9449462890625E-08;0,10009765625;10;758;3,54790564626455E-06;-3,92687033861875E-06;1 µA
0,050048828125;386,740401023574;1,1834716796875E-08;0,05010986328125;10;759;3,54790564626455E-06;-3,92687033861875E-06;1 µA
0;387,240889022311;-5,01708984375E-09;0,000125122070312497;10;760;3,54790564626455E-06;-3,92687033861875E-06;100 nA
-0,050048828125;387,741377021047;-2,31048583984375E-08;-0,049713134765625;10;761;3,54790564626455E-06;-3,92687033861875E-06;100 nA
-0,10009765625;388,241865019784;-4,1839599609375E-08;-0,099639892578125;10;762;3,54790564626455E-06;-3,92687033861875E-06;100 nA
-0,150146484375;388,74235301852;-6,121826171875E-08;-0,149444580078125;10;763;3,54790564626455E-06;-3,92687033861875E-06;100 nA
-0,2001953125;389,242841017256;-8,06884765625E-08;-0,199310302734375;10;764;3,54790564626455E-06;-3,92687033861875E-06;100 nA
-0,250244140625;389,743329015993;-1,0052490234375E-07;-0,249176025390625;10;765;3,54790564626455E-06;-3,92687033861875E-06;100 nA
-0,30029296875;390,243817014729;-1,20269775390625E-07;-0,299072265625;10;766;3,54790564626455E-06;-3,92687033861875E-06;100 nA
-0,350341796875;390,744305013465;-1,39404296875E-07;-0,34893798828125;10;767;3,54790564626455E-06;-3,92687033861875E-06;100 nA
-0,400390625;391,244793012202;-1,583251953125E-07;-0,3988037109375;10;768;3,54790564626455E-06;-3,92687033861875E-06;100 nA
-0,450439453125;391,745281010938;-1,77642822265625E-07;-0,448699951171875;10;769;3,54790564626455E-06;-3,92687033861875E-06;100 nA
-0,50048828125;392,245769009675;-1,97235107421875E-07;-0,49847412109375;10;770;3,54790564626455E-06;-3,92687033861875E-06;100 nA
-0,550537109375;392,746257008411;-2,16796875E-07;-0,548309326171875;10;771;3,54790564626455E-06;-3,92687033861875E-06;100 nA
-0,6005859375;393,246745007147;-2,36236572265625E-07;-0,59808349609375;10;772;3,54790564626455E-06;-3,92687033861875E-06;100 nA
-0,650634765625;393,747233005884;-2,5543212890625E-07;-0,648101806640625;10;773;3,54790564626455E-06;-3,92687033861875E-06;100 nA
-0,70068359375;394,24772100462;-2,747802734375E-07;-0,697967529296875;10;774;3,54790564626455E-06;-3,92687033861875E-06;100 nA
-0,750732421875;394,748209003357;-2,9425048828125E-07;-0,747894287109375;10;775;3,54790564626455E-06;-3,92687033861875E-06;100 nA
-0,80078125;395,248697002093;-3,1390380859375E-07;-0,79864501953125;10;776;3,54790564626455E-06;-3,92687033861875E-06;100 nA
-0,850830078125;395,749185000829;-3,33221435546875E-07;-0,848388671875;10;777;3,54790564626455E-06;-3,92687033861875E-06;1 µA
-0,90087890625;396,249672999566;-3,52996826171875E-07;-0,8990478515625;10;778;3,54790564626455E-06;-3,92687033861875E-06;1 µA
-0,950927734375;396,750160998302;-3,7286376953125E-07;-0,94940185546875;10;779;3,54790564626455E-06;-3,92687033861875E-06;1 µA
-1,0009765625;397,250648997039;-3,9276123046875E-07;-0,9991455078125;10;780;3,54790564626455E-06;-3,92687033861875E-06;1 µA
-0,950927734375;397,751136995775;-3,72802734375E-07;-0,94879150390625;10;781;3,54790564626455E-06;-3,92687033861875E-06;1 µA
-0,90087890625;398,251624994511;-3,5302734375E-07;-0,8984375;10;782;3,54790564626455E-06;-3,92687033861875E-06;1 µA
-0,850830078125;398,752112993248;-3,3355712890625E-07;-0,84869384765625;10;783;3,54790564626455E-06;-3,92687033861875E-06;1 µA
-0,80078125;399,252600991984;-3,14208984375E-07;-0,7989501953125;10;784;3,54790564626455E-06;-3,92687033861875E-06;1 µA
-0,750732421875;399,75308899072;-2,94708251953125E-07;-0,748565673828125;10;785;3,54790564626455E-06;-3,92687033861875E-06;1 µA
-0,70068359375;400,253576989457;-2,752685546875E-07;-0,698577880859375;10;786;3,54790564626455E-06;-3,92687033861875E-06;1 µA
-0,650634765625;400,754064988193;-2,55584716796875E-07;-0,64862060546875;10;787;3,54790564626455E-06;-3,92687033861875E-06;1 µA
-0,6005859375;401,25455298693;-2,36053466796875E-07;-0,598724365234375;10;788;3,54790564626455E-06;-3,92687033861875E-06;1 µA
-0,550537109375;401,755040985666;-2,16156005859375E-07;-0,5487060546875;10;789;3,54790564626455E-06;-3,92687033861875E-06;1 µA
-0,50048828125;402,255528984402;-1,96044921875E-07;-0,498809814453125;10;790;3,54790564626455E-06;-3,92687033861875E-06;1 µA
-0,450439453125;402,756016983139;-1,7584228515625E-07;-0,449005126953125;10;791;3,54790564626455E-06;-3,92687033861875E-06;1 µA
-0,400390625;403,256504981875;-1,55792236328125E-07;-0,399078369140625;10;792;3,54790564626455E-06;-3,92687033861875E-06;1 µA
-0,350341796875;403,756992980612;-1,3555908203125E-07;-0,34912109375;10;793;3,54790564626455E-06;-3,92687033861875E-06;1 µA
-0,30029296875;404,257480979348;-1,14959716796875E-07;-0,299285888671875;10;794;3,54790564626455E-06;-3,92687033861875E-06;1 µA
-0,250244140625;404,757968978084;-9,4024658203125E-08;-0,249359130859375;10;795;3,54790564626455E-06;-3,92687033861875E-06;1 µA
-0,2001953125;405,258456976821;-7,3150634765625E-08;-0,199432373046875;10;796;3,54790564626455E-06;-3,92687033861875E-06;1 µA
-0,150146484375;405,758944975557;-5,3070068359375E-08;-0,14959716796875;10;797;3,54790564626455E-06;-3,92687033861875E-06;1 µA
-0,10009765625;406,259432974294;-3,3538818359375E-08;-0,099700927734375;10;798;3,54790564626455E-06;-3,92687033861875E-06;1 µA
-0,050048828125;406,75992097303;-1,4215087890625E-08;-0,04974365234375;10;799;3,54790564626455E-06;-3,92687033861875E-06;1 µA
0;407,260408971766;4,6905517578125E-09;0,000128173828124994;10;800;3,54790564626455E-06;-3,92687033861875E-06;100 nA
