Potential applied (V);Time (s);WE(1).Current (A);WE(1).Potential (V);Scan;Index;Q+;Q-;Current range
0,050048828125;7,41860598126982;5,79833984375E-10;0,050018310546875;1;1;1,34652853012085E-07;-5,1657147705555E-07;100 nA
0,10009765625;7,91909398000621;1,89208984375E-09;0,10003662109375;1;2;1,34652853012085E-07;-5,1657147705555E-07;100 nA
0,150146484375;8,4195819787426;2,44140625E-09;0,149932861328125;1;3;1,34652853012085E-07;-5,1657147705555E-07;100 nA
0,2001953125;8,92006997747899;3,570556640625E-09;0,199981689453125;1;4;1,34652853012085E-07;-5,1657147705555E-07;100 nA
0,250244140625;9,42055797621538;3,662109375E-09;0,249969482421875;1;5;1,34652853012085E-07;-5,1657147705555E-07;100 nA
0,30029296875;9,92104597495177;4,364013671875E-09;0,300018310546875;1;6;1,34652853012085E-07;-5,1657147705555E-07;100 nA
0,350341796875;10,4215339736882;5,126953125E-09;0,35003662109375;1;7;1,34652853012085E-07;-5,1657147705555E-07;100 nA
0,400390625;10,9220219724245;5,67626953125E-09;0,39996337890625;1;8;1,34652853012085E-07;-5,1657147705555E-07;100 nA
0,450439453125;11,4225099711609;6,4697265625E-09;0,450042724609375;1;9;1,34652853012085E-07;-5,1657147705555E-07;100 nA
0,50048828125;11,9229979698973;7,171630859375E-09;0,5;1;10;1,34652853012085E-07;-5,1657147705555E-07;100 nA
0,550537109375;12,4234859686337;6,988525390625E-09;0,550048828125;1;11;1,34652853012085E-07;-5,1657147705555E-07;100 nA
0,6005859375;12,9239739673701;7,26318359375E-09;0,60009765625;1;12;1,34652853012085E-07;-5,1657147705555E-07;100 nA
0,650634765625;13,4244619661065;7,2021484375E-09;0,6500244140625;1;13;1,34652853012085E-07;-5,1657147705555E-07;100 nA
0,70068359375;13,9249499648429;7,232666015625E-09;0,699951171875;1;14;1,34652853012085E-07;-5,1657147705555E-07;100 nA
0,750732421875;14,4254379635793;7,049560546875E-09;0,749847412109375;1;15;1,34652853012085E-07;-5,1657147705555E-07;100 nA
0,80078125;14,9259259623157;7,537841796875E-09;0,79986572265625;1;16;1,34652853012085E-07;-5,1657147705555E-07;100 nA
0,850830078125;15,426413961052;6,927490234375E-09;0,84991455078125;1;17;1,34652853012085E-07;-5,1657147705555E-07;100 nA
0,90087890625;15,9269019597884;6,500244140625E-09;0,89996337890625;1;18;1,34652853012085E-07;-5,1657147705555E-07;100 nA
0,950927734375;16,4273899585248;6,561279296875E-09;0,94970703125;1;19;1,34652853012085E-07;-5,1657147705555E-07;100 nA
1,0009765625;16,9278779572612;6,927490234375E-09;0,999755859375;1;20;1,34652853012085E-07;-5,1657147705555E-07;100 nA
0,950927734375;17,4283659559976;3,021240234375E-09;0,94970703125;1;21;1,34652853012085E-07;-5,1657147705555E-07;100 nA
0,90087890625;17,928853954734;1,556396484375E-09;0,9002685546875;1;22;1,34652853012085E-07;-5,1657147705555E-07;100 nA
0,850830078125;18,4293419534704;9,1552734375E-10;0,84991455078125;1;23;1,34652853012085E-07;-5,1657147705555E-07;100 nA
0,80078125;18,9298299522068;1,220703125E-10;0,8001708984375;1;24;1,34652853012085E-07;-5,1657147705555E-07;100 nA
0,750732421875;19,4303179509432;-3,35693359375E-10;0,75;1;25;1,34652853012085E-07;-5,1657147705555E-07;100 nA
0,70068359375;19,9308059496796;-1,251220703125E-09;0,70001220703125;1;26;1,34652853012085E-07;-5,1657147705555E-07;100 nA
0,650634765625;20,4312939484159;-1,861572265625E-09;0,650177001953125;1;27;1,34652853012085E-07;-5,1657147705555E-07;100 nA
0,6005859375;20,9317819471523;-2,44140625E-09;0,600189208984375;1;28;1,34652853012085E-07;-5,1657147705555E-07;100 nA
0,550537109375;21,4322699458887;-3,7841796875E-09;0,55023193359375;1;29;1,34652853012085E-07;-5,1657147705555E-07;100 nA
0,50048828125;21,9327579446251;-4,82177734375E-09;0,5001220703125;1;30;1,34652853012085E-07;-5,1657147705555E-07;100 nA
0,450439453125;22,4332459433615;-5,615234375E-09;0,450286865234375;1;31;1,34652853012085E-07;-5,1657147705555E-07;100 nA
0,400390625;22,9337339420979;-6,683349609375E-09;0,400177001953125;1;32;1,34652853012085E-07;-5,1657147705555E-07;100 nA
0,350341796875;23,4342219408343;-6,378173828125E-09;0,3502197265625;1;33;1,34652853012085E-07;-5,1657147705555E-07;100 nA
0,30029296875;23,9347099395707;-7,38525390625E-09;0,300140380859375;1;34;1,34652853012085E-07;-5,1657147705555E-07;100 nA
0,250244140625;24,4351979383071;-7,965087890625E-09;0,250152587890625;1;35;1,34652853012085E-07;-5,1657147705555E-07;100 nA
0,2001953125;24,9356859370434;-8,85009765625E-09;0,20013427734375;1;36;1,34652853012085E-07;-5,1657147705555E-07;100 nA
0,150146484375;25,4361739357798;-9,033203125E-09;0,150115966796875;1;37;1,34652853012085E-07;-5,1657147705555E-07;100 nA
0,10009765625;25,9366619345162;-1,01318359375E-08;0,100189208984375;1;38;1,34652853012085E-07;-5,1657147705555E-07;100 nA
0,050048828125;26,4371499332526;-1,1962890625E-08;0,05010986328125;1;39;1,34652853012085E-07;-5,1657147705555E-07;100 nA
0;26,937637931989;-1,446533203125E-08;0,000161743164062506;1;40;1,34652853012085E-07;-5,1657147705555E-07;100 nA
-0,050048828125;27,4381259307254;-1,67236328125E-08;-0,0497161865234375;1;41;1,34652853012085E-07;-5,1657147705555E-07;100 nA
-0,10009765625;27,9386139294618;-1,84326171875E-08;-0,099639892578125;1;42;1,34652853012085E-07;-5,1657147705555E-07;100 nA
-0,150146484375;28,4391019281982;-1,953125E-08;-0,149566650390625;1;43;1,34652853012085E-07;-5,1657147705555E-07;100 nA
-0,2001953125;28,9395899269346;-1,9744873046875E-08;-0,199432373046875;1;44;1,34652853012085E-07;-5,1657147705555E-07;100 nA
-0,250244140625;29,4400779256709;-1,9561767578125E-08;-0,249420166015625;1;45;1,34652853012085E-07;-5,1657147705555E-07;100 nA
-0,30029296875;29,9405659244073;-1,9683837890625E-08;-0,299285888671875;1;46;1,34652853012085E-07;-5,1657147705555E-07;100 nA
-0,350341796875;30,4410539231437;-2,08740234375E-08;-0,34918212890625;1;47;1,34652853012085E-07;-5,1657147705555E-07;100 nA
-0,400390625;30,9415419218801;-2,313232421875E-08;-0,39910888671875;1;48;1,34652853012085E-07;-5,1657147705555E-07;100 nA
-0,450439453125;31,4420299206165;-2,423095703125E-08;-0,448974609375;1;49;1,34652853012085E-07;-5,1657147705555E-07;100 nA
-0,50048828125;31,9425179193529;-2,6702880859375E-08;-0,498870849609375;1;50;1,34652853012085E-07;-5,1657147705555E-07;100 nA
-0,550537109375;32,4430059180893;-3,125E-08;-0,5487060546875;1;51;1,34652853012085E-07;-5,1657147705555E-07;100 nA
-0,6005859375;32,9434939168257;-3,9886474609375E-08;-0,5986328125;1;52;1,34652853012085E-07;-5,1657147705555E-07;100 nA
-0,650634765625;33,4439819155621;-5,6732177734375E-08;-0,6485595703125;1;53;1,34652853012085E-07;-5,1657147705555E-07;100 nA
-0,70068359375;33,9444699142985;-8,5845947265625E-08;-0,698486328125;1;54;1,34652853012085E-07;-5,1657147705555E-07;100 nA
-0,750732421875;34,4449579130348;-1,309814453125E-07;-0,748382568359375;1;55;1,34652853012085E-07;-5,1657147705555E-07;100 nA
-0,80078125;34,9454459117712;-1,73309326171875E-07;-0,79864501953125;1;56;1,34652853012085E-07;-5,1657147705555E-07;100 nA
-0,750732421875;35,4459339105076;-1,14959716796875E-07;-0,7484130859375;1;57;1,34652853012085E-07;-5,1657147705555E-07;100 nA
-0,70068359375;35,946421909244;-6,28662109375E-08;-0,698516845703125;1;58;1,34652853012085E-07;-5,1657147705555E-07;100 nA
-0,650634765625;36,4469099079804;-2,25830078125E-08;-0,648590087890625;1;59;1,34652853012085E-07;-5,1657147705555E-07;100 nA
-0,6005859375;36,9473979067168;-2,13623046875E-09;-0,598785400390625;1;60;1,34652853012085E-07;-5,1657147705555E-07;100 nA
-0,550537109375;37,4478859054532;9,033203125E-09;-0,548919677734375;1;61;1,34652853012085E-07;-5,1657147705555E-07;100 nA
-0,50048828125;37,9483739041896;1,2939453125E-08;-0,499114990234375;1;62;1,34652853012085E-07;-5,1657147705555E-07;100 nA
-0,450439453125;38,448861902926;1,3671875E-08;-0,449127197265625;1;63;1,34652853012085E-07;-5,1657147705555E-07;100 nA
-0,400390625;38,9493499016623;1,361083984375E-08;-0,3992919921875;1;64;1,34652853012085E-07;-5,1657147705555E-07;100 nA
-0,350341796875;39,4498379003987;1,2847900390625E-08;-0,349395751953125;1;65;1,34652853012085E-07;-5,1657147705555E-07;100 nA
-0,30029296875;39,9503258991351;1,2939453125E-08;-0,299468994140625;1;66;1,34652853012085E-07;-5,1657147705555E-07;100 nA
-0,250244140625;40,4508138978715;1,2542724609375E-08;-0,249542236328125;1;67;1,34652853012085E-07;-5,1657147705555E-07;100 nA
-0,2001953125;40,9513018966079;1,2298583984375E-08;-0,1995849609375;1;68;1,34652853012085E-07;-5,1657147705555E-07;100 nA
-0,150146484375;41,4517898953443;1,2451171875E-08;-0,149749755859375;1;69;1,34652853012085E-07;-5,1657147705555E-07;100 nA
-0,10009765625;41,9522778940807;1,2725830078125E-08;-0,09979248046875;1;70;1,34652853012085E-07;-5,1657147705555E-07;100 nA
-0,050048828125;42,4527658928171;1,3397216796875E-08;-0,04986572265625;1;71;1,34652853012085E-07;-5,1657147705555E-07;100 nA
0;42,9532538915535;1,3824462890625E-08;7,93457031249972E-05;1;72;1,34652853012085E-07;-5,1657147705555E-07;100 nA
0,050048828125;43,4537418902898;1,46484375E-08;0,050048828125;2;73;2,48701497912407E-07;-4,81212884187698E-07;100 nA
0,10009765625;43,9542298890262;1,519775390625E-08;0,100067138671875;2;74;2,48701497912407E-07;-4,81212884187698E-07;100 nA
0,150146484375;44,4547178877626;1,52587890625E-08;0,15008544921875;2;75;2,48701497912407E-07;-4,81212884187698E-07;100 nA
0,2001953125;44,955205886499;1,531982421875E-08;0,200042724609375;2;76;2,48701497912407E-07;-4,81212884187698E-07;100 nA
0,250244140625;45,4556938852354;1,57470703125E-08;0,250152587890625;2;77;2,48701497912407E-07;-4,81212884187698E-07;100 nA
0,30029296875;45,9561818839718;1,64794921875E-08;0,300048828125;2;78;2,48701497912407E-07;-4,81212884187698E-07;100 nA
0,350341796875;46,4566698827082;1,7303466796875E-08;0,35009765625;2;79;2,48701497912407E-07;-4,81212884187698E-07;100 nA
0,400390625;46,9571578814446;1,8218994140625E-08;0,400146484375;2;80;2,48701497912407E-07;-4,81212884187698E-07;100 nA
0,450439453125;47,457645880181;1,86767578125E-08;0,450225830078125;2;81;2,48701497912407E-07;-4,81212884187698E-07;100 nA
0,50048828125;47,9581338789174;1,7913818359375E-08;0,500152587890625;2;82;2,48701497912407E-07;-4,81212884187698E-07;100 nA
0,550537109375;48,4586218776537;1,6204833984375E-08;0,55010986328125;2;83;2,48701497912407E-07;-4,81212884187698E-07;100 nA
0,6005859375;48,9591098763901;1,5533447265625E-08;0,60009765625;2;84;2,48701497912407E-07;-4,81212884187698E-07;100 nA
0,650634765625;49,4595978751265;1,4862060546875E-08;0,650115966796875;2;85;2,48701497912407E-07;-4,81212884187698E-07;100 nA
0,70068359375;49,9600858738629;1,4190673828125E-08;0,70001220703125;2;86;2,48701497912407E-07;-4,81212884187698E-07;100 nA
0,750732421875;50,4605738725993;1,422119140625E-08;0,7498779296875;2;87;2,48701497912407E-07;-4,81212884187698E-07;100 nA
0,80078125;50,9610618713357;1,3336181640625E-08;0,799560546875;2;88;2,48701497912407E-07;-4,81212884187698E-07;100 nA
0,850830078125;51,4615498700721;1,2664794921875E-08;0,849609375;2;89;2,48701497912407E-07;-4,81212884187698E-07;100 nA
0,90087890625;51,9620378688085;1,26953125E-08;0,899658203125;2;90;2,48701497912407E-07;-4,81212884187698E-07;100 nA
0,950927734375;52,4625258675449;1,287841796875E-08;0,95001220703125;2;91;2,48701497912407E-07;-4,81212884187698E-07;100 nA
1,0009765625;52,9630138662812;1,2847900390625E-08;0,999755859375;2;92;2,48701497912407E-07;-4,81212884187698E-07;100 nA
0,950927734375;53,4635018650176;8,392333984375E-09;0,94970703125;2;93;2,48701497912407E-07;-4,81212884187698E-07;100 nA
0,90087890625;53,963989863754;6,439208984375E-09;0,89996337890625;2;94;2,48701497912407E-07;-4,81212884187698E-07;100 nA
0,850830078125;54,4644778624904;5,401611328125E-09;0,849609375;2;95;2,48701497912407E-07;-4,81212884187698E-07;100 nA
0,80078125;54,9649658612268;4,730224609375E-09;0,8001708984375;2;96;2,48701497912407E-07;-4,81212884187698E-07;100 nA
0,750732421875;55,4654538599632;4,058837890625E-09;0,749908447265625;2;97;2,48701497912407E-07;-4,81212884187698E-07;100 nA
0,70068359375;55,9659418586996;3,2958984375E-09;0,700042724609375;2;98;2,48701497912407E-07;-4,81212884187698E-07;100 nA
0,650634765625;56,466429857436;2,227783203125E-09;0,650115966796875;2;99;2,48701497912407E-07;-4,81212884187698E-07;100 nA
0,6005859375;56,9669178561724;1,495361328125E-09;0,60009765625;2;100;2,48701497912407E-07;-4,81212884187698E-07;100 nA
0,550537109375;57,4674058549087;8,544921875E-10;0,550140380859375;2;101;2,48701497912407E-07;-4,81212884187698E-07;100 nA
0,50048828125;57,9678938536451;3,0517578125E-11;0,500152587890625;2;102;2,48701497912407E-07;-4,81212884187698E-07;100 nA
0,450439453125;58,4683818523815;-1,007080078125E-09;0,4501953125;2;103;2,48701497912407E-07;-4,81212884187698E-07;100 nA
0,400390625;58,9688698511179;-2,166748046875E-09;0,400177001953125;2;104;2,48701497912407E-07;-4,81212884187698E-07;100 nA
0,350341796875;59,4693578498543;-2,99072265625E-09;0,35015869140625;2;105;2,48701497912407E-07;-4,81212884187698E-07;100 nA
0,30029296875;59,9698458485907;-4,0283203125E-09;0,30010986328125;2;106;2,48701497912407E-07;-4,81212884187698E-07;100 nA
0,250244140625;60,4703338473271;-4,730224609375E-09;0,250091552734375;2;107;2,48701497912407E-07;-4,81212884187698E-07;100 nA
0,2001953125;60,9708218460635;-5,615234375E-09;0,2000732421875;2;108;2,48701497912407E-07;-4,81212884187698E-07;100 nA
0,150146484375;61,4713098447999;-6,16455078125E-09;0,15008544921875;2;109;2,48701497912407E-07;-4,81212884187698E-07;100 nA
0,10009765625;61,9717978435363;-7,38525390625E-09;0,100067138671875;2;110;2,48701497912407E-07;-4,81212884187698E-07;100 nA
0,050048828125;62,4722858422726;-8,60595703125E-09;0,05010986328125;2;111;2,48701497912407E-07;-4,81212884187698E-07;100 nA
0;62,972773841009;-1,1260986328125E-08;0,000149536132812503;2;112;2,48701497912407E-07;-4,81212884187698E-07;100 nA
-0,050048828125;63,4732618397454;-1,4801025390625E-08;-0,0498046875;2;113;2,48701497912407E-07;-4,81212884187698E-07;100 nA
-0,10009765625;63,9737498384818;-1,91650390625E-08;-0,0997314453125;2;114;2,48701497912407E-07;-4,81212884187698E-07;100 nA
-0,150146484375;64,4742378372182;-2,2308349609375E-08;-0,149658203125;2;115;2,48701497912407E-07;-4,81212884187698E-07;100 nA
-0,2001953125;64,9747258359546;-2,2918701171875E-08;-0,199432373046875;2;116;2,48701497912407E-07;-4,81212884187698E-07;100 nA
-0,250244140625;65,475213834691;-2,0843505859375E-08;-0,249359130859375;2;117;2,48701497912407E-07;-4,81212884187698E-07;100 nA
-0,30029296875;65,9757018334274;-1,8585205078125E-08;-0,29925537109375;2;118;2,48701497912407E-07;-4,81212884187698E-07;100 nA
-0,350341796875;66,4761898321638;-1,7333984375E-08;-0,3492431640625;2;119;2,48701497912407E-07;-4,81212884187698E-07;100 nA
-0,400390625;66,9766778309001;-1,6143798828125E-08;-0,39910888671875;2;120;2,48701497912407E-07;-4,81212884187698E-07;100 nA
-0,450439453125;67,4771658296365;-1,6387939453125E-08;-0,448974609375;2;121;2,48701497912407E-07;-4,81212884187698E-07;100 nA
-0,50048828125;67,9776538283729;-1,8157958984375E-08;-0,498870849609375;2;122;2,48701497912407E-07;-4,81212884187698E-07;100 nA
-0,550537109375;68,4781418271093;-2,3956298828125E-08;-0,548797607421875;2;123;2,48701497912407E-07;-4,81212884187698E-07;100 nA
-0,6005859375;68,9786298258457;-3,5125732421875E-08;-0,5986328125;2;124;2,48701497912407E-07;-4,81212884187698E-07;100 nA
-0,650634765625;69,4791178245821;-5,4534912109375E-08;-0,6485595703125;2;125;2,48701497912407E-07;-4,81212884187698E-07;100 nA
-0,70068359375;69,9796058233185;-8,7493896484375E-08;-0,698516845703125;2;126;2,48701497912407E-07;-4,81212884187698E-07;100 nA
-0,750732421875;70,4800938220549;-1,3507080078125E-07;-0,7484130859375;2;127;2,48701497912407E-07;-4,81212884187698E-07;100 nA
-0,80078125;70,9805818207913;-1,7364501953125E-07;-0,79864501953125;2;128;2,48701497912407E-07;-4,81212884187698E-07;100 nA
-0,750732421875;71,4810698195276;-1,16058349609375E-07;-0,748443603515625;2;129;2,48701497912407E-07;-4,81212884187698E-07;100 nA
-0,70068359375;71,981557818264;-6,5093994140625E-08;-0,69854736328125;2;130;2,48701497912407E-07;-4,81212884187698E-07;100 nA
-0,650634765625;72,4820458170004;-2,618408203125E-08;-0,648590087890625;2;131;2,48701497912407E-07;-4,81212884187698E-07;100 nA
-0,6005859375;72,9825338157368;-3,72314453125E-09;-0,5987548828125;2;132;2,48701497912407E-07;-4,81212884187698E-07;100 nA
-0,550537109375;73,4830218144732;7,568359375E-09;-0,548858642578125;2;133;2,48701497912407E-07;-4,81212884187698E-07;100 nA
-0,50048828125;73,9835098132096;1,1688232421875E-08;-0,498992919921875;2;134;2,48701497912407E-07;-4,81212884187698E-07;100 nA
-0,450439453125;74,483997811946;1,263427734375E-08;-0,449066162109375;2;135;2,48701497912407E-07;-4,81212884187698E-07;100 nA
-0,400390625;74,9844858106824;1,2664794921875E-08;-0,399139404296875;2;136;2,48701497912407E-07;-4,81212884187698E-07;100 nA
-0,350341796875;75,4849738094188;1,2542724609375E-08;-0,349273681640625;2;137;2,48701497912407E-07;-4,81212884187698E-07;100 nA
-0,30029296875;75,9854618081552;1,2786865234375E-08;-0,299285888671875;2;138;2,48701497912407E-07;-4,81212884187698E-07;100 nA
-0,250244140625;76,4859498068915;1,300048828125E-08;-0,249420166015625;2;139;2,48701497912407E-07;-4,81212884187698E-07;100 nA
-0,2001953125;76,9864378056279;1,287841796875E-08;-0,199554443359375;2;140;2,48701497912407E-07;-4,81212884187698E-07;100 nA
-0,150146484375;77,4869258043643;1,3580322265625E-08;-0,14959716796875;2;141;2,48701497912407E-07;-4,81212884187698E-07;100 nA
-0,10009765625;77,9874138031007;1,4678955078125E-08;-0,099761962890625;2;142;2,48701497912407E-07;-4,81212884187698E-07;100 nA
-0,050048828125;78,4879018018371;1,55029296875E-08;-0,049835205078125;2;143;2,48701497912407E-07;-4,81212884187698E-07;100 nA
0;78,9883898005735;1,6265869140625E-08;9,1552734375E-05;2;144;2,48701497912407E-07;-4,81212884187698E-07;100 nA
0,050048828125;79,4888777993099;1,69677734375E-08;0,050048828125;3;145;2,66006588935852E-07;-4,77195903658867E-07;100 nA
0,10009765625;79,9893657980463;1,7578125E-08;0,10009765625;3;146;2,66006588935852E-07;-4,77195903658867E-07;100 nA
0,150146484375;80,4898537967827;1,7669677734375E-08;0,150115966796875;3;147;2,66006588935852E-07;-4,77195903658867E-07;100 nA
0,2001953125;80,990341795519;1,77001953125E-08;0,2000732421875;3;148;2,66006588935852E-07;-4,77195903658867E-07;100 nA
0,250244140625;81,4908297942554;1,806640625E-08;0,2501220703125;3;149;2,66006588935852E-07;-4,77195903658867E-07;100 nA
0,30029296875;81,9913177929918;1,861572265625E-08;0,3001708984375;3;150;2,66006588935852E-07;-4,77195903658867E-07;100 nA
0,350341796875;82,4918057917282;1,9317626953125E-08;0,35015869140625;3;151;2,66006588935852E-07;-4,77195903658867E-07;100 nA
0,400390625;82,9922937904646;1,9622802734375E-08;0,400115966796875;3;152;2,66006588935852E-07;-4,77195903658867E-07;100 nA
0,450439453125;83,492781789201;1,947021484375E-08;0,45013427734375;3;153;2,66006588935852E-07;-4,77195903658867E-07;100 nA
0,50048828125;83,9932697879374;1,8463134765625E-08;0,50018310546875;3;154;2,66006588935852E-07;-4,77195903658867E-07;100 nA
0,550537109375;84,4937577866738;1,702880859375E-08;0,550201416015625;3;155;2,66006588935852E-07;-4,77195903658867E-07;100 nA
0,6005859375;84,9942457854102;1,641845703125E-08;0,60015869140625;3;156;2,66006588935852E-07;-4,77195903658867E-07;100 nA
0,650634765625;85,4947337841465;1,5716552734375E-08;0,65008544921875;3;157;2,66006588935852E-07;-4,77195903658867E-07;100 nA
0,70068359375;85,9952217828829;1,5167236328125E-08;0,7000732421875;3;158;2,66006588935852E-07;-4,77195903658867E-07;100 nA
0,750732421875;86,4957097816193;1,46484375E-08;0,74993896484375;3;159;2,66006588935852E-07;-4,77195903658867E-07;100 nA
0,80078125;86,9961977803557;1,3397216796875E-08;0,79986572265625;3;160;2,66006588935852E-07;-4,77195903658867E-07;100 nA
0,850830078125;87,4966857790921;1,348876953125E-08;0,849609375;3;161;2,66006588935852E-07;-4,77195903658867E-07;100 nA
0,90087890625;87,9971737778285;1,3458251953125E-08;0,89996337890625;3;162;2,66006588935852E-07;-4,77195903658867E-07;100 nA
0,950927734375;88,4976617765649;1,348876953125E-08;0,95001220703125;3;163;2,66006588935852E-07;-4,77195903658867E-07;100 nA
1,0009765625;88,9981497753013;1,37939453125E-08;0,9991455078125;3;164;2,66006588935852E-07;-4,77195903658867E-07;100 nA
0,950927734375;89,4986377740377;9,246826171875E-09;0,94940185546875;3;165;2,66006588935852E-07;-4,77195903658867E-07;100 nA
0,90087890625;89,9991257727741;6,744384765625E-09;0,9002685546875;3;166;2,66006588935852E-07;-4,77195903658867E-07;100 nA
0,850830078125;90,4996137715104;5,06591796875E-09;0,84991455078125;3;167;2,66006588935852E-07;-4,77195903658867E-07;100 nA
0,80078125;91,0001017702468;4,486083984375E-09;0,8001708984375;3;168;2,66006588935852E-07;-4,77195903658867E-07;100 nA
0,750732421875;91,5005897689832;4,638671875E-09;0,7498779296875;3;169;2,66006588935852E-07;-4,77195903658867E-07;100 nA
0,70068359375;92,0010777677196;3,72314453125E-09;0,699920654296875;3;170;2,66006588935852E-07;-4,77195903658867E-07;100 nA
0,650634765625;92,501565766456;2,838134765625E-09;0,6500244140625;3;171;2,66006588935852E-07;-4,77195903658867E-07;100 nA
0,6005859375;93,0020537651924;2,349853515625E-09;0,60009765625;3;172;2,66006588935852E-07;-4,77195903658867E-07;100 nA
0,550537109375;93,5025417639288;1,312255859375E-09;0,5501708984375;3;173;2,66006588935852E-07;-4,77195903658867E-07;100 nA
0,50048828125;94,0030297626652;5,79833984375E-10;0,50006103515625;3;174;2,66006588935852E-07;-4,77195903658867E-07;100 nA
0,450439453125;94,5035177614016;-6,103515625E-10;0,450042724609375;3;175;2,66006588935852E-07;-4,77195903658867E-07;100 nA
0,400390625;95,0040057601379;-1,129150390625E-09;0,400054931640625;3;176;2,66006588935852E-07;-4,77195903658867E-07;100 nA
0,350341796875;95,5044937588743;-2,44140625E-09;0,350067138671875;3;177;2,66006588935852E-07;-4,77195903658867E-07;100 nA
0,30029296875;96,0049817576107;-2,86865234375E-09;0,300048828125;3;178;2,66006588935852E-07;-4,77195903658867E-07;100 nA
0,250244140625;96,5054697563471;-3,692626953125E-09;0,25;3;179;2,66006588935852E-07;-4,77195903658867E-07;100 nA
0,2001953125;97,0059577550835;-4,608154296875E-09;0,199981689453125;3;180;2,66006588935852E-07;-4,77195903658867E-07;100 nA
0,150146484375;97,5064457538199;-5,126953125E-09;0,1500244140625;3;181;2,66006588935852E-07;-4,77195903658867E-07;100 nA
0,10009765625;98,0069337525563;-6,40869140625E-09;0,100006103515625;3;182;2,66006588935852E-07;-4,77195903658867E-07;100 nA
0,050048828125;98,5074217512927;-7,568359375E-09;0,049957275390625;3;183;2,66006588935852E-07;-4,77195903658867E-07;100 nA
0;99,0079097500291;-9,918212890625E-09;0,000131225585937506;3;184;2,66006588935852E-07;-4,77195903658867E-07;100 nA
-0,050048828125;99,5083977487654;-1,3275146484375E-08;-0,0498046875;3;185;2,66006588935852E-07;-4,77195903658867E-07;100 nA
-0,10009765625;100,008885747502;-1,702880859375E-08;-0,0997314453125;3;186;2,66006588935852E-07;-4,77195903658867E-07;100 nA
-0,150146484375;100,509373746238;-2,1820068359375E-08;-0,149566650390625;3;187;2,66006588935852E-07;-4,77195903658867E-07;100 nA
-0,2001953125;101,009861744975;-2,44140625E-08;-0,199432373046875;3;188;2,66006588935852E-07;-4,77195903658867E-07;100 nA
-0,250244140625;101,510349743711;-2,3712158203125E-08;-0,24932861328125;3;189;2,66006588935852E-07;-4,77195903658867E-07;100 nA
-0,30029296875;102,010837742447;-2,06298828125E-08;-0,299285888671875;3;190;2,66006588935852E-07;-4,77195903658867E-07;100 nA
-0,350341796875;102,511325741184;-1,7181396484375E-08;-0,349151611328125;3;191;2,66006588935852E-07;-4,77195903658867E-07;100 nA
-0,400390625;103,01181373992;-1,5350341796875E-08;-0,39910888671875;3;192;2,66006588935852E-07;-4,77195903658867E-07;100 nA
-0,450439453125;103,512301738657;-1,4862060546875E-08;-0,448944091796875;3;193;2,66006588935852E-07;-4,77195903658867E-07;100 nA
-0,50048828125;104,012789737393;-1,6265869140625E-08;-0,498870849609375;3;194;2,66006588935852E-07;-4,77195903658867E-07;100 nA
-0,550537109375;104,513277736129;-2,1636962890625E-08;-0,5487060546875;3;195;2,66006588935852E-07;-4,77195903658867E-07;100 nA
-0,6005859375;105,013765734866;-3,338623046875E-08;-0,598602294921875;3;196;2,66006588935852E-07;-4,77195903658867E-07;100 nA
-0,650634765625;105,514253733602;-5,40771484375E-08;-0,648468017578125;3;197;2,66006588935852E-07;-4,77195903658867E-07;100 nA
-0,70068359375;106,014741732339;-8,9141845703125E-08;-0,698394775390625;3;198;2,66006588935852E-07;-4,77195903658867E-07;100 nA
-0,750732421875;106,515229731075;-1,3714599609375E-07;-0,748291015625;3;199;2,66006588935852E-07;-4,77195903658867E-07;100 nA
-0,80078125;107,015717729811;-1,74468994140625E-07;-0,79864501953125;3;200;2,66006588935852E-07;-4,77195903658867E-07;100 nA
-0,750732421875;107,516205728548;-1,1712646484375E-07;-0,74835205078125;3;201;2,66006588935852E-07;-4,77195903658867E-07;100 nA
-0,70068359375;108,016693727284;-6,634521484375E-08;-0,698394775390625;3;202;2,66006588935852E-07;-4,77195903658867E-07;100 nA
-0,650634765625;108,51718172602;-2,7069091796875E-08;-0,6485595703125;3;203;2,66006588935852E-07;-4,77195903658867E-07;100 nA
-0,6005859375;109,017669724757;-4,150390625E-09;-0,5986328125;3;204;2,66006588935852E-07;-4,77195903658867E-07;100 nA
-0,550537109375;109,518157723493;7,049560546875E-09;-0,548797607421875;3;205;2,66006588935852E-07;-4,77195903658867E-07;100 nA
-0,50048828125;110,01864572223;1,0772705078125E-08;-0,4989013671875;3;206;2,66006588935852E-07;-4,77195903658867E-07;100 nA
-0,450439453125;110,519133720966;1,1932373046875E-08;-0,449005126953125;3;207;2,66006588935852E-07;-4,77195903658867E-07;100 nA
-0,400390625;111,019621719702;1,263427734375E-08;-0,399078369140625;3;208;2,66006588935852E-07;-4,77195903658867E-07;100 nA
-0,350341796875;111,520109718439;1,2786865234375E-08;-0,349212646484375;3;209;2,66006588935852E-07;-4,77195903658867E-07;100 nA
-0,30029296875;112,020597717175;1,287841796875E-08;-0,299285888671875;3;210;2,66006588935852E-07;-4,77195903658867E-07;100 nA
-0,250244140625;112,521085715912;1,3153076171875E-08;-0,249359130859375;3;211;2,66006588935852E-07;-4,77195903658867E-07;100 nA
-0,2001953125;113,021573714648;1,361083984375E-08;-0,19952392578125;3;212;2,66006588935852E-07;-4,77195903658867E-07;100 nA
-0,150146484375;113,522061713384;1,5228271484375E-08;-0,149627685546875;3;213;2,66006588935852E-07;-4,77195903658867E-07;100 nA
-0,10009765625;114,022549712121;1,5838623046875E-08;-0,0997314453125;3;214;2,66006588935852E-07;-4,77195903658867E-07;100 nA
-0,050048828125;114,523037710857;1,6876220703125E-08;-0,04986572265625;3;215;2,66006588935852E-07;-4,77195903658867E-07;100 nA
0;115,023525709594;1,7669677734375E-08;9,76562499999944E-05;3;216;2,66006588935852E-07;-4,77195903658867E-07;100 nA
0,050048828125;115,52401370833;1,8463134765625E-08;0,050079345703125;4;217;2,72772833704948E-07;-4,77730482816696E-07;100 nA
0,10009765625;116,024501707066;1,885986328125E-08;0,10009765625;4;218;2,72772833704948E-07;-4,77730482816696E-07;100 nA
0,150146484375;116,524989705803;1,898193359375E-08;0,150115966796875;4;219;2,72772833704948E-07;-4,77730482816696E-07;100 nA
0,2001953125;117,025477704539;1,89208984375E-08;0,200103759765625;4;220;2,72772833704948E-07;-4,77730482816696E-07;100 nA
0,250244140625;117,525965703275;1,9195556640625E-08;0,250091552734375;4;221;2,72772833704948E-07;-4,77730482816696E-07;100 nA
0,30029296875;118,026453702012;1,947021484375E-08;0,30010986328125;4;222;2,72772833704948E-07;-4,77730482816696E-07;100 nA
0,350341796875;118,526941700748;2,001953125E-08;0,35015869140625;4;223;2,72772833704948E-07;-4,77730482816696E-07;100 nA
0,400390625;119,027429699485;2,001953125E-08;0,400146484375;4;224;2,72772833704948E-07;-4,77730482816696E-07;100 nA
0,450439453125;119,527917698221;1,9744873046875E-08;0,4501953125;4;225;2,72772833704948E-07;-4,77730482816696E-07;100 nA
0,50048828125;120,028405696957;1,84326171875E-08;0,500091552734375;4;226;2,72772833704948E-07;-4,77730482816696E-07;100 nA
0,550537109375;120,528893695694;1,6815185546875E-08;0,550140380859375;4;227;2,72772833704948E-07;-4,77730482816696E-07;100 nA
0,6005859375;121,02938169443;1,6357421875E-08;0,60009765625;4;228;2,72772833704948E-07;-4,77730482816696E-07;100 nA
0,650634765625;121,529869693167;1,6021728515625E-08;0,65008544921875;4;229;2,72772833704948E-07;-4,77730482816696E-07;100 nA
0,70068359375;122,030357691903;1,5289306640625E-08;0,699951171875;4;230;2,72772833704948E-07;-4,77730482816696E-07;100 nA
0,750732421875;122,530845690639;1,4434814453125E-08;0,749847412109375;4;231;2,72772833704948E-07;-4,77730482816696E-07;100 nA
0,80078125;123,031333689376;1,3671875E-08;0,799560546875;4;232;2,72772833704948E-07;-4,77730482816696E-07;100 nA
0,850830078125;123,531821688112;1,3946533203125E-08;0,84991455078125;4;233;2,72772833704948E-07;-4,77730482816696E-07;100 nA
0,90087890625;124,032309686849;1,3824462890625E-08;0,89996337890625;4;234;2,72772833704948E-07;-4,77730482816696E-07;100 nA
0,950927734375;124,532797685585;1,3519287109375E-08;0,95001220703125;4;235;2,72772833704948E-07;-4,77730482816696E-07;100 nA
1,0009765625;125,033285684321;1,3763427734375E-08;0,99945068359375;4;236;2,72772833704948E-07;-4,77730482816696E-07;100 nA
0,950927734375;125,533773683058;9,46044921875E-09;0,95001220703125;4;237;2,72772833704948E-07;-4,77730482816696E-07;100 nA
0,90087890625;126,034261681794;6,591796875E-09;0,899658203125;4;238;2,72772833704948E-07;-4,77730482816696E-07;100 nA
0,850830078125;126,53474968053;5,859375E-09;0,84991455078125;4;239;2,72772833704948E-07;-4,77730482816696E-07;100 nA
0,80078125;127,035237679267;5,126953125E-09;0,8001708984375;4;240;2,72772833704948E-07;-4,77730482816696E-07;100 nA
0,750732421875;127,535725678003;4,5166015625E-09;0,74981689453125;4;241;2,72772833704948E-07;-4,77730482816696E-07;100 nA
0,70068359375;128,03621367674;4,150390625E-09;0,69989013671875;4;242;2,72772833704948E-07;-4,77730482816696E-07;100 nA
0,650634765625;128,536701675476;3,326416015625E-09;0,6500244140625;4;243;2,72772833704948E-07;-4,77730482816696E-07;100 nA
0,6005859375;129,037189674212;2,410888671875E-09;0,60003662109375;4;244;2,72772833704948E-07;-4,77730482816696E-07;100 nA
0,550537109375;129,537677672949;1,220703125E-09;0,550048828125;4;245;2,72772833704948E-07;-4,77730482816696E-07;100 nA
0,50048828125;130,038165671685;9,765625E-10;0,500091552734375;4;246;2,72772833704948E-07;-4,77730482816696E-07;100 nA
0,450439453125;130,538653670422;-9,1552734375E-11;0,4500732421875;4;247;2,72772833704948E-07;-4,77730482816696E-07;100 nA
0,400390625;131,039141669158;-8,23974609375E-10;0,400115966796875;4;248;2,72772833704948E-07;-4,77730482816696E-07;100 nA
0,350341796875;131,539629667894;-1,708984375E-09;0,350067138671875;4;249;2,72772833704948E-07;-4,77730482816696E-07;100 nA
0,30029296875;132,040117666631;-2,50244140625E-09;0,300048828125;4;250;2,72772833704948E-07;-4,77730482816696E-07;100 nA
0,250244140625;132,540605665367;-3,0517578125E-09;0,25;4;251;2,72772833704948E-07;-4,77730482816696E-07;100 nA
0,2001953125;133,041093664104;-3,90625E-09;0,20001220703125;4;252;2,72772833704948E-07;-4,77730482816696E-07;100 nA
0,150146484375;133,54158166284;-4,82177734375E-09;0,1500244140625;4;253;2,72772833704948E-07;-4,77730482816696E-07;100 nA
0,10009765625;134,042069661576;-5,828857421875E-09;0,0999755859375;4;254;2,72772833704948E-07;-4,77730482816696E-07;100 nA
0,050048828125;134,542557660313;-7,26318359375E-09;0,05010986328125;4;255;2,72772833704948E-07;-4,77730482816696E-07;100 nA
0;135,043045659049;-9,09423828125E-09;0,000140380859374997;4;256;2,72772833704948E-07;-4,77730482816696E-07;100 nA
-0,050048828125;135,543533657785;-1,1871337890625E-08;-0,049835205078125;4;257;2,72772833704948E-07;-4,77730482816696E-07;100 nA
-0,10009765625;136,044021656522;-1,6082763671875E-08;-0,099700927734375;4;258;2,72772833704948E-07;-4,77730482816696E-07;100 nA
-0,150146484375;136,544509655258;-2,1026611328125E-08;-0,14959716796875;4;259;2,72772833704948E-07;-4,77730482816696E-07;100 nA
-0,2001953125;137,044997653995;-2,4932861328125E-08;-0,199493408203125;4;260;2,72772833704948E-07;-4,77730482816696E-07;100 nA
-0,250244140625;137,545485652731;-2,5421142578125E-08;-0,24932861328125;4;261;2,72772833704948E-07;-4,77730482816696E-07;100 nA
-0,30029296875;138,045973651467;-2,252197265625E-08;-0,29925537109375;4;262;2,72772833704948E-07;-4,77730482816696E-07;100 nA
-0,350341796875;138,546461650204;-1,8096923828125E-08;-0,34918212890625;4;263;2,72772833704948E-07;-4,77730482816696E-07;100 nA
-0,400390625;139,04694964894;-1,5655517578125E-08;-0,399078369140625;4;264;2,72772833704948E-07;-4,77730482816696E-07;100 nA
-0,450439453125;139,547437647677;-1,422119140625E-08;-0,449005126953125;4;265;2,72772833704948E-07;-4,77730482816696E-07;100 nA
-0,50048828125;140,047925646413;-1,5625E-08;-0,498809814453125;4;266;2,72772833704948E-07;-4,77730482816696E-07;100 nA
-0,550537109375;140,548413645149;-2,0416259765625E-08;-0,548797607421875;4;267;2,72772833704948E-07;-4,77730482816696E-07;100 nA
-0,6005859375;141,048901643886;-3,25927734375E-08;-0,59857177734375;4;268;2,72772833704948E-07;-4,77730482816696E-07;100 nA
-0,650634765625;141,549389642622;-5,4107666015625E-08;-0,6484375;4;269;2,72772833704948E-07;-4,77730482816696E-07;100 nA
-0,70068359375;142,049877641359;-9,08203125E-08;-0,6983642578125;4;270;2,72772833704948E-07;-4,77730482816696E-07;100 nA
-0,750732421875;142,550365640095;-1,3873291015625E-07;-0,748321533203125;4;271;2,72772833704948E-07;-4,77730482816696E-07;100 nA
-0,80078125;143,050853638831;-1,75048828125E-07;-0,79864501953125;4;272;2,72772833704948E-07;-4,77730482816696E-07;100 nA
-0,750732421875;143,551341637568;-1,18133544921875E-07;-0,748291015625;4;273;2,72772833704948E-07;-4,77730482816696E-07;100 nA
-0,70068359375;144,051829636304;-6,7352294921875E-08;-0,69842529296875;4;274;2,72772833704948E-07;-4,77730482816696E-07;100 nA
-0,650634765625;144,55231763504;-2,79541015625E-08;-0,648529052734375;4;275;2,72772833704948E-07;-4,77730482816696E-07;100 nA
-0,6005859375;145,052805633777;-4,82177734375E-09;-0,598663330078125;4;276;2,72772833704948E-07;-4,77730482816696E-07;100 nA
-0,550537109375;145,553293632513;6,16455078125E-09;-0,548828125;4;277;2,72772833704948E-07;-4,77730482816696E-07;100 nA
-0,50048828125;146,05378163125;9,8876953125E-09;-0,4989013671875;4;278;2,72772833704948E-07;-4,77730482816696E-07;100 nA
-0,450439453125;146,554269629986;1,1749267578125E-08;-0,449005126953125;4;279;2,72772833704948E-07;-4,77730482816696E-07;100 nA
-0,400390625;147,054757628722;1,2420654296875E-08;-0,399139404296875;4;280;2,72772833704948E-07;-4,77730482816696E-07;100 nA
-0,350341796875;147,555245627459;1,2603759765625E-08;-0,349212646484375;4;281;2,72772833704948E-07;-4,77730482816696E-07;100 nA
-0,30029296875;148,055733626195;1,2939453125E-08;-0,29931640625;4;282;2,72772833704948E-07;-4,77730482816696E-07;100 nA
-0,250244140625;148,556221624932;1,3336181640625E-08;-0,249359130859375;4;283;2,72772833704948E-07;-4,77730482816696E-07;100 nA
-0,2001953125;149,056709623668;1,422119140625E-08;-0,199493408203125;4;284;2,72772833704948E-07;-4,77730482816696E-07;100 nA
-0,150146484375;149,557197622404;1,5380859375E-08;-0,149566650390625;4;285;2,72772833704948E-07;-4,77730482816696E-07;100 nA
-0,10009765625;150,057685621141;1,6571044921875E-08;-0,099700927734375;4;286;2,72772833704948E-07;-4,77730482816696E-07;100 nA
-0,050048828125;150,558173619877;1,763916015625E-08;-0,049835205078125;4;287;2,72772833704948E-07;-4,77730482816696E-07;100 nA
0;151,058661618614;1,8707275390625E-08;0,000100708007812506;4;288;2,72772833704948E-07;-4,77730482816696E-07;100 nA
0,050048828125;151,55914961735;1,9256591796875E-08;0,050079345703125;5;289;2,76469066739082E-07;-4,75118681788444E-07;100 nA
0,10009765625;152,059637616086;1,953125E-08;0,10009765625;5;290;2,76469066739082E-07;-4,75118681788444E-07;100 nA
0,150146484375;152,560125614823;1,9683837890625E-08;0,150115966796875;5;291;2,76469066739082E-07;-4,75118681788444E-07;100 nA
0,2001953125;153,060613613559;1,9683837890625E-08;0,2000732421875;5;292;2,76469066739082E-07;-4,75118681788444E-07;100 nA
0,250244140625;153,561101612295;1,971435546875E-08;0,250091552734375;5;293;2,76469066739082E-07;-4,75118681788444E-07;100 nA
0,30029296875;154,061589611032;1,9927978515625E-08;0,300140380859375;5;294;2,76469066739082E-07;-4,75118681788444E-07;100 nA
0,350341796875;154,562077609768;2,0050048828125E-08;0,35015869140625;5;295;2,76469066739082E-07;-4,75118681788444E-07;100 nA
0,400390625;155,062565608505;1,995849609375E-08;0,400146484375;5;296;2,76469066739082E-07;-4,75118681788444E-07;100 nA
0,450439453125;155,563053607241;1,9561767578125E-08;0,450164794921875;5;297;2,76469066739082E-07;-4,75118681788444E-07;100 nA
0,50048828125;156,063541605977;1,8585205078125E-08;0,500152587890625;5;298;2,76469066739082E-07;-4,75118681788444E-07;100 nA
0,550537109375;156,564029604714;1,727294921875E-08;0,5501708984375;5;299;2,76469066739082E-07;-4,75118681788444E-07;100 nA
0,6005859375;157,06451760345;1,6815185546875E-08;0,60009765625;5;300;2,76469066739082E-07;-4,75118681788444E-07;100 nA
0,650634765625;157,565005602187;1,629638671875E-08;0,650115966796875;5;301;2,76469066739082E-07;-4,75118681788444E-07;100 nA
0,70068359375;158,065493600923;1,568603515625E-08;0,70001220703125;5;302;2,76469066739082E-07;-4,75118681788444E-07;100 nA
0,750732421875;158,565981599659;1,50146484375E-08;0,749847412109375;5;303;2,76469066739082E-07;-4,75118681788444E-07;100 nA
0,80078125;159,066469598396;1,397705078125E-08;0,799560546875;5;304;2,76469066739082E-07;-4,75118681788444E-07;100 nA
0,850830078125;159,566957597132;1,434326171875E-08;0,84991455078125;5;305;2,76469066739082E-07;-4,75118681788444E-07;100 nA
0,90087890625;160,067445595869;1,3641357421875E-08;0,89996337890625;5;306;2,76469066739082E-07;-4,75118681788444E-07;100 nA
0,950927734375;160,567933594605;1,3671875E-08;0,94970703125;5;307;2,76469066739082E-07;-4,75118681788444E-07;100 nA
1,0009765625;161,068421593341;1,397705078125E-08;1,00006103515625;5;308;2,76469066739082E-07;-4,75118681788444E-07;100 nA
0,950927734375;161,568909592078;9,552001953125E-09;0,94940185546875;5;309;2,76469066739082E-07;-4,75118681788444E-07;100 nA
0,90087890625;162,069397590814;7,26318359375E-09;0,89996337890625;5;310;2,76469066739082E-07;-4,75118681788444E-07;100 nA
0,850830078125;162,56988558955;5,950927734375E-09;0,849609375;5;311;2,76469066739082E-07;-4,75118681788444E-07;100 nA
0,80078125;163,070373588287;5,126953125E-09;0,79986572265625;5;312;2,76469066739082E-07;-4,75118681788444E-07;100 nA
0,750732421875;163,570861587023;4,638671875E-09;0,7498779296875;5;313;2,76469066739082E-07;-4,75118681788444E-07;100 nA
0,70068359375;164,07134958576;4,241943359375E-09;0,699920654296875;5;314;2,76469066739082E-07;-4,75118681788444E-07;100 nA
0,650634765625;164,571837584496;3,631591796875E-09;0,649993896484375;5;315;2,76469066739082E-07;-4,75118681788444E-07;100 nA
0,6005859375;165,072325583232;2,685546875E-09;0,60009765625;5;316;2,76469066739082E-07;-4,75118681788444E-07;100 nA
0,550537109375;165,572813581969;1,983642578125E-09;0,55010986328125;5;317;2,76469066739082E-07;-4,75118681788444E-07;100 nA
0,50048828125;166,073301580705;1,007080078125E-09;0,50006103515625;5;318;2,76469066739082E-07;-4,75118681788444E-07;100 nA
0,450439453125;166,573789579442;2,13623046875E-10;0,4500732421875;5;319;2,76469066739082E-07;-4,75118681788444E-07;100 nA
0,400390625;167,074277578178;-2,74658203125E-10;0,400115966796875;5;320;2,76469066739082E-07;-4,75118681788444E-07;100 nA
0,350341796875;167,574765576914;-1,373291015625E-09;0,35009765625;5;321;2,76469066739082E-07;-4,75118681788444E-07;100 nA
0,30029296875;168,075253575651;-1,5869140625E-09;0,29998779296875;5;322;2,76469066739082E-07;-4,75118681788444E-07;100 nA
0,250244140625;168,575741574387;-2,777099609375E-09;0,25;5;323;2,76469066739082E-07;-4,75118681788444E-07;100 nA
0,2001953125;169,076229573124;-3,448486328125E-09;0,199981689453125;5;324;2,76469066739082E-07;-4,75118681788444E-07;100 nA
0,150146484375;169,57671757186;-4,364013671875E-09;0,149993896484375;5;325;2,76469066739082E-07;-4,75118681788444E-07;100 nA
0,10009765625;170,077205570596;-5,645751953125E-09;0,100006103515625;5;326;2,76469066739082E-07;-4,75118681788444E-07;100 nA
0,050048828125;170,577693569333;-6,744384765625E-09;0,050018310546875;5;327;2,76469066739082E-07;-4,75118681788444E-07;100 nA
0;171,078181568069;-8,6669921875E-09;0,000152587890625;5;328;2,76469066739082E-07;-4,75118681788444E-07;100 nA
-0,050048828125;171,578669566806;-1,123046875E-08;-0,0498046875;5;329;2,76469066739082E-07;-4,75118681788444E-07;100 nA
-0,10009765625;172,079157565542;-1,52587890625E-08;-0,0997314453125;5;330;2,76469066739082E-07;-4,75118681788444E-07;100 nA
-0,150146484375;172,579645564278;-2,032470703125E-08;-0,149566650390625;5;331;2,76469066739082E-07;-4,75118681788444E-07;100 nA
-0,2001953125;173,080133563015;-2,484130859375E-08;-0,199462890625;5;332;2,76469066739082E-07;-4,75118681788444E-07;100 nA
-0,250244140625;173,580621561751;-2,6214599609375E-08;-0,24932861328125;5;333;2,76469066739082E-07;-4,75118681788444E-07;100 nA
-0,30029296875;174,081109560487;-2,35595703125E-08;-0,299224853515625;5;334;2,76469066739082E-07;-4,75118681788444E-07;100 nA
-0,350341796875;174,581597559224;-1,8646240234375E-08;-0,34912109375;5;335;2,76469066739082E-07;-4,75118681788444E-07;100 nA
-0,400390625;175,08208555796;-1,5472412109375E-08;-0,39898681640625;5;336;2,76469066739082E-07;-4,75118681788444E-07;100 nA
-0,450439453125;175,582573556697;-1,37939453125E-08;-0,448974609375;5;337;2,76469066739082E-07;-4,75118681788444E-07;100 nA
-0,50048828125;176,083061555433;-1,513671875E-08;-0,498809814453125;5;338;2,76469066739082E-07;-4,75118681788444E-07;100 nA
-0,550537109375;176,583549554169;-1,947021484375E-08;-0,548736572265625;5;339;2,76469066739082E-07;-4,75118681788444E-07;100 nA
-0,6005859375;177,084037552906;-3,1646728515625E-08;-0,5985107421875;5;340;2,76469066739082E-07;-4,75118681788444E-07;100 nA
-0,650634765625;177,584525551642;-5,38330078125E-08;-0,6484375;5;341;2,76469066739082E-07;-4,75118681788444E-07;100 nA
-0,70068359375;178,085013550379;-9,0972900390625E-08;-0,69830322265625;5;342;2,76469066739082E-07;-4,75118681788444E-07;100 nA
-0,750732421875;178,585501549115;-1,39129638671875E-07;-0,748260498046875;5;343;2,76469066739082E-07;-4,75118681788444E-07;100 nA
-0,80078125;179,085989547851;-1,7462158203125E-07;-0,79833984375;5;344;2,76469066739082E-07;-4,75118681788444E-07;100 nA
-0,750732421875;179,586477546588;-1,1822509765625E-07;-0,748291015625;5;345;2,76469066739082E-07;-4,75118681788444E-07;100 nA
-0,70068359375;180,086965545324;-6,7840576171875E-08;-0,69842529296875;5;346;2,76469066739082E-07;-4,75118681788444E-07;100 nA
-0,650634765625;180,587453544061;-2,850341796875E-08;-0,648529052734375;5;347;2,76469066739082E-07;-4,75118681788444E-07;100 nA
-0,6005859375;181,087941542797;-5,706787109375E-09;-0,598663330078125;5;348;2,76469066739082E-07;-4,75118681788444E-07;100 nA
-0,550537109375;181,588429541533;5,706787109375E-09;-0,548858642578125;5;349;2,76469066739082E-07;-4,75118681788444E-07;100 nA
-0,50048828125;182,08891754027;9,765625E-09;-0,4989013671875;5;350;2,76469066739082E-07;-4,75118681788444E-07;100 nA
-0,450439453125;182,589405539006;1,0986328125E-08;-0,44903564453125;5;351;2,76469066739082E-07;-4,75118681788444E-07;100 nA
-0,400390625;183,089893537742;1,15966796875E-08;-0,399139404296875;5;352;2,76469066739082E-07;-4,75118681788444E-07;100 nA
-0,350341796875;183,590381536479;1,2481689453125E-08;-0,349273681640625;5;353;2,76469066739082E-07;-4,75118681788444E-07;100 nA
-0,30029296875;184,090869535215;1,2786865234375E-08;-0,29937744140625;5;354;2,76469066739082E-07;-4,75118681788444E-07;100 nA
-0,250244140625;184,591357533952;1,3153076171875E-08;-0,24951171875;5;355;2,76469066739082E-07;-4,75118681788444E-07;100 nA
-0,2001953125;185,091845532688;1,4190673828125E-08;-0,199615478515625;5;356;2,76469066739082E-07;-4,75118681788444E-07;100 nA
-0,150146484375;185,592333531424;1,5411376953125E-08;-0,149810791015625;5;357;2,76469066739082E-07;-4,75118681788444E-07;100 nA
-0,10009765625;186,092821530161;1,6571044921875E-08;-0,09991455078125;5;358;2,76469066739082E-07;-4,75118681788444E-07;100 nA
-0,050048828125;186,593309528897;1,7822265625E-08;-0,050018310546875;5;359;2,76469066739082E-07;-4,75118681788444E-07;100 nA
0;187,093797527634;1,898193359375E-08;7,62939453125E-05;5;360;2,76469066739082E-07;-4,75118681788444E-07;100 nA
0,050048828125;187,59428552637;1,910400390625E-08;0,0500518798828125;6;361;2,79936194419861E-07;-4,79609146714211E-07;100 nA
0,10009765625;188,094773525106;1,971435546875E-08;0,09991455078125;6;362;2,79936194419861E-07;-4,79609146714211E-07;100 nA
0,150146484375;188,595261523843;1,953125E-08;0,149932861328125;6;363;2,79936194419861E-07;-4,79609146714211E-07;100 nA
0,2001953125;189,095749522579;1,9500732421875E-08;0,199951171875;6;364;2,79936194419861E-07;-4,79609146714211E-07;100 nA
0,250244140625;189,596237521316;1,947021484375E-08;0,249969482421875;6;365;2,79936194419861E-07;-4,79609146714211E-07;100 nA
0,30029296875;190,096725520052;1,9744873046875E-08;0,299957275390625;6;366;2,79936194419861E-07;-4,79609146714211E-07;100 nA
0,350341796875;190,597213518788;1,9927978515625E-08;0,350006103515625;6;367;2,79936194419861E-07;-4,79609146714211E-07;100 nA
0,400390625;191,097701517525;2,001953125E-08;0,400054931640625;6;368;2,79936194419861E-07;-4,79609146714211E-07;100 nA
0,450439453125;191,598189516261;1,9378662109375E-08;0,450042724609375;6;369;2,79936194419861E-07;-4,79609146714211E-07;100 nA
0,50048828125;192,098677514997;1,8280029296875E-08;0,50006103515625;6;370;2,79936194419861E-07;-4,79609146714211E-07;100 nA
0,550537109375;192,599165513734;1,739501953125E-08;0,5501708984375;6;371;2,79936194419861E-07;-4,79609146714211E-07;100 nA
0,6005859375;193,09965351247;1,6815185546875E-08;0,600128173828125;6;372;2,79936194419861E-07;-4,79609146714211E-07;100 nA
0,650634765625;193,600141511207;1,6326904296875E-08;0,65008544921875;6;373;2,79936194419861E-07;-4,79609146714211E-07;100 nA
0,70068359375;194,100629509943;1,5960693359375E-08;0,699981689453125;6;374;2,79936194419861E-07;-4,79609146714211E-07;100 nA
0,750732421875;194,601117508679;1,5228271484375E-08;0,749908447265625;6;375;2,79936194419861E-07;-4,79609146714211E-07;100 nA
0,80078125;195,101605507416;1,434326171875E-08;0,799560546875;6;376;2,79936194419861E-07;-4,79609146714211E-07;100 nA
0,850830078125;195,602093506152;1,409912109375E-08;0,84991455078125;6;377;2,79936194419861E-07;-4,79609146714211E-07;100 nA
0,90087890625;196,102581504889;1,4068603515625E-08;0,89996337890625;6;378;2,79936194419861E-07;-4,79609146714211E-07;100 nA
0,950927734375;196,603069503625;1,40380859375E-08;0,94970703125;6;379;2,79936194419861E-07;-4,79609146714211E-07;100 nA
1,0009765625;197,103557502361;1,4007568359375E-08;0,999755859375;6;380;2,79936194419861E-07;-4,79609146714211E-07;100 nA
0,950927734375;197,604045501098;9,918212890625E-09;0,95001220703125;6;381;2,79936194419861E-07;-4,79609146714211E-07;100 nA
0,90087890625;198,104533499834;7,781982421875E-09;0,9002685546875;6;382;2,79936194419861E-07;-4,79609146714211E-07;100 nA
0,850830078125;198,605021498571;6,16455078125E-09;0,85052490234375;6;383;2,79936194419861E-07;-4,79609146714211E-07;100 nA
0,80078125;199,105509497307;5,767822265625E-09;0,79986572265625;6;384;2,79936194419861E-07;-4,79609146714211E-07;100 nA
0,750732421875;199,605997496043;4,730224609375E-09;0,74993896484375;6;385;2,79936194419861E-07;-4,79609146714211E-07;100 nA
0,70068359375;200,10648549478;4,45556640625E-09;0,70001220703125;6;386;2,79936194419861E-07;-4,79609146714211E-07;100 nA
0,650634765625;200,606973493516;3,631591796875E-09;0,650115966796875;6;387;2,79936194419861E-07;-4,79609146714211E-07;100 nA
0,6005859375;201,107461492252;3,0517578125E-09;0,60015869140625;6;388;2,79936194419861E-07;-4,79609146714211E-07;100 nA
0,550537109375;201,607949490989;2,471923828125E-09;0,550262451171875;6;389;2,79936194419861E-07;-4,79609146714211E-07;100 nA
0,50048828125;202,108437489725;1,434326171875E-09;0,500152587890625;6;390;2,79936194419861E-07;-4,79609146714211E-07;100 nA
0,450439453125;202,608925488462;5,79833984375E-10;0,450103759765625;6;391;2,79936194419861E-07;-4,79609146714211E-07;100 nA
0,400390625;203,109413487198;3,0517578125E-11;0,400115966796875;6;392;2,79936194419861E-07;-4,79609146714211E-07;100 nA
0,350341796875;203,609901485934;-7,62939453125E-10;0,35015869140625;6;393;2,79936194419861E-07;-4,79609146714211E-07;100 nA
0,30029296875;204,110389484671;-1,495361328125E-09;0,30010986328125;6;394;2,79936194419861E-07;-4,79609146714211E-07;100 nA
0,250244140625;204,610877483407;-2,25830078125E-09;0,25006103515625;6;395;2,79936194419861E-07;-4,79609146714211E-07;100 nA
0,2001953125;205,111365482144;-3,173828125E-09;0,200103759765625;6;396;2,79936194419861E-07;-4,79609146714211E-07;100 nA
0,150146484375;205,61185348088;-4,730224609375E-09;0,150054931640625;6;397;2,79936194419861E-07;-4,79609146714211E-07;100 nA
0,10009765625;206,112341479616;-4,974365234375E-09;0,100006103515625;6;398;2,79936194419861E-07;-4,79609146714211E-07;100 nA
0,050048828125;206,612829478353;-6,77490234375E-09;0,050048828125;6;399;2,79936194419861E-07;-4,79609146714211E-07;100 nA
0;207,113317477089;-8,575439453125E-09;0,000134277343750003;6;400;2,79936194419861E-07;-4,79609146714211E-07;100 nA
-0,050048828125;207,613805475826;-1,0894775390625E-08;-0,049896240234375;6;401;2,79936194419861E-07;-4,79609146714211E-07;100 nA
-0,10009765625;208,114293474562;-1,52587890625E-08;-0,099700927734375;6;402;2,79936194419861E-07;-4,79609146714211E-07;100 nA
-0,150146484375;208,614781473298;-2,020263671875E-08;-0,149566650390625;6;403;2,79936194419861E-07;-4,79609146714211E-07;100 nA
-0,2001953125;209,115269472035;-2,50244140625E-08;-0,199462890625;6;404;2,79936194419861E-07;-4,79609146714211E-07;100 nA
-0,250244140625;209,615757470771;-2,703857421875E-08;-0,249359130859375;6;405;2,79936194419861E-07;-4,79609146714211E-07;100 nA
-0,30029296875;210,116245469507;-2,47802734375E-08;-0,299285888671875;6;406;2,79936194419861E-07;-4,79609146714211E-07;100 nA
-0,350341796875;210,616733468244;-1,983642578125E-08;-0,34918212890625;6;407;2,79936194419861E-07;-4,79609146714211E-07;100 nA
-0,400390625;211,11722146698;-1,6571044921875E-08;-0,399139404296875;6;408;2,79936194419861E-07;-4,79609146714211E-07;100 nA
-0,450439453125;211,617709465717;-1,42822265625E-08;-0,449005126953125;6;409;2,79936194419861E-07;-4,79609146714211E-07;100 nA
-0,50048828125;212,118197464453;-1,5106201171875E-08;-0,498870849609375;6;410;2,79936194419861E-07;-4,79609146714211E-07;100 nA
-0,550537109375;212,618685463189;-1,94091796875E-08;-0,548828125;6;411;2,79936194419861E-07;-4,79609146714211E-07;100 nA
-0,6005859375;213,119173461926;-3,192138671875E-08;-0,598663330078125;6;412;2,79936194419861E-07;-4,79609146714211E-07;100 nA
-0,650634765625;213,619661460662;-5,438232421875E-08;-0,648529052734375;6;413;2,79936194419861E-07;-4,79609146714211E-07;100 nA
-0,70068359375;214,120149459399;-9,24072265625E-08;-0,698455810546875;6;414;2,79936194419861E-07;-4,79609146714211E-07;100 nA
-0,750732421875;214,620637458135;-1,40045166015625E-07;-0,748382568359375;6;415;2,79936194419861E-07;-4,79609146714211E-07;100 nA
-0,80078125;215,121125456871;-1,75079345703125E-07;-0,79864501953125;6;416;2,79936194419861E-07;-4,79609146714211E-07;100 nA
-0,750732421875;215,621613455608;-1,19049072265625E-07;-0,74847412109375;6;417;2,79936194419861E-07;-4,79609146714211E-07;100 nA
-0,70068359375;216,122101454344;-6,8878173828125E-08;-0,698516845703125;6;418;2,79936194419861E-07;-4,79609146714211E-07;100 nA
-0,650634765625;216,622589453081;-2,923583984375E-08;-0,648590087890625;6;419;2,79936194419861E-07;-4,79609146714211E-07;100 nA
-0,6005859375;217,123077451817;-6,134033203125E-09;-0,598663330078125;6;420;2,79936194419861E-07;-4,79609146714211E-07;100 nA
-0,550537109375;217,623565450553;5,401611328125E-09;-0,548828125;6;421;2,79936194419861E-07;-4,79609146714211E-07;100 nA
-0,50048828125;218,12405344929;8,85009765625E-09;-0,49896240234375;6;422;2,79936194419861E-07;-4,79609146714211E-07;100 nA
-0,450439453125;218,624541448026;1,080322265625E-08;-0,4490966796875;6;423;2,79936194419861E-07;-4,79609146714211E-07;100 nA
-0,400390625;219,125029446762;1,15966796875E-08;-0,399139404296875;6;424;2,79936194419861E-07;-4,79609146714211E-07;100 nA
-0,350341796875;219,625517445499;1,239013671875E-08;-0,349273681640625;6;425;2,79936194419861E-07;-4,79609146714211E-07;100 nA
-0,30029296875;220,126005444235;1,28173828125E-08;-0,29931640625;6;426;2,79936194419861E-07;-4,79609146714211E-07;100 nA
-0,250244140625;220,626493442972;1,3824462890625E-08;-0,249481201171875;6;427;2,79936194419861E-07;-4,79609146714211E-07;100 nA
-0,2001953125;221,126981441708;1,4923095703125E-08;-0,199493408203125;6;428;2,79936194419861E-07;-4,79609146714211E-07;100 nA
-0,150146484375;221,627469440444;1,59912109375E-08;-0,149688720703125;6;429;2,79936194419861E-07;-4,79609146714211E-07;100 nA
-0,10009765625;222,127957439181;1,739501953125E-08;-0,099761962890625;6;430;2,79936194419861E-07;-4,79609146714211E-07;100 nA
-0,050048828125;222,628445437917;1,8585205078125E-08;-0,049896240234375;6;431;2,79936194419861E-07;-4,79609146714211E-07;100 nA
0;223,128933436654;1,9775390625E-08;6,71386718749944E-05;6;432;2,79936194419861E-07;-4,79609146714211E-07;100 nA
0,050048828125;223,62942143539;2,0111083984375E-08;0,050079345703125;7;433;2,83128395676613E-07;-4,76676598191261E-07;100 nA
0,10009765625;224,129909434126;2,0416259765625E-08;0,100067138671875;7;434;2,83128395676613E-07;-4,76676598191261E-07;100 nA
0,150146484375;224,630397432863;2,05078125E-08;0,150054931640625;7;435;2,83128395676613E-07;-4,76676598191261E-07;100 nA
0,2001953125;225,130885431599;2,032470703125E-08;0,200042724609375;7;436;2,83128395676613E-07;-4,76676598191261E-07;100 nA
0,250244140625;225,631373430336;2,0172119140625E-08;0,250091552734375;7;437;2,83128395676613E-07;-4,76676598191261E-07;100 nA
0,30029296875;226,131861429072;2,008056640625E-08;0,30010986328125;7;438;2,83128395676613E-07;-4,76676598191261E-07;100 nA
0,350341796875;226,632349427808;1,9989013671875E-08;0,350128173828125;7;439;2,83128395676613E-07;-4,76676598191261E-07;100 nA
0,400390625;227,132837426545;1,9805908203125E-08;0,40008544921875;7;440;2,83128395676613E-07;-4,76676598191261E-07;100 nA
0,450439453125;227,633325425281;1,934814453125E-08;0,450164794921875;7;441;2,83128395676613E-07;-4,76676598191261E-07;100 nA
0,50048828125;228,133813424017;1,8798828125E-08;0,500091552734375;7;442;2,83128395676613E-07;-4,76676598191261E-07;100 nA
0,550537109375;228,634301422754;1,751708984375E-08;0,55010986328125;7;443;2,83128395676613E-07;-4,76676598191261E-07;100 nA
0,6005859375;229,13478942149;1,66015625E-08;0,60015869140625;7;444;2,83128395676613E-07;-4,76676598191261E-07;100 nA
0,650634765625;229,635277420227;1,6510009765625E-08;0,650115966796875;7;445;2,83128395676613E-07;-4,76676598191261E-07;100 nA
0,70068359375;230,135765418963;1,6143798828125E-08;0,70001220703125;7;446;2,83128395676613E-07;-4,76676598191261E-07;100 nA
0,750732421875;230,636253417699;1,5167236328125E-08;0,749908447265625;7;447;2,83128395676613E-07;-4,76676598191261E-07;100 nA
0,80078125;231,136741416436;1,483154296875E-08;0,799560546875;7;448;2,83128395676613E-07;-4,76676598191261E-07;100 nA
0,850830078125;231,637229415172;1,42822265625E-08;0,84991455078125;7;449;2,83128395676613E-07;-4,76676598191261E-07;100 nA
0,90087890625;232,137717413909;1,434326171875E-08;0,899658203125;7;450;2,83128395676613E-07;-4,76676598191261E-07;100 nA
0,950927734375;232,638205412645;1,422119140625E-08;0,94970703125;7;451;2,83128395676613E-07;-4,76676598191261E-07;100 nA
1,0009765625;233,138693411381;1,4312744140625E-08;1,0003662109375;7;452;2,83128395676613E-07;-4,76676598191261E-07;100 nA
0,950927734375;233,639181410118;1,0345458984375E-08;0,95001220703125;7;453;2,83128395676613E-07;-4,76676598191261E-07;100 nA
0,90087890625;234,139669408854;7,62939453125E-09;0,899658203125;7;454;2,83128395676613E-07;-4,76676598191261E-07;100 nA
0,850830078125;234,640157407591;6,439208984375E-09;0,849609375;7;455;2,83128395676613E-07;-4,76676598191261E-07;100 nA
0,80078125;235,140645406327;5,92041015625E-09;0,79986572265625;7;456;2,83128395676613E-07;-4,76676598191261E-07;100 nA
0,750732421875;235,641133405063;5,523681640625E-09;0,75;7;457;2,83128395676613E-07;-4,76676598191261E-07;100 nA
0,70068359375;236,1416214038;4,730224609375E-09;0,700042724609375;7;458;2,83128395676613E-07;-4,76676598191261E-07;100 nA
0,650634765625;236,642109402536;4,119873046875E-09;0,650115966796875;7;459;2,83128395676613E-07;-4,76676598191261E-07;100 nA
0,6005859375;237,142597401273;3,570556640625E-09;0,60015869140625;7;460;2,83128395676613E-07;-4,76676598191261E-07;100 nA
0,550537109375;237,643085400009;2,8076171875E-09;0,55023193359375;7;461;2,83128395676613E-07;-4,76676598191261E-07;100 nA
0,50048828125;238,143573398745;1,953125E-09;0,50018310546875;7;462;2,83128395676613E-07;-4,76676598191261E-07;100 nA
0,450439453125;238,644061397482;1,03759765625E-09;0,4501953125;7;463;2,83128395676613E-07;-4,76676598191261E-07;100 nA
0,400390625;239,144549396218;2,44140625E-10;0,40020751953125;7;464;2,83128395676613E-07;-4,76676598191261E-07;100 nA
0,350341796875;239,645037394954;-1,8310546875E-10;0,350189208984375;7;465;2,83128395676613E-07;-4,76676598191261E-07;100 nA
0,30029296875;240,145525393691;-1,40380859375E-09;0,300140380859375;7;466;2,83128395676613E-07;-4,76676598191261E-07;100 nA
0,250244140625;240,646013392427;-1,800537109375E-09;0,250091552734375;7;467;2,83128395676613E-07;-4,76676598191261E-07;100 nA
0,2001953125;241,146501391164;-2,593994140625E-09;0,2000732421875;7;468;2,83128395676613E-07;-4,76676598191261E-07;100 nA
0,150146484375;241,6469893899;-3,90625E-09;0,15008544921875;7;469;2,83128395676613E-07;-4,76676598191261E-07;100 nA
0,10009765625;242,147477388636;-4,486083984375E-09;0,100128173828125;7;470;2,83128395676613E-07;-4,76676598191261E-07;100 nA
0,050048828125;242,647965387373;-6,103515625E-09;0,050140380859375;7;471;2,83128395676613E-07;-4,76676598191261E-07;100 nA
0;243,148453386109;-7,8125E-09;0,000155639648437497;7;472;2,83128395676613E-07;-4,76676598191261E-07;100 nA
-0,050048828125;243,648941384846;-1,0467529296875E-08;-0,049774169921875;7;473;2,83128395676613E-07;-4,76676598191261E-07;100 nA
-0,10009765625;244,149429383582;-1,4495849609375E-08;-0,099609375;7;474;2,83128395676613E-07;-4,76676598191261E-07;100 nA
-0,150146484375;244,649917382318;-1,959228515625E-08;-0,149505615234375;7;475;2,83128395676613E-07;-4,76676598191261E-07;100 nA
-0,2001953125;245,150405381055;-2,4566650390625E-08;-0,199432373046875;7;476;2,83128395676613E-07;-4,76676598191261E-07;100 nA
-0,250244140625;245,650893379791;-2,734375E-08;-0,249359130859375;7;477;2,83128395676613E-07;-4,76676598191261E-07;100 nA
-0,30029296875;246,151381378528;-2,5482177734375E-08;-0,29925537109375;7;478;2,83128395676613E-07;-4,76676598191261E-07;100 nA
-0,350341796875;246,651869377264;-2,0294189453125E-08;-0,349212646484375;7;479;2,83128395676613E-07;-4,76676598191261E-07;100 nA
-0,400390625;247,152357376;-1,6510009765625E-08;-0,399078369140625;7;480;2,83128395676613E-07;-4,76676598191261E-07;100 nA
-0,450439453125;247,652845374737;-1,3916015625E-08;-0,448974609375;7;481;2,83128395676613E-07;-4,76676598191261E-07;100 nA
-0,50048828125;248,153333373473;-1,4312744140625E-08;-0,4989013671875;7;482;2,83128395676613E-07;-4,76676598191261E-07;100 nA
-0,550537109375;248,653821372209;-1,94091796875E-08;-0,548797607421875;7;483;2,83128395676613E-07;-4,76676598191261E-07;100 nA
-0,6005859375;249,154309370946;-3,1585693359375E-08;-0,598663330078125;7;484;2,83128395676613E-07;-4,76676598191261E-07;100 nA
-0,650634765625;249,654797369682;-5,4443359375E-08;-0,648590087890625;7;485;2,83128395676613E-07;-4,76676598191261E-07;100 nA
-0,70068359375;250,155285368419;-9,2559814453125E-08;-0,698486328125;7;486;2,83128395676613E-07;-4,76676598191261E-07;100 nA
-0,750732421875;250,655773367155;-1,40045166015625E-07;-0,74835205078125;7;487;2,83128395676613E-07;-4,76676598191261E-07;100 nA
-0,80078125;251,156261365891;-1,7431640625E-07;-0,7989501953125;7;488;2,83128395676613E-07;-4,76676598191261E-07;100 nA
-0,750732421875;251,656749364628;-1,19049072265625E-07;-0,7484130859375;7;489;2,83128395676613E-07;-4,76676598191261E-07;100 nA
-0,70068359375;252,157237363364;-6,9183349609375E-08;-0,698577880859375;7;490;2,83128395676613E-07;-4,76676598191261E-07;100 nA
-0,650634765625;252,657725362101;-2,972412109375E-08;-0,64862060546875;7;491;2,83128395676613E-07;-4,76676598191261E-07;100 nA
-0,6005859375;253,158213360837;-6,8359375E-09;-0,598785400390625;7;492;2,83128395676613E-07;-4,76676598191261E-07;100 nA
-0,550537109375;253,658701359573;4,33349609375E-09;-0,548919677734375;7;493;2,83128395676613E-07;-4,76676598191261E-07;100 nA
-0,50048828125;254,15918935831;8,23974609375E-09;-0,499114990234375;7;494;2,83128395676613E-07;-4,76676598191261E-07;100 nA
-0,450439453125;254,659677357046;1,01318359375E-08;-0,44915771484375;7;495;2,83128395676613E-07;-4,76676598191261E-07;100 nA
-0,400390625;255,160165355783;1,1199951171875E-08;-0,3992919921875;7;496;2,83128395676613E-07;-4,76676598191261E-07;100 nA
-0,350341796875;255,660653354519;1,1749267578125E-08;-0,349365234375;7;497;2,83128395676613E-07;-4,76676598191261E-07;100 nA
-0,30029296875;256,161141353255;1,2481689453125E-08;-0,29949951171875;7;498;2,83128395676613E-07;-4,76676598191261E-07;100 nA
-0,250244140625;256,661629351992;1,3397216796875E-08;-0,24951171875;7;499;2,83128395676613E-07;-4,76676598191261E-07;100 nA
-0,2001953125;257,162117350728;1,4801025390625E-08;-0,199615478515625;7;500;2,83128395676613E-07;-4,76676598191261E-07;100 nA
-0,150146484375;257,662605349464;1,6021728515625E-08;-0,149810791015625;7;501;2,83128395676613E-07;-4,76676598191261E-07;100 nA
-0,10009765625;258,163093348201;1,7425537109375E-08;-0,099884033203125;7;502;2,83128395676613E-07;-4,76676598191261E-07;100 nA
-0,050048828125;258,663581346937;1,8524169921875E-08;-0,0499267578125;7;503;2,83128395676613E-07;-4,76676598191261E-07;100 nA
0;259,164069345674;1,959228515625E-08;7,93457031249972E-05;7;504;2,83128395676613E-07;-4,76676598191261E-07;100 nA
0,050048828125;259,66455734441;2,0172119140625E-08;0,049896240234375;8;505;2,83830985426903E-07;-4,74446639418602E-07;100 nA
0,10009765625;260,165045343146;2,0599365234375E-08;0,099884033203125;8;506;2,83830985426903E-07;-4,74446639418602E-07;100 nA
0,150146484375;260,665533341883;2,05078125E-08;0,149993896484375;8;507;2,83830985426903E-07;-4,74446639418602E-07;100 nA
0,2001953125;261,166021340619;2,0172119140625E-08;0,20001220703125;8;508;2,83830985426903E-07;-4,74446639418602E-07;100 nA
0,250244140625;261,666509339356;1,9989013671875E-08;0,249969482421875;8;509;2,83830985426903E-07;-4,74446639418602E-07;100 nA
0,30029296875;262,166997338092;2,0172119140625E-08;0,300048828125;8;510;2,83830985426903E-07;-4,74446639418602E-07;100 nA
0,350341796875;262,667485336828;1,9775390625E-08;0,35003662109375;8;511;2,83830985426903E-07;-4,74446639418602E-07;100 nA
0,400390625;263,167973335565;1,953125E-08;0,400054931640625;8;512;2,83830985426903E-07;-4,74446639418602E-07;100 nA
0,450439453125;263,668461334301;1,904296875E-08;0,450042724609375;8;513;2,83830985426903E-07;-4,74446639418602E-07;100 nA
0,50048828125;264,168949333038;1,812744140625E-08;0,50006103515625;8;514;2,83830985426903E-07;-4,74446639418602E-07;100 nA
0,550537109375;264,669437331774;1,72119140625E-08;0,550048828125;8;515;2,83830985426903E-07;-4,74446639418602E-07;100 nA
0,6005859375;265,16992533051;1,6693115234375E-08;0,60009765625;8;516;2,83830985426903E-07;-4,74446639418602E-07;100 nA
0,650634765625;265,670413329247;1,64794921875E-08;0,650054931640625;8;517;2,83830985426903E-07;-4,74446639418602E-07;100 nA
0,70068359375;266,170901327983;1,5899658203125E-08;0,699951171875;8;518;2,83830985426903E-07;-4,74446639418602E-07;100 nA
0,750732421875;266,671389326719;1,5106201171875E-08;0,7498779296875;8;519;2,83830985426903E-07;-4,74446639418602E-07;100 nA
0,80078125;267,171877325456;1,4495849609375E-08;0,80047607421875;8;520;2,83830985426903E-07;-4,74446639418602E-07;100 nA
0,850830078125;267,672365324192;1,42822265625E-08;0,84991455078125;8;521;2,83830985426903E-07;-4,74446639418602E-07;100 nA
0,90087890625;268,172853322929;1,4373779296875E-08;0,899658203125;8;522;2,83830985426903E-07;-4,74446639418602E-07;100 nA
0,950927734375;268,673341321665;1,4068603515625E-08;0,94970703125;8;523;2,83830985426903E-07;-4,74446639418602E-07;100 nA
1,0009765625;269,173829320401;1,422119140625E-08;0,99945068359375;8;524;2,83830985426903E-07;-4,74446639418602E-07;100 nA
0,950927734375;269,674317319138;1,019287109375E-08;0,95001220703125;8;525;2,83830985426903E-07;-4,74446639418602E-07;100 nA
0,90087890625;270,174805317874;7,415771484375E-09;0,899658203125;8;526;2,83830985426903E-07;-4,74446639418602E-07;100 nA
0,850830078125;270,675293316611;6,65283203125E-09;0,8502197265625;8;527;2,83830985426903E-07;-4,74446639418602E-07;100 nA
0,80078125;271,175781315347;5,79833984375E-09;0,799560546875;8;528;2,83830985426903E-07;-4,74446639418602E-07;100 nA
0,750732421875;271,676269314083;5,31005859375E-09;0,749847412109375;8;529;2,83830985426903E-07;-4,74446639418602E-07;100 nA
0,70068359375;272,17675731282;4,82177734375E-09;0,699981689453125;8;530;2,83830985426903E-07;-4,74446639418602E-07;100 nA
0,650634765625;272,677245311556;4,180908203125E-09;0,650146484375;8;531;2,83830985426903E-07;-4,74446639418602E-07;100 nA
0,6005859375;273,177733310293;3,692626953125E-09;0,600250244140625;8;532;2,83830985426903E-07;-4,74446639418602E-07;100 nA
0,550537109375;273,678221309029;2,685546875E-09;0,550201416015625;8;533;2,83830985426903E-07;-4,74446639418602E-07;100 nA
0,50048828125;274,178709307765;2,105712890625E-09;0,500152587890625;8;534;2,83830985426903E-07;-4,74446639418602E-07;100 nA
0,450439453125;274,679197306502;1,495361328125E-09;0,450225830078125;8;535;2,83830985426903E-07;-4,74446639418602E-07;100 nA
0,400390625;275,179685305238;4,57763671875E-10;0,400146484375;8;536;2,83830985426903E-07;-4,74446639418602E-07;100 nA
0,350341796875;275,680173303974;-2,44140625E-10;0,350189208984375;8;537;2,83830985426903E-07;-4,74446639418602E-07;100 nA
0,30029296875;276,180661302711;-1,03759765625E-09;0,300140380859375;8;538;2,83830985426903E-07;-4,74446639418602E-07;100 nA
0,250244140625;276,681149301447;-1,46484375E-09;0,250152587890625;8;539;2,83830985426903E-07;-4,74446639418602E-07;100 nA
0,2001953125;277,181637300184;-2,777099609375E-09;0,2000732421875;8;540;2,83830985426903E-07;-4,74446639418602E-07;100 nA
0,150146484375;277,68212529892;-3,60107421875E-09;0,150115966796875;8;541;2,83830985426903E-07;-4,74446639418602E-07;100 nA
0,10009765625;278,182613297656;-4,547119140625E-09;0,100128173828125;8;542;2,83830985426903E-07;-4,74446639418602E-07;100 nA
0,050048828125;278,683101296393;-5,9814453125E-09;0,0501708984375;8;543;2,83830985426903E-07;-4,74446639418602E-07;100 nA
0;279,183589295129;-7,50732421875E-09;0,000155639648437497;8;544;2,83830985426903E-07;-4,74446639418602E-07;100 nA
-0,050048828125;279,684077293866;-1,043701171875E-08;-0,049713134765625;8;545;2,83830985426903E-07;-4,74446639418602E-07;100 nA
-0,10009765625;280,184565292602;-1,4190673828125E-08;-0,099609375;8;546;2,83830985426903E-07;-4,74446639418602E-07;100 nA
-0,150146484375;280,685053291338;-1,947021484375E-08;-0,1495361328125;8;547;2,83830985426903E-07;-4,74446639418602E-07;100 nA
-0,2001953125;281,185541290075;-2,4627685546875E-08;-0,19940185546875;8;548;2,83830985426903E-07;-4,74446639418602E-07;100 nA
-0,250244140625;281,686029288811;-2,7435302734375E-08;-0,249298095703125;8;549;2,83830985426903E-07;-4,74446639418602E-07;100 nA
-0,30029296875;282,186517287548;-2,5299072265625E-08;-0,299224853515625;8;550;2,83830985426903E-07;-4,74446639418602E-07;100 nA
-0,350341796875;282,687005286284;-2,020263671875E-08;-0,349151611328125;8;551;2,83830985426903E-07;-4,74446639418602E-07;100 nA
-0,400390625;283,18749328502;-1,6693115234375E-08;-0,399078369140625;8;552;2,83830985426903E-07;-4,74446639418602E-07;100 nA
-0,450439453125;283,687981283757;-1,3916015625E-08;-0,448974609375;8;553;2,83830985426903E-07;-4,74446639418602E-07;100 nA
-0,50048828125;284,188469282493;-1,416015625E-08;-0,498870849609375;8;554;2,83830985426903E-07;-4,74446639418602E-07;100 nA
-0,550537109375;284,688957281229;-1,8585205078125E-08;-0,54876708984375;8;555;2,83830985426903E-07;-4,74446639418602E-07;100 nA
-0,6005859375;285,189445279966;-3,125E-08;-0,598663330078125;8;556;2,83830985426903E-07;-4,74446639418602E-07;100 nA
-0,650634765625;285,689933278702;-5,4229736328125E-08;-0,6485595703125;8;557;2,83830985426903E-07;-4,74446639418602E-07;100 nA
-0,70068359375;286,190421277439;-9,222412109375E-08;-0,69842529296875;8;558;2,83830985426903E-07;-4,74446639418602E-07;100 nA
-0,750732421875;286,690909276175;-1,39892578125E-07;-0,748443603515625;8;559;2,83830985426903E-07;-4,74446639418602E-07;100 nA
-0,80078125;287,191397274911;-1,7352294921875E-07;-0,79864501953125;8;560;2,83830985426903E-07;-4,74446639418602E-07;100 nA
-0,750732421875;287,691885273648;-1,185302734375E-07;-0,748443603515625;8;561;2,83830985426903E-07;-4,74446639418602E-07;100 nA
-0,70068359375;288,192373272384;-6,9305419921875E-08;-0,698577880859375;8;562;2,83830985426903E-07;-4,74446639418602E-07;100 nA
-0,650634765625;288,692861271121;-2,972412109375E-08;-0,648590087890625;8;563;2,83830985426903E-07;-4,74446639418602E-07;100 nA
-0,6005859375;289,193349269857;-7,110595703125E-09;-0,598724365234375;8;564;2,83830985426903E-07;-4,74446639418602E-07;100 nA
-0,550537109375;289,693837268593;4,2724609375E-09;-0,54888916015625;8;565;2,83830985426903E-07;-4,74446639418602E-07;100 nA
-0,50048828125;290,19432526733;8,026123046875E-09;-0,49908447265625;8;566;2,83830985426903E-07;-4,74446639418602E-07;100 nA
-0,450439453125;290,694813266066;1,031494140625E-08;-0,449127197265625;8;567;2,83830985426903E-07;-4,74446639418602E-07;100 nA
-0,400390625;291,195301264803;1,1260986328125E-08;-0,3992919921875;8;568;2,83830985426903E-07;-4,74446639418602E-07;100 nA
-0,350341796875;291,695789263539;1,2451171875E-08;-0,349395751953125;8;569;2,83830985426903E-07;-4,74446639418602E-07;100 nA
-0,30029296875;292,196277262275;1,2847900390625E-08;-0,299468994140625;8;570;2,83830985426903E-07;-4,74446639418602E-07;100 nA
-0,250244140625;292,696765261012;1,3916015625E-08;-0,24957275390625;8;571;2,83830985426903E-07;-4,74446639418602E-07;100 nA
-0,2001953125;293,197253259748;1,507568359375E-08;-0,19964599609375;8;572;2,83830985426903E-07;-4,74446639418602E-07;100 nA
-0,150146484375;293,697741258484;1,6387939453125E-08;-0,14984130859375;8;573;2,83830985426903E-07;-4,74446639418602E-07;100 nA
-0,10009765625;294,198229257221;1,7669677734375E-08;-0,099822998046875;8;574;2,83830985426903E-07;-4,74446639418602E-07;100 nA
-0,050048828125;294,698717255957;1,898193359375E-08;-0,0499267578125;8;575;2,83830985426903E-07;-4,74446639418602E-07;100 nA
0;295,199205254694;2,0172119140625E-08;6,71386718749944E-05;8;576;2,83830985426903E-07;-4,74446639418602E-07;100 nA
0,050048828125;295,69969325343;2,044677734375E-08;0,04998779296875;9;577;2,86564975976944E-07;-4,74248081445694E-07;100 nA
0,10009765625;296,200181252166;2,0721435546875E-08;0,0999755859375;9;578;2,86564975976944E-07;-4,74248081445694E-07;100 nA
0,150146484375;296,700669250903;2,056884765625E-08;0,149993896484375;9;579;2,86564975976944E-07;-4,74248081445694E-07;100 nA
0,2001953125;297,201157249639;2,0416259765625E-08;0,20001220703125;9;580;2,86564975976944E-07;-4,74248081445694E-07;100 nA
0,250244140625;297,701645248376;2,008056640625E-08;0,25006103515625;9;581;2,86564975976944E-07;-4,74248081445694E-07;100 nA
0,30029296875;298,202133247112;1,9866943359375E-08;0,300018310546875;9;582;2,86564975976944E-07;-4,74248081445694E-07;100 nA
0,350341796875;298,702621245848;1,9866943359375E-08;0,35009765625;9;583;2,86564975976944E-07;-4,74248081445694E-07;100 nA
0,400390625;299,203109244585;1,9622802734375E-08;0,400146484375;9;584;2,86564975976944E-07;-4,74248081445694E-07;100 nA
0,450439453125;299,703597243321;1,94091796875E-08;0,450103759765625;9;585;2,86564975976944E-07;-4,74248081445694E-07;100 nA
0,50048828125;300,204085242058;1,81884765625E-08;0,500091552734375;9;586;2,86564975976944E-07;-4,74248081445694E-07;100 nA
0,550537109375;300,704573240794;1,727294921875E-08;0,55010986328125;9;587;2,86564975976944E-07;-4,74248081445694E-07;100 nA
0,6005859375;301,20506123953;1,6876220703125E-08;0,60015869140625;9;588;2,86564975976944E-07;-4,74248081445694E-07;100 nA
0,650634765625;301,705549238267;1,6448974609375E-08;0,650054931640625;9;589;2,86564975976944E-07;-4,74248081445694E-07;100 nA
0,70068359375;302,206037237003;1,641845703125E-08;0,699981689453125;9;590;2,86564975976944E-07;-4,74248081445694E-07;100 nA
0,750732421875;302,706525235739;1,5167236328125E-08;0,749908447265625;9;591;2,86564975976944E-07;-4,74248081445694E-07;100 nA
0,80078125;303,207013234476;1,483154296875E-08;0,799560546875;9;592;2,86564975976944E-07;-4,74248081445694E-07;100 nA
0,850830078125;303,707501233212;1,4495849609375E-08;0,849609375;9;593;2,86564975976944E-07;-4,74248081445694E-07;100 nA
0,90087890625;304,207989231949;1,434326171875E-08;0,899658203125;9;594;2,86564975976944E-07;-4,74248081445694E-07;100 nA
0,950927734375;304,708477230685;1,4373779296875E-08;0,94970703125;9;595;2,86564975976944E-07;-4,74248081445694E-07;100 nA
1,0009765625;305,208965229421;1,416015625E-08;0,9991455078125;9;596;2,86564975976944E-07;-4,74248081445694E-07;100 nA
0,950927734375;305,709453228158;1,019287109375E-08;0,94970703125;9;597;2,86564975976944E-07;-4,74248081445694E-07;100 nA
0,90087890625;306,209941226894;7,8125E-09;0,899658203125;9;598;2,86564975976944E-07;-4,74248081445694E-07;100 nA
0,850830078125;306,710429225631;6,591796875E-09;0,84991455078125;9;599;2,86564975976944E-07;-4,74248081445694E-07;100 nA
0,80078125;307,210917224367;5,859375E-09;0,799560546875;9;600;2,86564975976944E-07;-4,74248081445694E-07;100 nA
0,750732421875;307,711405223103;5,4931640625E-09;0,75;9;601;2,86564975976944E-07;-4,74248081445694E-07;100 nA
0,70068359375;308,21189322184;4,7607421875E-09;0,70001220703125;9;602;2,86564975976944E-07;-4,74248081445694E-07;100 nA
0,650634765625;308,712381220576;4,241943359375E-09;0,650115966796875;9;603;2,86564975976944E-07;-4,74248081445694E-07;100 nA
0,6005859375;309,212869219313;3,7841796875E-09;0,600189208984375;9;604;2,86564975976944E-07;-4,74248081445694E-07;100 nA
0,550537109375;309,713357218049;3,021240234375E-09;0,55029296875;9;605;2,86564975976944E-07;-4,74248081445694E-07;100 nA
0,50048828125;310,213845216785;2,044677734375E-09;0,500152587890625;9;606;2,86564975976944E-07;-4,74248081445694E-07;100 nA
0,450439453125;310,714333215522;1,220703125E-09;0,4501953125;9;607;2,86564975976944E-07;-4,74248081445694E-07;100 nA
0,400390625;311,214821214258;7,32421875E-10;0,400238037109375;9;608;2,86564975976944E-07;-4,74248081445694E-07;100 nA
0,350341796875;311,715309212995;-2,74658203125E-10;0,3502197265625;9;609;2,86564975976944E-07;-4,74248081445694E-07;100 nA
0,30029296875;312,215797211731;-5,79833984375E-10;0,30010986328125;9;610;2,86564975976944E-07;-4,74248081445694E-07;100 nA
0,250244140625;312,716285210467;-1,40380859375E-09;0,250152587890625;9;611;2,86564975976944E-07;-4,74248081445694E-07;100 nA
0,2001953125;313,216773209204;-2,593994140625E-09;0,200103759765625;9;612;2,86564975976944E-07;-4,74248081445694E-07;100 nA
0,150146484375;313,71726120794;-3,631591796875E-09;0,150115966796875;9;613;2,86564975976944E-07;-4,74248081445694E-07;100 nA
0,10009765625;314,217749206676;-4,21142578125E-09;0,10009765625;9;614;2,86564975976944E-07;-4,74248081445694E-07;100 nA
0,050048828125;314,718237205413;-5,950927734375E-09;0,050079345703125;9;615;2,86564975976944E-07;-4,74248081445694E-07;100 nA
0;315,218725204149;-7,476806640625E-09;0,000146484375000006;9;616;2,86564975976944E-07;-4,74248081445694E-07;100 nA
-0,050048828125;315,719213202886;-1,0162353515625E-08;-0,049774169921875;9;617;2,86564975976944E-07;-4,74248081445694E-07;100 nA
-0,10009765625;316,219701201622;-1,409912109375E-08;-0,099700927734375;9;618;2,86564975976944E-07;-4,74248081445694E-07;100 nA
-0,150146484375;316,720189200358;-1,873779296875E-08;-0,149566650390625;9;619;2,86564975976944E-07;-4,74248081445694E-07;100 nA
-0,2001953125;317,220677199095;-2,4810791015625E-08;-0,199462890625;9;620;2,86564975976944E-07;-4,74248081445694E-07;100 nA
-0,250244140625;317,721165197831;-2,7862548828125E-08;-0,24932861328125;9;621;2,86564975976944E-07;-4,74248081445694E-07;100 nA
-0,30029296875;318,221653196568;-2,655029296875E-08;-0,29925537109375;9;622;2,86564975976944E-07;-4,74248081445694E-07;100 nA
-0,350341796875;318,722141195304;-2,142333984375E-08;-0,349151611328125;9;623;2,86564975976944E-07;-4,74248081445694E-07;100 nA
-0,400390625;319,22262919404;-1,6876220703125E-08;-0,39910888671875;9;624;2,86564975976944E-07;-4,74248081445694E-07;100 nA
-0,450439453125;319,723117192777;-1,397705078125E-08;-0,44903564453125;9;625;2,86564975976944E-07;-4,74248081445694E-07;100 nA
-0,50048828125;320,223605191513;-1,3916015625E-08;-0,498992919921875;9;626;2,86564975976944E-07;-4,74248081445694E-07;100 nA
-0,550537109375;320,72409319025;-1,84326171875E-08;-0,548797607421875;9;627;2,86564975976944E-07;-4,74248081445694E-07;100 nA
-0,6005859375;321,224581188986;-3,1005859375E-08;-0,598724365234375;9;628;2,86564975976944E-07;-4,74248081445694E-07;100 nA
-0,650634765625;321,725069187722;-5,4351806640625E-08;-0,6485595703125;9;629;2,86564975976944E-07;-4,74248081445694E-07;100 nA
-0,70068359375;322,225557186459;-9,2742919921875E-08;-0,698486328125;9;630;2,86564975976944E-07;-4,74248081445694E-07;100 nA
-0,750732421875;322,726045185195;-1,3916015625E-07;-0,74835205078125;9;631;2,86564975976944E-07;-4,74248081445694E-07;100 nA
-0,80078125;323,226533183931;-1,72637939453125E-07;-0,79864501953125;9;632;2,86564975976944E-07;-4,74248081445694E-07;100 nA
-0,750732421875;323,727021182668;-1,1822509765625E-07;-0,748443603515625;9;633;2,86564975976944E-07;-4,74248081445694E-07;100 nA
-0,70068359375;324,227509181404;-6,9183349609375E-08;-0,698516845703125;9;634;2,86564975976944E-07;-4,74248081445694E-07;100 nA
-0,650634765625;324,727997180141;-2,996826171875E-08;-0,6485595703125;9;635;2,86564975976944E-07;-4,74248081445694E-07;100 nA
-0,6005859375;325,228485178877;-7,32421875E-09;-0,598724365234375;9;636;2,86564975976944E-07;-4,74248081445694E-07;100 nA
-0,550537109375;325,728973177613;4,150390625E-09;-0,548858642578125;9;637;2,86564975976944E-07;-4,74248081445694E-07;100 nA
-0,50048828125;326,22946117635;8,148193359375E-09;-0,498931884765625;9;638;2,86564975976944E-07;-4,74248081445694E-07;100 nA
-0,450439453125;326,729949175086;1,025390625E-08;-0,449005126953125;9;639;2,86564975976944E-07;-4,74248081445694E-07;100 nA
-0,400390625;327,230437173823;1,153564453125E-08;-0,399169921875;9;640;2,86564975976944E-07;-4,74248081445694E-07;100 nA
-0,350341796875;327,730925172559;1,20849609375E-08;-0,349273681640625;9;641;2,86564975976944E-07;-4,74248081445694E-07;100 nA
-0,30029296875;328,231413171295;1,275634765625E-08;-0,29931640625;9;642;2,86564975976944E-07;-4,74248081445694E-07;100 nA
-0,250244140625;328,731901170032;1,409912109375E-08;-0,24945068359375;9;643;2,86564975976944E-07;-4,74248081445694E-07;100 nA
-0,2001953125;329,232389168768;1,5380859375E-08;-0,199493408203125;9;644;2,86564975976944E-07;-4,74248081445694E-07;100 nA
-0,150146484375;329,732877167505;1,6754150390625E-08;-0,149627685546875;9;645;2,86564975976944E-07;-4,74248081445694E-07;100 nA
-0,10009765625;330,233365166241;1,8280029296875E-08;-0,099761962890625;9;646;2,86564975976944E-07;-4,74248081445694E-07;100 nA
-0,050048828125;330,733853164977;1,9500732421875E-08;-0,04986572265625;9;647;2,86564975976944E-07;-4,74248081445694E-07;100 nA
0;331,234341163714;2,0294189453125E-08;0,000100708007812506;9;648;2,86564975976944E-07;-4,74248081445694E-07;100 nA
0,050048828125;331,73482916245;2,093505859375E-08;0,050048828125;10;649;2,85312533378601E-07;-4,7055184841156E-07;100 nA
0,10009765625;332,235317161186;2,105712890625E-08;0,10009765625;10;650;2,85312533378601E-07;-4,7055184841156E-07;100 nA
0,150146484375;332,735805159923;2,099609375E-08;0,150054931640625;10;651;2,85312533378601E-07;-4,7055184841156E-07;100 nA
0,2001953125;333,236293158659;2,0721435546875E-08;0,200103759765625;10;652;2,85312533378601E-07;-4,7055184841156E-07;100 nA
0,250244140625;333,736781157396;2,044677734375E-08;0,2501220703125;10;653;2,85312533378601E-07;-4,7055184841156E-07;100 nA
0,30029296875;334,237269156132;2,01416015625E-08;0,300140380859375;10;654;2,85312533378601E-07;-4,7055184841156E-07;100 nA
0,350341796875;334,737757154868;1,9866943359375E-08;0,350128173828125;10;655;2,85312533378601E-07;-4,7055184841156E-07;100 nA
0,400390625;335,238245153605;1,959228515625E-08;0,400115966796875;10;656;2,85312533378601E-07;-4,7055184841156E-07;100 nA
0,450439453125;335,738733152341;1,922607421875E-08;0,450164794921875;10;657;2,85312533378601E-07;-4,7055184841156E-07;100 nA
0,50048828125;336,239221151078;1,8310546875E-08;0,500213623046875;10;658;2,85312533378601E-07;-4,7055184841156E-07;100 nA
0,550537109375;336,739709149814;1,7364501953125E-08;0,550201416015625;10;659;2,85312533378601E-07;-4,7055184841156E-07;100 nA
0,6005859375;337,24019714855;1,6845703125E-08;0,600189208984375;10;660;2,85312533378601E-07;-4,7055184841156E-07;100 nA
0,650634765625;337,740685147287;1,6387939453125E-08;0,650115966796875;10;661;2,85312533378601E-07;-4,7055184841156E-07;100 nA
0,70068359375;338,241173146023;1,5899658203125E-08;0,699981689453125;10;662;2,85312533378601E-07;-4,7055184841156E-07;100 nA
0,750732421875;338,74166114476;1,5106201171875E-08;0,74993896484375;10;663;2,85312533378601E-07;-4,7055184841156E-07;100 nA
0,80078125;339,242149143496;1,4495849609375E-08;0,8001708984375;10;664;2,85312533378601E-07;-4,7055184841156E-07;100 nA
0,850830078125;339,742637142232;1,4892578125E-08;0,849609375;10;665;2,85312533378601E-07;-4,7055184841156E-07;100 nA
0,90087890625;340,243125140969;1,45263671875E-08;0,899658203125;10;666;2,85312533378601E-07;-4,7055184841156E-07;100 nA
0,950927734375;340,743613139705;1,409912109375E-08;0,94970703125;10;667;2,85312533378601E-07;-4,7055184841156E-07;100 nA
1,0009765625;341,244101138441;1,416015625E-08;1,00006103515625;10;668;2,85312533378601E-07;-4,7055184841156E-07;100 nA
0,950927734375;341,744589137178;9,613037109375E-09;0,94970703125;10;669;2,85312533378601E-07;-4,7055184841156E-07;100 nA
0,90087890625;342,245077135914;7,50732421875E-09;0,9002685546875;10;670;2,85312533378601E-07;-4,7055184841156E-07;100 nA
0,850830078125;342,745565134651;6,34765625E-09;0,84991455078125;10;671;2,85312533378601E-07;-4,7055184841156E-07;100 nA
0,80078125;343,246053133387;5,523681640625E-09;0,80047607421875;10;672;2,85312533378601E-07;-4,7055184841156E-07;100 nA
0,750732421875;343,746541132123;4,791259765625E-09;0,7498779296875;10;673;2,85312533378601E-07;-4,7055184841156E-07;100 nA
0,70068359375;344,24702913086;4,39453125E-09;0,699981689453125;10;674;2,85312533378601E-07;-4,7055184841156E-07;100 nA
0,650634765625;344,747517129596;3,692626953125E-09;0,649993896484375;10;675;2,85312533378601E-07;-4,7055184841156E-07;100 nA
0,6005859375;345,248005128333;3,2958984375E-09;0,600067138671875;10;676;2,85312533378601E-07;-4,7055184841156E-07;100 nA
0,550537109375;345,748493127069;2,38037109375E-09;0,550079345703125;10;677;2,85312533378601E-07;-4,7055184841156E-07;100 nA
0,50048828125;346,248981125805;1,03759765625E-09;0,500030517578125;10;678;2,85312533378601E-07;-4,7055184841156E-07;100 nA
0,450439453125;346,749469124542;9,765625E-10;0,450042724609375;10;679;2,85312533378601E-07;-4,7055184841156E-07;100 nA
0,400390625;347,249957123278;2,44140625E-10;0,40008544921875;10;680;2,85312533378601E-07;-4,7055184841156E-07;100 nA
0,350341796875;347,750445122015;-1,129150390625E-09;0,35009765625;10;681;2,85312533378601E-07;-4,7055184841156E-07;100 nA
0,30029296875;348,250933120751;-1,28173828125E-09;0,300048828125;10;682;2,85312533378601E-07;-4,7055184841156E-07;100 nA
0,250244140625;348,751421119487;-2,105712890625E-09;0,250030517578125;10;683;2,85312533378601E-07;-4,7055184841156E-07;100 nA
0,2001953125;349,251909118224;-3,082275390625E-09;0,199981689453125;10;684;2,85312533378601E-07;-4,7055184841156E-07;100 nA
0,150146484375;349,75239711696;-3,5400390625E-09;0,1500244140625;10;685;2,85312533378601E-07;-4,7055184841156E-07;100 nA
0,10009765625;350,252885115696;-4,669189453125E-09;0,0999755859375;10;686;2,85312533378601E-07;-4,7055184841156E-07;100 nA
0,050048828125;350,753373114433;-5,859375E-09;0,050079345703125;10;687;2,85312533378601E-07;-4,7055184841156E-07;100 nA
0;351,253861113169;-7,6904296875E-09;0,000125122070312497;10;688;2,85312533378601E-07;-4,7055184841156E-07;100 nA
-0,050048828125;351,754349111906;-1,0009765625E-08;-0,049896240234375;10;689;2,85312533378601E-07;-4,7055184841156E-07;100 nA
-0,10009765625;352,254837110642;-1,3397216796875E-08;-0,099700927734375;10;690;2,85312533378601E-07;-4,7055184841156E-07;100 nA
-0,150146484375;352,755325109378;-1,8707275390625E-08;-0,1495361328125;10;691;2,85312533378601E-07;-4,7055184841156E-07;100 nA
-0,2001953125;353,255813108115;-2,44140625E-08;-0,199432373046875;10;692;2,85312533378601E-07;-4,7055184841156E-07;100 nA
-0,250244140625;353,756301106851;-2,783203125E-08;-0,249359130859375;10;693;2,85312533378601E-07;-4,7055184841156E-07;100 nA
-0,30029296875;354,256789105588;-2,6702880859375E-08;-0,2991943359375;10;694;2,85312533378601E-07;-4,7055184841156E-07;100 nA
-0,350341796875;354,757277104324;-2,1484375E-08;-0,34918212890625;10;695;2,85312533378601E-07;-4,7055184841156E-07;100 nA
-0,400390625;355,25776510306;-1,6845703125E-08;-0,399078369140625;10;696;2,85312533378601E-07;-4,7055184841156E-07;100 nA
-0,450439453125;355,758253101797;-1,397705078125E-08;-0,448944091796875;10;697;2,85312533378601E-07;-4,7055184841156E-07;100 nA
-0,50048828125;356,258741100533;-1,3763427734375E-08;-0,498809814453125;10;698;2,85312533378601E-07;-4,7055184841156E-07;100 nA
-0,550537109375;356,75922909927;-1,7791748046875E-08;-0,548675537109375;10;699;2,85312533378601E-07;-4,7055184841156E-07;100 nA
-0,6005859375;357,259717098006;-3,0120849609375E-08;-0,598541259765625;10;700;2,85312533378601E-07;-4,7055184841156E-07;100 nA
-0,650634765625;357,760205096742;-5,3436279296875E-08;-0,648468017578125;10;701;2,85312533378601E-07;-4,7055184841156E-07;100 nA
-0,70068359375;358,260693095479;-9,19189453125E-08;-0,6983642578125;10;702;2,85312533378601E-07;-4,7055184841156E-07;100 nA
-0,750732421875;358,761181094215;-1,37725830078125E-07;-0,748199462890625;10;703;2,85312533378601E-07;-4,7055184841156E-07;100 nA
-0,80078125;359,261669092951;-1,7108154296875E-07;-0,79864501953125;10;704;2,85312533378601E-07;-4,7055184841156E-07;100 nA
-0,750732421875;359,762157091688;-1,16973876953125E-07;-0,748260498046875;10;705;2,85312533378601E-07;-4,7055184841156E-07;100 nA
-0,70068359375;360,262645090424;-6,842041015625E-08;-0,698394775390625;10;706;2,85312533378601E-07;-4,7055184841156E-07;100 nA
-0,650634765625;360,763133089161;-2,960205078125E-08;-0,6485595703125;10;707;2,85312533378601E-07;-4,7055184841156E-07;100 nA
-0,6005859375;361,263621087897;-6,622314453125E-09;-0,598602294921875;10;708;2,85312533378601E-07;-4,7055184841156E-07;100 nA
-0,550537109375;361,764109086633;4,33349609375E-09;-0,54876708984375;10;709;2,85312533378601E-07;-4,7055184841156E-07;100 nA
-0,50048828125;362,26459708537;8,270263671875E-09;-0,498870849609375;10;710;2,85312533378601E-07;-4,7055184841156E-07;100 nA
-0,450439453125;362,765085084106;1,0406494140625E-08;-0,449005126953125;10;711;2,85312533378601E-07;-4,7055184841156E-07;100 nA
-0,400390625;363,265573082843;1,1444091796875E-08;-0,39910888671875;10;712;2,85312533378601E-07;-4,7055184841156E-07;100 nA
-0,350341796875;363,766061081579;1,2847900390625E-08;-0,349212646484375;10;713;2,85312533378601E-07;-4,7055184841156E-07;100 nA
-0,30029296875;364,266549080315;1,324462890625E-08;-0,29931640625;10;714;2,85312533378601E-07;-4,7055184841156E-07;100 nA
-0,250244140625;364,767037079052;1,4312744140625E-08;-0,24945068359375;10;715;2,85312533378601E-07;-4,7055184841156E-07;100 nA
-0,2001953125;365,267525077788;1,5472412109375E-08;-0,199493408203125;10;716;2,85312533378601E-07;-4,7055184841156E-07;100 nA
-0,150146484375;365,768013076525;1,66015625E-08;-0,149658203125;10;717;2,85312533378601E-07;-4,7055184841156E-07;100 nA
-0,10009765625;366,268501075261;1,8463134765625E-08;-0,09979248046875;10;718;2,85312533378601E-07;-4,7055184841156E-07;100 nA
-0,050048828125;366,768989073997;1,9500732421875E-08;-0,0498046875;10;719;2,85312533378601E-07;-4,7055184841156E-07;100 nA
0;367,269477072734;2,0294189453125E-08;7,01904296875056E-05;10;720;2,85312533378601E-07;-4,7055184841156E-07;100 nA
